,data,timestamp,participant,document,val,arou,eng
0,0.27,1644577241.8125,P01,D04,0,0,1
1,0.5,1644577241.828125,P01,D04,0,0,1
2,0.59,1644577241.84375,P01,D04,0,0,1
3,0.52,1644577241.859375,P01,D04,0,0,1
4,0.31,1644577241.875,P01,D04,0,0,1
5,0.05,1644577241.890625,P01,D04,0,0,1
6,-0.18,1644577241.90625,P01,D04,0,0,1
7,-0.31,1644577241.921875,P01,D04,0,0,1
8,-0.31,1644577241.9375,P01,D04,0,0,1
9,-0.23,1644577241.953125,P01,D04,0,0,1
10,-0.13,1644577241.96875,P01,D04,0,0,1
11,-0.06,1644577241.984375,P01,D04,0,0,1
12,-0.02,1644577242.0,P01,D04,0,0,1
13,-0.0,1644577242.015625,P01,D04,0,0,1
14,0.03,1644577242.03125,P01,D04,0,0,1
15,0.07,1644577242.046875,P01,D04,0,0,1
16,0.12,1644577242.0625,P01,D04,0,0,1
17,0.13,1644577242.078125,P01,D04,0,0,1
18,0.09,1644577242.09375,P01,D04,0,0,1
19,0.03,1644577242.109375,P01,D04,0,0,1
20,-0.02,1644577242.125,P01,D04,0,0,1
21,-0.03,1644577242.140625,P01,D04,0,0,1
22,0.02,1644577242.15625,P01,D04,0,0,1
23,0.1,1644577242.171875,P01,D04,0,0,1
24,0.14,1644577242.1875,P01,D04,0,0,1
25,0.11,1644577242.203125,P01,D04,0,0,1
26,0.04,1644577242.21875,P01,D04,0,0,1
27,0.0,1644577242.234375,P01,D04,0,0,1
28,0.1,1644577242.25,P01,D04,0,0,1
29,0.4,1644577242.265625,P01,D04,0,0,1
30,0.85,1644577242.28125,P01,D04,0,0,1
31,1.28,1644577242.296875,P01,D04,0,0,1
32,1.49,1644577242.3125,P01,D04,0,0,1
33,1.34,1644577242.328125,P01,D04,0,0,1
34,0.84,1644577242.34375,P01,D04,0,0,1
35,0.15,1644577242.359375,P01,D04,0,0,1
36,-0.5,1644577242.375,P01,D04,0,0,1
37,-0.9,1644577242.390625,P01,D04,0,0,1
38,-0.99,1644577242.40625,P01,D04,0,0,1
39,-0.85,1644577242.421875,P01,D04,0,0,1
40,-0.62,1644577242.4375,P01,D04,0,0,1
41,-0.4,1644577242.453125,P01,D04,0,0,1
42,-0.24,1644577242.46875,P01,D04,0,0,1
43,-0.11,1644577242.484375,P01,D04,0,0,1
44,0.04,1644577242.5,P01,D04,0,0,1
45,0.22,1644577242.515625,P01,D04,0,0,1
46,0.38,1644577242.53125,P01,D04,0,0,1
47,0.46,1644577242.546875,P01,D04,0,0,1
48,0.41,1644577242.5625,P01,D04,0,0,1
49,0.3,1644577242.578125,P01,D04,0,0,1
50,0.18,1644577242.59375,P01,D04,0,0,1
51,0.14,1644577242.609375,P01,D04,0,0,1
52,0.22,1644577242.625,P01,D04,0,0,1
53,0.36,1644577242.640625,P01,D04,0,0,1
54,0.49,1644577242.65625,P01,D04,0,0,1
55,0.52,1644577242.671875,P01,D04,0,0,1
56,0.43,1644577242.6875,P01,D04,0,0,1
57,0.21,1644577242.703125,P01,D04,0,0,1
58,-0.04,1644577242.71875,P01,D04,0,0,1
59,-0.25,1644577242.734375,P01,D04,0,0,1
60,-0.35,1644577242.75,P01,D04,0,0,1
61,-0.32,1644577242.765625,P01,D04,0,0,1
62,-0.2,1644577242.78125,P01,D04,0,0,1
63,-0.04,1644577242.796875,P01,D04,0,0,1
64,0.06,1644577242.8125,P01,D04,0,0,1
65,0.07,1644577242.828125,P01,D04,0,0,1
66,0.01,1644577242.84375,P01,D04,0,0,1
67,-0.05,1644577242.859375,P01,D04,0,0,1
68,-0.02,1644577242.875,P01,D04,0,0,1
69,0.16,1644577242.890625,P01,D04,0,0,1
70,0.46,1644577242.90625,P01,D04,0,0,1
71,0.79,1644577242.921875,P01,D04,0,0,1
72,1.01,1644577242.9375,P01,D04,0,0,1
73,0.99,1644577242.953125,P01,D04,0,0,1
74,0.74,1644577242.96875,P01,D04,0,0,1
75,0.34,1644577242.984375,P01,D04,0,0,1
76,-0.09,1644577243.0,P01,D04,0,0,1
77,-0.42,1644577243.015625,P01,D04,0,0,1
78,-0.58,1644577243.03125,P01,D04,0,0,1
79,-0.58,1644577243.046875,P01,D04,0,0,1
80,-0.46,1644577243.0625,P01,D04,0,0,1
81,-0.29,1644577243.078125,P01,D04,0,0,1
82,-0.14,1644577243.09375,P01,D04,0,0,1
83,-0.03,1644577243.109375,P01,D04,0,0,1
84,0.02,1644577243.125,P01,D04,0,0,1
85,0.01,1644577243.140625,P01,D04,0,0,1
86,-0.03,1644577243.15625,P01,D04,0,0,1
87,-0.05,1644577243.171875,P01,D04,0,0,1
88,-0.02,1644577243.1875,P01,D04,0,0,1
89,0.07,1644577243.203125,P01,D04,0,0,1
90,0.19,1644577243.21875,P01,D04,0,0,1
91,0.25,1644577243.234375,P01,D04,0,0,1
92,0.17,1644577243.25,P01,D04,0,0,1
93,-0.1,1644577243.265625,P01,D04,0,0,1
94,-0.52,1644577243.28125,P01,D04,0,0,1
95,-0.98,1644577243.296875,P01,D04,0,0,1
96,-1.33,1644577243.3125,P01,D04,0,0,1
97,-1.44,1644577243.328125,P01,D04,0,0,1
98,-1.29,1644577243.34375,P01,D04,0,0,1
99,-0.91,1644577243.359375,P01,D04,0,0,1
100,-0.44,1644577243.375,P01,D04,0,0,1
101,-0.01,1644577243.390625,P01,D04,0,0,1
102,0.26,1644577243.40625,P01,D04,0,0,1
103,0.33,1644577243.421875,P01,D04,0,0,1
104,0.27,1644577243.4375,P01,D04,0,0,1
105,0.13,1644577243.453125,P01,D04,0,0,1
106,0.02,1644577243.46875,P01,D04,0,0,1
107,-0.01,1644577243.484375,P01,D04,0,0,1
108,0.07,1644577243.5,P01,D04,0,0,1
109,0.24,1644577243.515625,P01,D04,0,0,1
110,0.48,1644577243.53125,P01,D04,0,0,1
111,0.76,1644577243.546875,P01,D04,0,0,1
112,1.0,1644577243.5625,P01,D04,0,0,1
113,1.15,1644577243.578125,P01,D04,0,0,1
114,1.13,1644577243.59375,P01,D04,0,0,1
115,0.94,1644577243.609375,P01,D04,0,0,1
116,0.62,1644577243.625,P01,D04,0,0,1
117,0.25,1644577243.640625,P01,D04,0,0,1
118,-0.09,1644577243.65625,P01,D04,0,0,1
119,-0.35,1644577243.671875,P01,D04,0,0,1
120,-0.53,1644577243.6875,P01,D04,0,0,1
121,-0.67,1644577243.703125,P01,D04,0,0,1
122,-0.78,1644577243.71875,P01,D04,0,0,1
123,-0.86,1644577243.734375,P01,D04,0,0,1
124,-0.88,1644577243.75,P01,D04,0,0,1
125,-0.81,1644577243.765625,P01,D04,0,0,1
126,-0.65,1644577243.78125,P01,D04,0,0,1
127,-0.43,1644577243.796875,P01,D04,0,0,1
128,-0.17,1644577243.8125,P01,D04,0,0,1
129,0.1,1644577243.828125,P01,D04,0,0,1
130,0.36,1644577243.84375,P01,D04,0,0,1
131,0.57,1644577243.859375,P01,D04,0,0,1
132,0.72,1644577243.875,P01,D04,0,0,1
133,0.76,1644577243.890625,P01,D04,0,0,1
134,0.7,1644577243.90625,P01,D04,0,0,1
135,0.56,1644577243.921875,P01,D04,0,0,1
136,0.4,1644577243.9375,P01,D04,0,0,1
137,0.3,1644577243.953125,P01,D04,0,0,1
138,0.26,1644577243.96875,P01,D04,0,0,1
139,0.28,1644577243.984375,P01,D04,0,0,1
140,0.31,1644577244.0,P01,D04,0,0,1
141,0.33,1644577244.015625,P01,D04,0,0,1
142,0.31,1644577244.03125,P01,D04,0,0,1
143,0.25,1644577244.046875,P01,D04,0,0,1
144,0.13,1644577244.0625,P01,D04,0,0,1
145,-0.06,1644577244.078125,P01,D04,0,0,1
146,-0.32,1644577244.09375,P01,D04,0,0,1
147,-0.6,1644577244.109375,P01,D04,0,0,1
148,-0.86,1644577244.125,P01,D04,0,0,1
149,-0.98,1644577244.140625,P01,D04,0,0,1
150,-0.95,1644577244.15625,P01,D04,0,0,1
151,-0.78,1644577244.171875,P01,D04,0,0,1
152,-0.58,1644577244.1875,P01,D04,0,0,1
153,-0.43,1644577244.203125,P01,D04,0,0,1
154,-0.39,1644577244.21875,P01,D04,0,0,1
155,-0.42,1644577244.234375,P01,D04,0,0,1
156,-0.44,1644577244.25,P01,D04,0,0,1
157,-0.37,1644577244.265625,P01,D04,0,0,1
158,-0.2,1644577244.28125,P01,D04,0,0,1
159,0.0,1644577244.296875,P01,D04,0,0,1
160,0.16,1644577244.3125,P01,D04,0,0,1
161,0.21,1644577244.328125,P01,D04,0,0,1
162,0.14,1644577244.34375,P01,D04,0,0,1
163,0.04,1644577244.359375,P01,D04,0,0,1
164,-0.05,1644577244.375,P01,D04,0,0,1
165,-0.07,1644577244.390625,P01,D04,0,0,1
166,-0.07,1644577244.40625,P01,D04,0,0,1
167,-0.1,1644577244.421875,P01,D04,0,0,1
168,-0.22,1644577244.4375,P01,D04,0,0,1
169,-0.42,1644577244.453125,P01,D04,0,0,1
170,-0.63,1644577244.46875,P01,D04,0,0,1
171,-0.73,1644577244.484375,P01,D04,0,0,1
172,-0.63,1644577244.5,P01,D04,0,0,1
173,-0.34,1644577244.515625,P01,D04,0,0,1
174,0.01,1644577244.53125,P01,D04,0,0,1
175,0.25,1644577244.546875,P01,D04,0,0,1
176,0.26,1644577244.5625,P01,D04,0,0,1
177,0.04,1644577244.578125,P01,D04,0,0,1
178,-0.31,1644577244.59375,P01,D04,0,0,1
179,-0.6,1644577244.609375,P01,D04,0,0,1
180,-0.69,1644577244.625,P01,D04,0,0,1
181,-0.56,1644577244.640625,P01,D04,0,0,1
182,-0.32,1644577244.65625,P01,D04,0,0,1
183,-0.09,1644577244.671875,P01,D04,0,0,1
184,0.05,1644577244.6875,P01,D04,0,0,1
185,0.08,1644577244.703125,P01,D04,0,0,1
186,0.08,1644577244.71875,P01,D04,0,0,1
187,0.1,1644577244.734375,P01,D04,0,0,1
188,0.17,1644577244.75,P01,D04,0,0,1
189,0.28,1644577244.765625,P01,D04,0,0,1
190,0.36,1644577244.78125,P01,D04,0,0,1
191,0.39,1644577244.796875,P01,D04,0,0,1
192,0.36,1644577244.8125,P01,D04,0,0,1
193,0.27,1644577244.828125,P01,D04,0,0,1
194,0.13,1644577244.84375,P01,D04,0,0,1
195,-0.07,1644577244.859375,P01,D04,0,0,1
196,-0.28,1644577244.875,P01,D04,0,0,1
197,-0.43,1644577244.890625,P01,D04,0,0,1
198,-0.46,1644577244.90625,P01,D04,0,0,1
199,-0.3,1644577244.921875,P01,D04,0,0,1
200,0.02,1644577244.9375,P01,D04,0,0,1
201,0.41,1644577244.953125,P01,D04,0,0,1
202,0.73,1644577244.96875,P01,D04,0,0,1
203,0.88,1644577244.984375,P01,D04,0,0,1
204,0.84,1644577245.0,P01,D04,0,0,1
205,0.66,1644577245.015625,P01,D04,0,0,1
206,0.46,1644577245.03125,P01,D04,0,0,1
207,0.31,1644577245.046875,P01,D04,0,0,1
208,0.25,1644577245.0625,P01,D04,0,0,1
209,0.26,1644577245.078125,P01,D04,0,0,1
210,0.32,1644577245.09375,P01,D04,0,0,1
211,0.41,1644577245.109375,P01,D04,0,0,1
212,0.56,1644577245.125,P01,D04,0,0,1
213,0.76,1644577245.140625,P01,D04,0,0,1
214,0.96,1644577245.15625,P01,D04,0,0,1
215,1.08,1644577245.171875,P01,D04,0,0,1
216,1.02,1644577245.1875,P01,D04,0,0,1
217,0.76,1644577245.203125,P01,D04,0,0,1
218,0.37,1644577245.21875,P01,D04,0,0,1
219,-0.04,1644577245.234375,P01,D04,0,0,1
220,-0.31,1644577245.25,P01,D04,0,0,1
221,-0.41,1644577245.265625,P01,D04,0,0,1
222,-0.36,1644577245.28125,P01,D04,0,0,1
223,-0.27,1644577245.296875,P01,D04,0,0,1
224,-0.24,1644577245.3125,P01,D04,0,0,1
225,-0.3,1644577245.328125,P01,D04,0,0,1
226,-0.41,1644577245.34375,P01,D04,0,0,1
227,-0.5,1644577245.359375,P01,D04,0,0,1
228,-0.5,1644577245.375,P01,D04,0,0,1
229,-0.39,1644577245.390625,P01,D04,0,0,1
230,-0.2,1644577245.40625,P01,D04,0,0,1
231,0.02,1644577245.421875,P01,D04,0,0,1
232,0.22,1644577245.4375,P01,D04,0,0,1
233,0.38,1644577245.453125,P01,D04,0,0,1
234,0.46,1644577245.46875,P01,D04,0,0,1
235,0.46,1644577245.484375,P01,D04,0,0,1
236,0.39,1644577245.5,P01,D04,0,0,1
237,0.28,1644577245.515625,P01,D04,0,0,1
238,0.13,1644577245.53125,P01,D04,0,0,1
239,-0.06,1644577245.546875,P01,D04,0,0,1
240,-0.28,1644577245.5625,P01,D04,0,0,1
241,-0.52,1644577245.578125,P01,D04,0,0,1
242,-0.67,1644577245.59375,P01,D04,0,0,1
243,-0.63,1644577245.609375,P01,D04,0,0,1
244,-0.34,1644577245.625,P01,D04,0,0,1
245,0.18,1644577245.640625,P01,D04,0,0,1
246,0.78,1644577245.65625,P01,D04,0,0,1
247,1.26,1644577245.671875,P01,D04,0,0,1
248,1.44,1644577245.6875,P01,D04,0,0,1
249,1.28,1644577245.703125,P01,D04,0,0,1
250,0.89,1644577245.71875,P01,D04,0,0,1
251,0.49,1644577245.734375,P01,D04,0,0,1
252,0.22,1644577245.75,P01,D04,0,0,1
253,0.16,1644577245.765625,P01,D04,0,0,1
254,0.23,1644577245.78125,P01,D04,0,0,1
255,0.31,1644577245.796875,P01,D04,0,0,1
256,0.28,1644577245.8125,P01,D04,0,0,1
257,0.11,1644577245.828125,P01,D04,0,0,1
258,-0.15,1644577245.84375,P01,D04,0,0,1
259,-0.42,1644577245.859375,P01,D04,0,0,1
260,-0.67,1644577245.875,P01,D04,0,0,1
261,-0.86,1644577245.890625,P01,D04,0,0,1
262,-0.98,1644577245.90625,P01,D04,0,0,1
263,-1.04,1644577245.921875,P01,D04,0,0,1
264,-1.01,1644577245.9375,P01,D04,0,0,1
265,-0.91,1644577245.953125,P01,D04,0,0,1
266,-0.77,1644577245.96875,P01,D04,0,0,1
267,-0.63,1644577245.984375,P01,D04,0,0,1
268,-0.52,1644577246.0,P01,D04,0,0,1
269,-0.44,1644577246.015625,P01,D04,0,0,1
270,-0.34,1644577246.03125,P01,D04,0,0,1
271,-0.16,1644577246.046875,P01,D04,0,0,1
272,0.12,1644577246.0625,P01,D04,0,0,1
273,0.44,1644577246.078125,P01,D04,0,0,1
274,0.69,1644577246.09375,P01,D04,0,0,1
275,0.75,1644577246.109375,P01,D04,0,0,1
276,0.6,1644577246.125,P01,D04,0,0,1
277,0.31,1644577246.140625,P01,D04,0,0,1
278,0.04,1644577246.15625,P01,D04,0,0,1
279,-0.05,1644577246.171875,P01,D04,0,0,1
280,0.09,1644577246.1875,P01,D04,0,0,1
281,0.42,1644577246.203125,P01,D04,0,0,1
282,0.8,1644577246.21875,P01,D04,0,0,1
283,1.09,1644577246.234375,P01,D04,0,0,1
284,1.22,1644577246.25,P01,D04,0,0,1
285,1.2,1644577246.265625,P01,D04,0,0,1
286,1.11,1644577246.28125,P01,D04,0,0,1
287,1.03,1644577246.296875,P01,D04,0,0,1
288,1.0,1644577246.3125,P01,D04,0,0,1
289,1.0,1644577246.328125,P01,D04,0,0,1
290,0.95,1644577246.34375,P01,D04,0,0,1
291,0.81,1644577246.359375,P01,D04,0,0,1
292,0.57,1644577246.375,P01,D04,0,0,1
293,0.28,1644577246.390625,P01,D04,0,0,1
294,0.01,1644577246.40625,P01,D04,0,0,1
295,-0.17,1644577246.421875,P01,D04,0,0,1
296,-0.25,1644577246.4375,P01,D04,0,0,1
297,-0.3,1644577246.453125,P01,D04,0,0,1
298,-0.38,1644577246.46875,P01,D04,0,0,1
299,-0.59,1644577246.484375,P01,D04,0,0,1
300,-0.94,1644577246.5,P01,D04,0,0,1
301,-1.36,1644577246.515625,P01,D04,0,0,1
302,-1.74,1644577246.53125,P01,D04,0,0,1
303,-1.94,1644577246.546875,P01,D04,0,0,1
304,-1.9,1644577246.5625,P01,D04,0,0,1
305,-1.66,1644577246.578125,P01,D04,0,0,1
306,-1.31,1644577246.59375,P01,D04,0,0,1
307,-0.98,1644577246.609375,P01,D04,0,0,1
308,-0.76,1644577246.625,P01,D04,0,0,1
309,-0.68,1644577246.640625,P01,D04,0,0,1
310,-0.71,1644577246.65625,P01,D04,0,0,1
311,-0.81,1644577246.671875,P01,D04,0,0,1
312,-0.92,1644577246.6875,P01,D04,0,0,1
313,-1.03,1644577246.703125,P01,D04,0,0,1
314,-1.13,1644577246.71875,P01,D04,0,0,1
315,-1.22,1644577246.734375,P01,D04,0,0,1
316,-1.29,1644577246.75,P01,D04,0,0,1
317,-1.28,1644577246.765625,P01,D04,0,0,1
318,-1.15,1644577246.78125,P01,D04,0,0,1
319,-0.87,1644577246.796875,P01,D04,0,0,1
320,-0.48,1644577246.8125,P01,D04,0,0,1
321,-0.07,1644577246.828125,P01,D04,0,0,1
322,0.21,1644577246.84375,P01,D04,0,0,1
323,0.29,1644577246.859375,P01,D04,0,0,1
324,0.14,1644577246.875,P01,D04,0,0,1
325,-0.11,1644577246.890625,P01,D04,0,0,1
326,-0.32,1644577246.90625,P01,D04,0,0,1
327,-0.31,1644577246.921875,P01,D04,0,0,1
328,-0.05,1644577246.9375,P01,D04,0,0,1
329,0.37,1644577246.953125,P01,D04,0,0,1
330,0.82,1644577246.96875,P01,D04,0,0,1
331,1.15,1644577246.984375,P01,D04,0,0,1
332,1.29,1644577247.0,P01,D04,0,0,1
333,1.24,1644577247.015625,P01,D04,0,0,1
334,1.05,1644577247.03125,P01,D04,0,0,1
335,0.77,1644577247.046875,P01,D04,0,0,1
336,0.46,1644577247.0625,P01,D04,0,0,1
337,0.19,1644577247.078125,P01,D04,0,0,1
338,0.03,1644577247.09375,P01,D04,0,0,1
339,0.05,1644577247.109375,P01,D04,0,0,1
340,0.26,1644577247.125,P01,D04,0,0,1
341,0.64,1644577247.140625,P01,D04,0,0,1
342,1.07,1644577247.15625,P01,D04,0,0,1
343,1.43,1644577247.171875,P01,D04,0,0,1
344,1.59,1644577247.1875,P01,D04,0,0,1
345,1.49,1644577247.203125,P01,D04,0,0,1
346,1.15,1644577247.21875,P01,D04,0,0,1
347,0.65,1644577247.234375,P01,D04,0,0,1
348,0.09,1644577247.25,P01,D04,0,0,1
349,-0.4,1644577247.265625,P01,D04,0,0,1
350,-0.75,1644577247.28125,P01,D04,0,0,1
351,-0.9,1644577247.296875,P01,D04,0,0,1
352,-0.86,1644577247.3125,P01,D04,0,0,1
353,-0.7,1644577247.328125,P01,D04,0,0,1
354,-0.5,1644577247.34375,P01,D04,0,0,1
355,-0.35,1644577247.359375,P01,D04,0,0,1
356,-0.29,1644577247.375,P01,D04,0,0,1
357,-0.3,1644577247.390625,P01,D04,0,0,1
358,-0.31,1644577247.40625,P01,D04,0,0,1
359,-0.26,1644577247.421875,P01,D04,0,0,1
360,-0.14,1644577247.4375,P01,D04,0,0,1
361,0.04,1644577247.453125,P01,D04,0,0,1
362,0.21,1644577247.46875,P01,D04,0,0,1
363,0.31,1644577247.484375,P01,D04,0,0,1
364,0.32,1644577247.5,P01,D04,0,0,1
365,0.25,1644577247.515625,P01,D04,0,0,1
366,0.16,1644577247.53125,P01,D04,0,0,1
367,0.06,1644577247.546875,P01,D04,0,0,1
368,-0.02,1644577247.5625,P01,D04,0,0,1
369,-0.1,1644577247.578125,P01,D04,0,0,1
370,-0.17,1644577247.59375,P01,D04,0,0,1
371,-0.23,1644577247.609375,P01,D04,0,0,1
372,-0.24,1644577247.625,P01,D04,0,0,1
373,-0.16,1644577247.640625,P01,D04,0,0,1
374,0.05,1644577247.65625,P01,D04,0,0,1
375,0.37,1644577247.671875,P01,D04,0,0,1
376,0.73,1644577247.6875,P01,D04,0,0,1
377,1.03,1644577247.703125,P01,D04,0,0,1
378,1.18,1644577247.71875,P01,D04,0,0,1
379,1.13,1644577247.734375,P01,D04,0,0,1
380,0.91,1644577247.75,P01,D04,0,0,1
381,0.59,1644577247.765625,P01,D04,0,0,1
382,0.26,1644577247.78125,P01,D04,0,0,1
383,-0.02,1644577247.796875,P01,D04,0,0,1
384,-0.25,1644577247.8125,P01,D04,0,0,1
385,-0.46,1644577247.828125,P01,D04,0,0,1
386,-0.68,1644577247.84375,P01,D04,0,0,1
387,-0.9,1644577247.859375,P01,D04,0,0,1
388,-1.04,1644577247.875,P01,D04,0,0,1
389,-1.01,1644577247.890625,P01,D04,0,0,1
390,-0.75,1644577247.90625,P01,D04,0,0,1
391,-0.32,1644577247.921875,P01,D04,0,0,1
392,0.15,1644577247.9375,P01,D04,0,0,1
393,0.51,1644577247.953125,P01,D04,0,0,1
394,0.64,1644577247.96875,P01,D04,0,0,1
395,0.54,1644577247.984375,P01,D04,0,0,1
396,0.3,1644577248.0,P01,D04,0,0,1
397,0.01,1644577248.015625,P01,D04,0,0,1
398,-0.25,1644577248.03125,P01,D04,0,0,1
399,-0.47,1644577248.046875,P01,D04,0,0,1
400,-0.66,1644577248.0625,P01,D04,0,0,1
401,-0.81,1644577248.078125,P01,D04,0,0,1
402,-0.9,1644577248.09375,P01,D04,0,0,1
403,-0.89,1644577248.109375,P01,D04,0,0,1
404,-0.75,1644577248.125,P01,D04,0,0,1
405,-0.5,1644577248.140625,P01,D04,0,0,1
406,-0.2,1644577248.15625,P01,D04,0,0,1
407,0.08,1644577248.171875,P01,D04,0,0,1
408,0.26,1644577248.1875,P01,D04,0,0,1
409,0.31,1644577248.203125,P01,D04,0,0,1
410,0.21,1644577248.21875,P01,D04,0,0,1
411,-0.04,1644577248.234375,P01,D04,0,0,1
412,-0.36,1644577248.25,P01,D04,0,0,1
413,-0.65,1644577248.265625,P01,D04,0,0,1
414,-0.82,1644577248.28125,P01,D04,0,0,1
415,-0.77,1644577248.296875,P01,D04,0,0,1
416,-0.51,1644577248.3125,P01,D04,0,0,1
417,-0.12,1644577248.328125,P01,D04,0,0,1
418,0.29,1644577248.34375,P01,D04,0,0,1
419,0.61,1644577248.359375,P01,D04,0,0,1
420,0.8,1644577248.375,P01,D04,0,0,1
421,0.88,1644577248.390625,P01,D04,0,0,1
422,0.87,1644577248.40625,P01,D04,0,0,1
423,0.79,1644577248.421875,P01,D04,0,0,1
424,0.69,1644577248.4375,P01,D04,0,0,1
425,0.6,1644577248.453125,P01,D04,0,0,1
426,0.62,1644577248.46875,P01,D04,0,0,1
427,0.78,1644577248.484375,P01,D04,0,0,1
428,1.08,1644577248.5,P01,D04,0,0,1
429,1.4,1644577248.515625,P01,D04,0,0,1
430,1.57,1644577248.53125,P01,D04,0,0,1
431,1.46,1644577248.546875,P01,D04,0,0,1
432,1.08,1644577248.5625,P01,D04,0,0,1
433,0.56,1644577248.578125,P01,D04,0,0,1
434,0.11,1644577248.59375,P01,D04,0,0,1
435,-0.1,1644577248.609375,P01,D04,0,0,1
436,-0.02,1644577248.625,P01,D04,0,0,1
437,0.25,1644577248.640625,P01,D04,0,0,1
438,0.51,1644577248.65625,P01,D04,0,0,1
439,0.59,1644577248.671875,P01,D04,0,0,1
440,0.41,1644577248.6875,P01,D04,0,0,1
441,0.03,1644577248.703125,P01,D04,0,0,1
442,-0.42,1644577248.71875,P01,D04,0,0,1
443,-0.8,1644577248.734375,P01,D04,0,0,1
444,-0.99,1644577248.75,P01,D04,0,0,1
445,-0.98,1644577248.765625,P01,D04,0,0,1
446,-0.81,1644577248.78125,P01,D04,0,0,1
447,-0.57,1644577248.796875,P01,D04,0,0,1
448,-0.32,1644577248.8125,P01,D04,0,0,1
449,-0.12,1644577248.828125,P01,D04,0,0,1
450,0.02,1644577248.84375,P01,D04,0,0,1
451,0.11,1644577248.859375,P01,D04,0,0,1
452,0.15,1644577248.875,P01,D04,0,0,1
453,0.17,1644577248.890625,P01,D04,0,0,1
454,0.18,1644577248.90625,P01,D04,0,0,1
455,0.2,1644577248.921875,P01,D04,0,0,1
456,0.25,1644577248.9375,P01,D04,0,0,1
457,0.32,1644577248.953125,P01,D04,0,0,1
458,0.39,1644577248.96875,P01,D04,0,0,1
459,0.46,1644577248.984375,P01,D04,0,0,1
460,0.51,1644577249.0,P01,D04,0,0,1
461,0.53,1644577249.015625,P01,D04,0,0,1
462,0.5,1644577249.03125,P01,D04,0,0,1
463,0.41,1644577249.046875,P01,D04,0,0,1
464,0.29,1644577249.0625,P01,D04,0,0,1
465,0.15,1644577249.078125,P01,D04,0,0,1
466,0.06,1644577249.09375,P01,D04,0,0,1
467,0.06,1644577249.109375,P01,D04,0,0,1
468,0.19,1644577249.125,P01,D04,0,0,1
469,0.46,1644577249.140625,P01,D04,0,0,1
470,0.8,1644577249.15625,P01,D04,0,0,1
471,1.12,1644577249.171875,P01,D04,0,0,1
472,1.28,1644577249.1875,P01,D04,0,0,1
473,1.18,1644577249.203125,P01,D04,0,0,1
474,0.78,1644577249.21875,P01,D04,0,0,1
475,0.15,1644577249.234375,P01,D04,0,0,1
476,-0.57,1644577249.25,P01,D04,0,0,1
477,-1.2,1644577249.265625,P01,D04,0,0,1
478,-1.58,1644577249.28125,P01,D04,0,0,1
479,-1.65,1644577249.296875,P01,D04,0,0,1
480,-1.42,1644577249.3125,P01,D04,0,0,1
481,-1.03,1644577249.328125,P01,D04,0,0,1
482,-0.63,1644577249.34375,P01,D04,0,0,1
483,-0.37,1644577249.359375,P01,D04,0,0,1
484,-0.28,1644577249.375,P01,D04,0,0,1
485,-0.34,1644577249.390625,P01,D04,0,0,1
486,-0.51,1644577249.40625,P01,D04,0,0,1
487,-0.72,1644577249.421875,P01,D04,0,0,1
488,-0.96,1644577249.4375,P01,D04,0,0,1
489,-1.18,1644577249.453125,P01,D04,0,0,1
490,-1.33,1644577249.46875,P01,D04,0,0,1
491,-1.35,1644577249.484375,P01,D04,0,0,1
492,-1.19,1644577249.5,P01,D04,0,0,1
493,-0.87,1644577249.515625,P01,D04,0,0,1
494,-0.47,1644577249.53125,P01,D04,0,0,1
495,-0.12,1644577249.546875,P01,D04,0,0,1
496,0.08,1644577249.5625,P01,D04,0,0,1
497,0.08,1644577249.578125,P01,D04,0,0,1
498,-0.06,1644577249.59375,P01,D04,0,0,1
499,-0.23,1644577249.609375,P01,D04,0,0,1
500,-0.32,1644577249.625,P01,D04,0,0,1
501,-0.28,1644577249.640625,P01,D04,0,0,1
502,-0.12,1644577249.65625,P01,D04,0,0,1
503,0.1,1644577249.671875,P01,D04,0,0,1
504,0.28,1644577249.6875,P01,D04,0,0,1
505,0.36,1644577249.703125,P01,D04,0,0,1
506,0.3,1644577249.71875,P01,D04,0,0,1
507,0.11,1644577249.734375,P01,D04,0,0,1
508,-0.15,1644577249.75,P01,D04,0,0,1
509,-0.39,1644577249.765625,P01,D04,0,0,1
510,-0.53,1644577249.78125,P01,D04,0,0,1
511,-0.55,1644577249.796875,P01,D04,0,0,1
512,-0.43,1644577249.8125,P01,D04,0,0,1
513,-0.24,1644577249.828125,P01,D04,0,0,1
514,-0.06,1644577249.84375,P01,D04,0,0,1
515,0.04,1644577249.859375,P01,D04,0,0,1
516,0.02,1644577249.875,P01,D04,0,0,1
517,-0.11,1644577249.890625,P01,D04,0,0,1
518,-0.27,1644577249.90625,P01,D04,0,0,1
519,-0.38,1644577249.921875,P01,D04,0,0,1
520,-0.38,1644577249.9375,P01,D04,0,0,1
521,-0.29,1644577249.953125,P01,D04,0,0,1
522,-0.15,1644577249.96875,P01,D04,0,0,1
523,-0.07,1644577249.984375,P01,D04,0,0,1
524,-0.13,1644577250.0,P01,D04,0,0,1
525,-0.35,1644577250.015625,P01,D04,0,0,1
526,-0.65,1644577250.03125,P01,D04,0,0,1
527,-0.92,1644577250.046875,P01,D04,0,0,1
528,-1.03,1644577250.0625,P01,D04,0,0,1
529,-0.95,1644577250.078125,P01,D04,0,0,1
530,-0.72,1644577250.09375,P01,D04,0,0,1
531,-0.44,1644577250.109375,P01,D04,0,0,1
532,-0.22,1644577250.125,P01,D04,0,0,1
533,-0.09,1644577250.140625,P01,D04,0,0,1
534,-0.02,1644577250.15625,P01,D04,0,0,1
535,0.06,1644577250.171875,P01,D04,0,0,1
536,0.17,1644577250.1875,P01,D04,0,0,1
537,0.32,1644577250.203125,P01,D04,0,0,1
538,0.45,1644577250.21875,P01,D04,0,0,1
539,0.52,1644577250.234375,P01,D04,0,0,1
540,0.5,1644577250.25,P01,D04,0,0,1
541,0.38,1644577250.265625,P01,D04,0,0,1
542,0.24,1644577250.28125,P01,D04,0,0,1
543,0.12,1644577250.296875,P01,D04,0,0,1
544,0.09,1644577250.3125,P01,D04,0,0,1
545,0.15,1644577250.328125,P01,D04,0,0,1
546,0.28,1644577250.34375,P01,D04,0,0,1
547,0.39,1644577250.359375,P01,D04,0,0,1
548,0.42,1644577250.375,P01,D04,0,0,1
549,0.33,1644577250.390625,P01,D04,0,0,1
550,0.16,1644577250.40625,P01,D04,0,0,1
551,-0.02,1644577250.421875,P01,D04,0,0,1
552,-0.14,1644577250.4375,P01,D04,0,0,1
553,-0.17,1644577250.453125,P01,D04,0,0,1
554,-0.15,1644577250.46875,P01,D04,0,0,1
555,-0.16,1644577250.484375,P01,D04,0,0,1
556,-0.22,1644577250.5,P01,D04,0,0,1
557,-0.29,1644577250.515625,P01,D04,0,0,1
558,-0.26,1644577250.53125,P01,D04,0,0,1
559,-0.06,1644577250.546875,P01,D04,0,0,1
560,0.29,1644577250.5625,P01,D04,0,0,1
561,0.68,1644577250.578125,P01,D04,0,0,1
562,0.92,1644577250.59375,P01,D04,0,0,1
563,0.91,1644577250.609375,P01,D04,0,0,1
564,0.64,1644577250.625,P01,D04,0,0,1
565,0.26,1644577250.640625,P01,D04,0,0,1
566,-0.05,1644577250.65625,P01,D04,0,0,1
567,-0.16,1644577250.671875,P01,D04,0,0,1
568,-0.06,1644577250.6875,P01,D04,0,0,1
569,0.21,1644577250.703125,P01,D04,0,0,1
570,0.51,1644577250.71875,P01,D04,0,0,1
571,0.77,1644577250.734375,P01,D04,0,0,1
572,0.95,1644577250.75,P01,D04,0,0,1
573,1.07,1644577250.765625,P01,D04,0,0,1
574,1.13,1644577250.78125,P01,D04,0,0,1
575,1.15,1644577250.796875,P01,D04,0,0,1
576,1.11,1644577250.8125,P01,D04,0,0,1
577,0.99,1644577250.828125,P01,D04,0,0,1
578,0.81,1644577250.84375,P01,D04,0,0,1
579,0.62,1644577250.859375,P01,D04,0,0,1
580,0.49,1644577250.875,P01,D04,0,0,1
581,0.49,1644577250.890625,P01,D04,0,0,1
582,0.58,1644577250.90625,P01,D04,0,0,1
583,0.7,1644577250.921875,P01,D04,0,0,1
584,0.73,1644577250.9375,P01,D04,0,0,1
585,0.57,1644577250.953125,P01,D04,0,0,1
586,0.19,1644577250.96875,P01,D04,0,0,1
587,-0.36,1644577250.984375,P01,D04,0,0,1
588,-0.92,1644577251.0,P01,D04,0,0,1
589,-1.36,1644577251.015625,P01,D04,0,0,1
590,-1.57,1644577251.03125,P01,D04,0,0,1
591,-1.54,1644577251.046875,P01,D04,0,0,1
592,-1.35,1644577251.0625,P01,D04,0,0,1
593,-1.13,1644577251.078125,P01,D04,0,0,1
594,-0.95,1644577251.09375,P01,D04,0,0,1
595,-0.87,1644577251.109375,P01,D04,0,0,1
596,-0.83,1644577251.125,P01,D04,0,0,1
597,-0.78,1644577251.140625,P01,D04,0,0,1
598,-0.68,1644577251.15625,P01,D04,0,0,1
599,-0.52,1644577251.171875,P01,D04,0,0,1
600,-0.31,1644577251.1875,P01,D04,0,0,1
601,-0.09,1644577251.203125,P01,D04,0,0,1
602,0.12,1644577251.21875,P01,D04,0,0,1
603,0.33,1644577251.234375,P01,D04,0,0,1
604,0.55,1644577251.25,P01,D04,0,0,1
605,0.77,1644577251.265625,P01,D04,0,0,1
606,0.94,1644577251.28125,P01,D04,0,0,1
607,1.02,1644577251.296875,P01,D04,0,0,1
608,0.98,1644577251.3125,P01,D04,0,0,1
609,0.8,1644577251.328125,P01,D04,0,0,1
610,0.51,1644577251.34375,P01,D04,0,0,1
611,0.2,1644577251.359375,P01,D04,0,0,1
612,-0.06,1644577251.375,P01,D04,0,0,1
613,-0.23,1644577251.390625,P01,D04,0,0,1
614,-0.3,1644577251.40625,P01,D04,0,0,1
615,-0.28,1644577251.421875,P01,D04,0,0,1
616,-0.24,1644577251.4375,P01,D04,0,0,1
617,-0.19,1644577251.453125,P01,D04,0,0,1
618,-0.14,1644577251.46875,P01,D04,0,0,1
619,-0.07,1644577251.484375,P01,D04,0,0,1
620,0.02,1644577251.5,P01,D04,0,0,1
621,0.12,1644577251.515625,P01,D04,0,0,1
622,0.21,1644577251.53125,P01,D04,0,0,1
623,0.31,1644577251.546875,P01,D04,0,0,1
624,0.44,1644577251.5625,P01,D04,0,0,1
625,0.61,1644577251.578125,P01,D04,0,0,1
626,0.79,1644577251.59375,P01,D04,0,0,1
627,0.94,1644577251.609375,P01,D04,0,0,1
628,0.99,1644577251.625,P01,D04,0,0,1
629,0.88,1644577251.640625,P01,D04,0,0,1
630,0.64,1644577251.65625,P01,D04,0,0,1
631,0.35,1644577251.671875,P01,D04,0,0,1
632,0.1,1644577251.6875,P01,D04,0,0,1
633,-0.05,1644577251.703125,P01,D04,0,0,1
634,-0.11,1644577251.71875,P01,D04,0,0,1
635,-0.11,1644577251.734375,P01,D04,0,0,1
636,-0.11,1644577251.75,P01,D04,0,0,1
637,-0.14,1644577251.765625,P01,D04,0,0,1
638,-0.2,1644577251.78125,P01,D04,0,0,1
639,-0.28,1644577251.796875,P01,D04,0,0,1
640,-0.32,1644577251.8125,P01,D04,0,0,1
641,-0.33,1644577251.828125,P01,D04,0,0,1
642,-0.31,1644577251.84375,P01,D04,0,0,1
643,-0.26,1644577251.859375,P01,D04,0,0,1
644,-0.17,1644577251.875,P01,D04,0,0,1
645,0.01,1644577251.890625,P01,D04,0,0,1
646,0.31,1644577251.90625,P01,D04,0,0,1
647,0.72,1644577251.921875,P01,D04,0,0,1
648,1.13,1644577251.9375,P01,D04,0,0,1
649,1.4,1644577251.953125,P01,D04,0,0,1
650,1.39,1644577251.96875,P01,D04,0,0,1
651,1.03,1644577251.984375,P01,D04,0,0,1
652,0.43,1644577252.0,P01,D04,0,0,1
653,-0.23,1644577252.015625,P01,D04,0,0,1
654,-0.71,1644577252.03125,P01,D04,0,0,1
655,-0.84,1644577252.046875,P01,D04,0,0,1
656,-0.61,1644577252.0625,P01,D04,0,0,1
657,-0.13,1644577252.078125,P01,D04,0,0,1
658,0.37,1644577252.09375,P01,D04,0,0,1
659,0.72,1644577252.109375,P01,D04,0,0,1
660,0.78,1644577252.125,P01,D04,0,0,1
661,0.53,1644577252.140625,P01,D04,0,0,1
662,0.06,1644577252.15625,P01,D04,0,0,1
663,-0.5,1644577252.171875,P01,D04,0,0,1
664,-0.97,1644577252.1875,P01,D04,0,0,1
665,-1.22,1644577252.203125,P01,D04,0,0,1
666,-1.22,1644577252.21875,P01,D04,0,0,1
667,-1.02,1644577252.234375,P01,D04,0,0,1
668,-0.76,1644577252.25,P01,D04,0,0,1
669,-0.55,1644577252.265625,P01,D04,0,0,1
670,-0.43,1644577252.28125,P01,D04,0,0,1
671,-0.34,1644577252.296875,P01,D04,0,0,1
672,-0.22,1644577252.3125,P01,D04,0,0,1
673,-0.01,1644577252.328125,P01,D04,0,0,1
674,0.23,1644577252.34375,P01,D04,0,0,1
675,0.39,1644577252.359375,P01,D04,0,0,1
676,0.38,1644577252.375,P01,D04,0,0,1
677,0.17,1644577252.390625,P01,D04,0,0,1
678,-0.14,1644577252.40625,P01,D04,0,0,1
679,-0.41,1644577252.421875,P01,D04,0,0,1
680,-0.53,1644577252.4375,P01,D04,0,0,1
681,-0.48,1644577252.453125,P01,D04,0,0,1
682,-0.38,1644577252.46875,P01,D04,0,0,1
683,-0.36,1644577252.484375,P01,D04,0,0,1
684,-0.52,1644577252.5,P01,D04,0,0,1
685,-0.84,1644577252.515625,P01,D04,0,0,1
686,-1.16,1644577252.53125,P01,D04,0,0,1
687,-1.32,1644577252.546875,P01,D04,0,0,1
688,-1.23,1644577252.5625,P01,D04,0,0,1
689,-0.9,1644577252.578125,P01,D04,0,0,1
690,-0.48,1644577252.59375,P01,D04,0,0,1
691,-0.12,1644577252.609375,P01,D04,0,0,1
692,0.07,1644577252.625,P01,D04,0,0,1
693,0.15,1644577252.640625,P01,D04,0,0,1
694,0.23,1644577252.65625,P01,D04,0,0,1
695,0.43,1644577252.671875,P01,D04,0,0,1
696,0.77,1644577252.6875,P01,D04,0,0,1
697,1.12,1644577252.703125,P01,D04,0,0,1
698,1.32,1644577252.71875,P01,D04,0,0,1
699,1.21,1644577252.734375,P01,D04,0,0,1
700,0.8,1644577252.75,P01,D04,0,0,1
701,0.24,1644577252.765625,P01,D04,0,0,1
702,-0.27,1644577252.78125,P01,D04,0,0,1
703,-0.56,1644577252.796875,P01,D04,0,0,1
704,-0.58,1644577252.8125,P01,D04,0,0,1
705,-0.42,1644577252.828125,P01,D04,0,0,1
706,-0.21,1644577252.84375,P01,D04,0,0,1
707,-0.07,1644577252.859375,P01,D04,0,0,1
708,-0.02,1644577252.875,P01,D04,0,0,1
709,-0.03,1644577252.890625,P01,D04,0,0,1
710,-0.05,1644577252.90625,P01,D04,0,0,1
711,-0.03,1644577252.921875,P01,D04,0,0,1
712,0.02,1644577252.9375,P01,D04,0,0,1
713,0.06,1644577252.953125,P01,D04,0,0,1
714,0.07,1644577252.96875,P01,D04,0,0,1
715,-0.01,1644577252.984375,P01,D04,0,0,1
716,-0.18,1644577253.0,P01,D04,0,0,1
717,-0.4,1644577253.015625,P01,D04,0,0,1
718,-0.62,1644577253.03125,P01,D04,0,0,1
719,-0.74,1644577253.046875,P01,D04,0,0,1
720,-0.7,1644577253.0625,P01,D04,0,0,1
721,-0.48,1644577253.078125,P01,D04,0,0,1
722,-0.15,1644577253.09375,P01,D04,0,0,1
723,0.17,1644577253.109375,P01,D04,0,0,1
724,0.33,1644577253.125,P01,D04,0,0,1
725,0.26,1644577253.140625,P01,D04,0,0,1
726,-0.03,1644577253.15625,P01,D04,0,0,1
727,-0.42,1644577253.171875,P01,D04,0,0,1
728,-0.73,1644577253.1875,P01,D04,0,0,1
729,-0.82,1644577253.203125,P01,D04,0,0,1
730,-0.63,1644577253.21875,P01,D04,0,0,1
731,-0.27,1644577253.234375,P01,D04,0,0,1
732,0.08,1644577253.25,P01,D04,0,0,1
733,0.24,1644577253.265625,P01,D04,0,0,1
734,0.14,1644577253.28125,P01,D04,0,0,1
735,-0.15,1644577253.296875,P01,D04,0,0,1
736,-0.47,1644577253.3125,P01,D04,0,0,1
737,-0.63,1644577253.328125,P01,D04,0,0,1
738,-0.55,1644577253.34375,P01,D04,0,0,1
739,-0.3,1644577253.359375,P01,D04,0,0,1
740,-0.02,1644577253.375,P01,D04,0,0,1
741,0.13,1644577253.390625,P01,D04,0,0,1
742,0.12,1644577253.40625,P01,D04,0,0,1
743,0.01,1644577253.421875,P01,D04,0,0,1
744,-0.09,1644577253.4375,P01,D04,0,0,1
745,-0.08,1644577253.453125,P01,D04,0,0,1
746,0.05,1644577253.46875,P01,D04,0,0,1
747,0.23,1644577253.484375,P01,D04,0,0,1
748,0.37,1644577253.5,P01,D04,0,0,1
749,0.44,1644577253.515625,P01,D04,0,0,1
750,0.45,1644577253.53125,P01,D04,0,0,1
751,0.43,1644577253.546875,P01,D04,0,0,1
752,0.45,1644577253.5625,P01,D04,0,0,1
753,0.5,1644577253.578125,P01,D04,0,0,1
754,0.58,1644577253.59375,P01,D04,0,0,1
755,0.65,1644577253.609375,P01,D04,0,0,1
756,0.66,1644577253.625,P01,D04,0,0,1
757,0.58,1644577253.640625,P01,D04,0,0,1
758,0.44,1644577253.65625,P01,D04,0,0,1
759,0.3,1644577253.671875,P01,D04,0,0,1
760,0.22,1644577253.6875,P01,D04,0,0,1
761,0.25,1644577253.703125,P01,D04,0,0,1
762,0.41,1644577253.71875,P01,D04,0,0,1
763,0.62,1644577253.734375,P01,D04,0,0,1
764,0.8,1644577253.75,P01,D04,0,0,1
765,0.84,1644577253.765625,P01,D04,0,0,1
766,0.71,1644577253.78125,P01,D04,0,0,1
767,0.45,1644577253.796875,P01,D04,0,0,1
768,0.15,1644577253.8125,P01,D04,0,0,1
769,-0.12,1644577253.828125,P01,D04,0,0,1
770,-0.37,1644577253.84375,P01,D04,0,0,1
771,-0.62,1644577253.859375,P01,D04,0,0,1
772,-0.87,1644577253.875,P01,D04,0,0,1
773,-1.1,1644577253.890625,P01,D04,0,0,1
774,-1.22,1644577253.90625,P01,D04,0,0,1
775,-1.16,1644577253.921875,P01,D04,0,0,1
776,-0.93,1644577253.9375,P01,D04,0,0,1
777,-0.63,1644577253.953125,P01,D04,0,0,1
778,-0.37,1644577253.96875,P01,D04,0,0,1
779,-0.19,1644577253.984375,P01,D04,0,0,1
780,-0.04,1644577254.0,P01,D04,0,0,1
781,0.18,1644577254.015625,P01,D04,0,0,1
782,0.54,1644577254.03125,P01,D04,0,0,1
783,1.0,1644577254.046875,P01,D04,0,0,1
784,1.36,1644577254.0625,P01,D04,0,0,1
785,1.46,1644577254.078125,P01,D04,0,0,1
786,1.21,1644577254.09375,P01,D04,0,0,1
787,0.68,1644577254.109375,P01,D04,0,0,1
788,0.1,1644577254.125,P01,D04,0,0,1
789,-0.33,1644577254.140625,P01,D04,0,0,1
790,-0.51,1644577254.15625,P01,D04,0,0,1
791,-0.46,1644577254.171875,P01,D04,0,0,1
792,-0.3,1644577254.1875,P01,D04,0,0,1
793,-0.16,1644577254.203125,P01,D04,0,0,1
794,-0.11,1644577254.21875,P01,D04,0,0,1
795,-0.13,1644577254.234375,P01,D04,0,0,1
796,-0.19,1644577254.25,P01,D04,0,0,1
797,-0.24,1644577254.265625,P01,D04,0,0,1
798,-0.27,1644577254.28125,P01,D04,0,0,1
799,-0.26,1644577254.296875,P01,D04,0,0,1
800,-0.23,1644577254.3125,P01,D04,0,0,1
801,-0.19,1644577254.328125,P01,D04,0,0,1
802,-0.16,1644577254.34375,P01,D04,0,0,1
803,-0.15,1644577254.359375,P01,D04,0,0,1
804,-0.19,1644577254.375,P01,D04,0,0,1
805,-0.25,1644577254.390625,P01,D04,0,0,1
806,-0.32,1644577254.40625,P01,D04,0,0,1
807,-0.38,1644577254.421875,P01,D04,0,0,1
808,-0.38,1644577254.4375,P01,D04,0,0,1
809,-0.3,1644577254.453125,P01,D04,0,0,1
810,-0.17,1644577254.46875,P01,D04,0,0,1
811,-0.01,1644577254.484375,P01,D04,0,0,1
812,0.15,1644577254.5,P01,D04,0,0,1
813,0.29,1644577254.515625,P01,D04,0,0,1
814,0.41,1644577254.53125,P01,D04,0,0,1
815,0.54,1644577254.546875,P01,D04,0,0,1
816,0.7,1644577254.5625,P01,D04,0,0,1
817,0.89,1644577254.578125,P01,D04,0,0,1
818,1.07,1644577254.59375,P01,D04,0,0,1
819,1.17,1644577254.609375,P01,D04,0,0,1
820,1.15,1644577254.625,P01,D04,0,0,1
821,1.03,1644577254.640625,P01,D04,0,0,1
822,0.83,1644577254.65625,P01,D04,0,0,1
823,0.61,1644577254.671875,P01,D04,0,0,1
824,0.4,1644577254.6875,P01,D04,0,0,1
825,0.2,1644577254.703125,P01,D04,0,0,1
826,0.01,1644577254.71875,P01,D04,0,0,1
827,-0.13,1644577254.734375,P01,D04,0,0,1
828,-0.19,1644577254.75,P01,D04,0,0,1
829,-0.09,1644577254.765625,P01,D04,0,0,1
830,0.14,1644577254.78125,P01,D04,0,0,1
831,0.44,1644577254.796875,P01,D04,0,0,1
832,0.69,1644577254.8125,P01,D04,0,0,1
833,0.79,1644577254.828125,P01,D04,0,0,1
834,0.69,1644577254.84375,P01,D04,0,0,1
835,0.42,1644577254.859375,P01,D04,0,0,1
836,0.09,1644577254.875,P01,D04,0,0,1
837,-0.19,1644577254.890625,P01,D04,0,0,1
838,-0.34,1644577254.90625,P01,D04,0,0,1
839,-0.32,1644577254.921875,P01,D04,0,0,1
840,-0.13,1644577254.9375,P01,D04,0,0,1
841,0.21,1644577254.953125,P01,D04,0,0,1
842,0.6,1644577254.96875,P01,D04,0,0,1
843,0.96,1644577254.984375,P01,D04,0,0,1
844,1.18,1644577255.0,P01,D04,0,0,1
845,1.19,1644577255.015625,P01,D04,0,0,1
846,0.97,1644577255.03125,P01,D04,0,0,1
847,0.61,1644577255.046875,P01,D04,0,0,1
848,0.22,1644577255.0625,P01,D04,0,0,1
849,-0.08,1644577255.078125,P01,D04,0,0,1
850,-0.24,1644577255.09375,P01,D04,0,0,1
851,-0.25,1644577255.109375,P01,D04,0,0,1
852,-0.17,1644577255.125,P01,D04,0,0,1
853,-0.04,1644577255.140625,P01,D04,0,0,1
854,0.09,1644577255.15625,P01,D04,0,0,1
855,0.2,1644577255.171875,P01,D04,0,0,1
856,0.27,1644577255.1875,P01,D04,0,0,1
857,0.26,1644577255.203125,P01,D04,0,0,1
858,0.15,1644577255.21875,P01,D04,0,0,1
859,-0.08,1644577255.234375,P01,D04,0,0,1
860,-0.39,1644577255.25,P01,D04,0,0,1
861,-0.71,1644577255.265625,P01,D04,0,0,1
862,-0.95,1644577255.28125,P01,D04,0,0,1
863,-1.04,1644577255.296875,P01,D04,0,0,1
864,-0.98,1644577255.3125,P01,D04,0,0,1
865,-0.8,1644577255.328125,P01,D04,0,0,1
866,-0.55,1644577255.34375,P01,D04,0,0,1
867,-0.33,1644577255.359375,P01,D04,0,0,1
868,-0.15,1644577255.375,P01,D04,0,0,1
869,-0.06,1644577255.390625,P01,D04,0,0,1
870,-0.03,1644577255.40625,P01,D04,0,0,1
871,-0.06,1644577255.421875,P01,D04,0,0,1
872,-0.11,1644577255.4375,P01,D04,0,0,1
873,-0.18,1644577255.453125,P01,D04,0,0,1
874,-0.27,1644577255.46875,P01,D04,0,0,1
875,-0.41,1644577255.484375,P01,D04,0,0,1
876,-0.62,1644577255.5,P01,D04,0,0,1
877,-0.88,1644577255.515625,P01,D04,0,0,1
878,-1.13,1644577255.53125,P01,D04,0,0,1
879,-1.29,1644577255.546875,P01,D04,0,0,1
880,-1.29,1644577255.5625,P01,D04,0,0,1
881,-1.15,1644577255.578125,P01,D04,0,0,1
882,-0.95,1644577255.59375,P01,D04,0,0,1
883,-0.81,1644577255.609375,P01,D04,0,0,1
884,-0.81,1644577255.625,P01,D04,0,0,1
885,-0.97,1644577255.640625,P01,D04,0,0,1
886,-1.2,1644577255.65625,P01,D04,0,0,1
887,-1.38,1644577255.671875,P01,D04,0,0,1
888,-1.45,1644577255.6875,P01,D04,0,0,1
889,-1.42,1644577255.703125,P01,D04,0,0,1
890,-1.32,1644577255.71875,P01,D04,0,0,1
891,-1.22,1644577255.734375,P01,D04,0,0,1
892,-1.11,1644577255.75,P01,D04,0,0,1
893,-0.98,1644577255.765625,P01,D04,0,0,1
894,-0.76,1644577255.78125,P01,D04,0,0,1
895,-0.42,1644577255.796875,P01,D04,0,0,1
896,0.01,1644577255.8125,P01,D04,0,0,1
897,0.49,1644577255.828125,P01,D04,0,0,1
898,0.91,1644577255.84375,P01,D04,0,0,1
899,1.2,1644577255.859375,P01,D04,0,0,1
900,1.29,1644577255.875,P01,D04,0,0,1
901,1.15,1644577255.890625,P01,D04,0,0,1
902,0.8,1644577255.90625,P01,D04,0,0,1
903,0.32,1644577255.921875,P01,D04,0,0,1
904,-0.15,1644577255.9375,P01,D04,0,0,1
905,-0.47,1644577255.953125,P01,D04,0,0,1
906,-0.55,1644577255.96875,P01,D04,0,0,1
907,-0.38,1644577255.984375,P01,D04,0,0,1
908,-0.03,1644577256.0,P01,D04,0,0,1
909,0.37,1644577256.015625,P01,D04,0,0,1
910,0.71,1644577256.03125,P01,D04,0,0,1
911,0.91,1644577256.046875,P01,D04,0,0,1
912,0.99,1644577256.0625,P01,D04,0,0,1
913,0.99,1644577256.078125,P01,D04,0,0,1
914,0.96,1644577256.09375,P01,D04,0,0,1
915,0.95,1644577256.109375,P01,D04,0,0,1
916,0.92,1644577256.125,P01,D04,0,0,1
917,0.84,1644577256.140625,P01,D04,0,0,1
918,0.68,1644577256.15625,P01,D04,0,0,1
919,0.44,1644577256.171875,P01,D04,0,0,1
920,0.19,1644577256.1875,P01,D04,0,0,1
921,0.01,1644577256.203125,P01,D04,0,0,1
922,-0.07,1644577256.21875,P01,D04,0,0,1
923,-0.05,1644577256.234375,P01,D04,0,0,1
924,0.01,1644577256.25,P01,D04,0,0,1
925,0.04,1644577256.265625,P01,D04,0,0,1
926,0.02,1644577256.28125,P01,D04,0,0,1
927,-0.05,1644577256.296875,P01,D04,0,0,1
928,-0.14,1644577256.3125,P01,D04,0,0,1
929,-0.2,1644577256.328125,P01,D04,0,0,1
930,-0.24,1644577256.34375,P01,D04,0,0,1
931,-0.29,1644577256.359375,P01,D04,0,0,1
932,-0.38,1644577256.375,P01,D04,0,0,1
933,-0.52,1644577256.390625,P01,D04,0,0,1
934,-0.68,1644577256.40625,P01,D04,0,0,1
935,-0.82,1644577256.421875,P01,D04,0,0,1
936,-0.91,1644577256.4375,P01,D04,0,0,1
937,-0.94,1644577256.453125,P01,D04,0,0,1
938,-0.91,1644577256.46875,P01,D04,0,0,1
939,-0.8,1644577256.484375,P01,D04,0,0,1
940,-0.59,1644577256.5,P01,D04,0,0,1
941,-0.28,1644577256.515625,P01,D04,0,0,1
942,0.13,1644577256.53125,P01,D04,0,0,1
943,0.57,1644577256.546875,P01,D04,0,0,1
944,0.93,1644577256.5625,P01,D04,0,0,1
945,1.08,1644577256.578125,P01,D04,0,0,1
946,0.97,1644577256.59375,P01,D04,0,0,1
947,0.62,1644577256.609375,P01,D04,0,0,1
948,0.17,1644577256.625,P01,D04,0,0,1
949,-0.18,1644577256.640625,P01,D04,0,0,1
950,-0.3,1644577256.65625,P01,D04,0,0,1
951,-0.11,1644577256.671875,P01,D04,0,0,1
952,0.31,1644577256.6875,P01,D04,0,0,1
953,0.79,1644577256.703125,P01,D04,0,0,1
954,1.13,1644577256.71875,P01,D04,0,0,1
955,1.2,1644577256.734375,P01,D04,0,0,1
956,0.98,1644577256.75,P01,D04,0,0,1
957,0.59,1644577256.765625,P01,D04,0,0,1
958,0.18,1644577256.78125,P01,D04,0,0,1
959,-0.08,1644577256.796875,P01,D04,0,0,1
960,-0.13,1644577256.8125,P01,D04,0,0,1
961,-0.01,1644577256.828125,P01,D04,0,0,1
962,0.19,1644577256.84375,P01,D04,0,0,1
963,0.35,1644577256.859375,P01,D04,0,0,1
964,0.42,1644577256.875,P01,D04,0,0,1
965,0.4,1644577256.890625,P01,D04,0,0,1
966,0.33,1644577256.90625,P01,D04,0,0,1
967,0.26,1644577256.921875,P01,D04,0,0,1
968,0.19,1644577256.9375,P01,D04,0,0,1
969,0.11,1644577256.953125,P01,D04,0,0,1
970,0.01,1644577256.96875,P01,D04,0,0,1
971,-0.13,1644577256.984375,P01,D04,0,0,1
972,-0.28,1644577257.0,P01,D04,0,0,1
973,-0.39,1644577257.015625,P01,D04,0,0,1
974,-0.41,1644577257.03125,P01,D04,0,0,1
975,-0.33,1644577257.046875,P01,D04,0,0,1
976,-0.14,1644577257.0625,P01,D04,0,0,1
977,0.11,1644577257.078125,P01,D04,0,0,1
978,0.34,1644577257.09375,P01,D04,0,0,1
979,0.49,1644577257.109375,P01,D04,0,0,1
980,0.53,1644577257.125,P01,D04,0,0,1
981,0.47,1644577257.140625,P01,D04,0,0,1
982,0.3,1644577257.15625,P01,D04,0,0,1
983,0.08,1644577257.171875,P01,D04,0,0,1
984,-0.18,1644577257.1875,P01,D04,0,0,1
985,-0.43,1644577257.203125,P01,D04,0,0,1
986,-0.62,1644577257.21875,P01,D04,0,0,1
987,-0.68,1644577257.234375,P01,D04,0,0,1
988,-0.56,1644577257.25,P01,D04,0,0,1
989,-0.32,1644577257.265625,P01,D04,0,0,1
990,-0.04,1644577257.28125,P01,D04,0,0,1
991,0.14,1644577257.296875,P01,D04,0,0,1
992,0.15,1644577257.3125,P01,D04,0,0,1
993,-0.02,1644577257.328125,P01,D04,0,0,1
994,-0.24,1644577257.34375,P01,D04,0,0,1
995,-0.38,1644577257.359375,P01,D04,0,0,1
996,-0.34,1644577257.375,P01,D04,0,0,1
997,-0.14,1644577257.390625,P01,D04,0,0,1
998,0.11,1644577257.40625,P01,D04,0,0,1
999,0.27,1644577257.421875,P01,D04,0,0,1
1000,0.29,1644577257.4375,P01,D04,0,0,1
1001,0.2,1644577257.453125,P01,D04,0,0,1
1002,0.11,1644577257.46875,P01,D04,0,0,1
1003,0.13,1644577257.484375,P01,D04,0,0,1
1004,0.27,1644577257.5,P01,D04,0,0,1
1005,0.49,1644577257.515625,P01,D04,0,0,1
1006,0.68,1644577257.53125,P01,D04,0,0,1
1007,0.75,1644577257.546875,P01,D04,0,0,1
1008,0.7,1644577257.5625,P01,D04,0,0,1
1009,0.56,1644577257.578125,P01,D04,0,0,1
1010,0.43,1644577257.59375,P01,D04,0,0,1
1011,0.38,1644577257.609375,P01,D04,0,0,1
1012,0.4,1644577257.625,P01,D04,0,0,1
1013,0.46,1644577257.640625,P01,D04,0,0,1
1014,0.47,1644577257.65625,P01,D04,0,0,1
1015,0.39,1644577257.671875,P01,D04,0,0,1
1016,0.24,1644577257.6875,P01,D04,0,0,1
1017,0.06,1644577257.703125,P01,D04,0,0,1
1018,-0.05,1644577257.71875,P01,D04,0,0,1
1019,-0.05,1644577257.734375,P01,D04,0,0,1
1020,0.05,1644577257.75,P01,D04,0,0,1
1021,0.21,1644577257.765625,P01,D04,0,0,1
1022,0.37,1644577257.78125,P01,D04,0,0,1
1023,0.49,1644577257.796875,P01,D04,0,0,1
1024,0.57,1644577257.8125,P01,D04,0,0,1
1025,0.63,1644577257.828125,P01,D04,0,0,1
1026,0.65,1644577257.84375,P01,D04,0,0,1
1027,0.58,1644577257.859375,P01,D04,0,0,1
1028,0.39,1644577257.875,P01,D04,0,0,1
1029,0.07,1644577257.890625,P01,D04,0,0,1
1030,-0.33,1644577257.90625,P01,D04,0,0,1
1031,-0.67,1644577257.921875,P01,D04,0,0,1
1032,-0.82,1644577257.9375,P01,D04,0,0,1
1033,-0.72,1644577257.953125,P01,D04,0,0,1
1034,-0.4,1644577257.96875,P01,D04,0,0,1
1035,-0.02,1644577257.984375,P01,D04,0,0,1
1036,0.25,1644577258.0,P01,D04,0,0,1
1037,0.29,1644577258.015625,P01,D04,0,0,1
1038,0.11,1644577258.03125,P01,D04,0,0,1
1039,-0.19,1644577258.046875,P01,D04,0,0,1
1040,-0.48,1644577258.0625,P01,D04,0,0,1
1041,-0.63,1644577258.078125,P01,D04,0,0,1
1042,-0.62,1644577258.09375,P01,D04,0,0,1
1043,-0.49,1644577258.109375,P01,D04,0,0,1
1044,-0.31,1644577258.125,P01,D04,0,0,1
1045,-0.16,1644577258.140625,P01,D04,0,0,1
1046,-0.07,1644577258.15625,P01,D04,0,0,1
1047,-0.02,1644577258.171875,P01,D04,0,0,1
1048,0.04,1644577258.1875,P01,D04,0,0,1
1049,0.11,1644577258.203125,P01,D04,0,0,1
1050,0.17,1644577258.21875,P01,D04,0,0,1
1051,0.19,1644577258.234375,P01,D04,0,0,1
1052,0.11,1644577258.25,P01,D04,0,0,1
1053,-0.07,1644577258.265625,P01,D04,0,0,1
1054,-0.31,1644577258.28125,P01,D04,0,0,1
1055,-0.56,1644577258.296875,P01,D04,0,0,1
1056,-0.75,1644577258.3125,P01,D04,0,0,1
1057,-0.85,1644577258.328125,P01,D04,0,0,1
1058,-0.88,1644577258.34375,P01,D04,0,0,1
1059,-0.84,1644577258.359375,P01,D04,0,0,1
1060,-0.79,1644577258.375,P01,D04,0,0,1
1061,-0.74,1644577258.390625,P01,D04,0,0,1
1062,-0.73,1644577258.40625,P01,D04,0,0,1
1063,-0.76,1644577258.421875,P01,D04,0,0,1
1064,-0.85,1644577258.4375,P01,D04,0,0,1
1065,-0.97,1644577258.453125,P01,D04,0,0,1
1066,-1.1,1644577258.46875,P01,D04,0,0,1
1067,-1.17,1644577258.484375,P01,D04,0,0,1
1068,-1.13,1644577258.5,P01,D04,0,0,1
1069,-0.95,1644577258.515625,P01,D04,0,0,1
1070,-0.68,1644577258.53125,P01,D04,0,0,1
1071,-0.37,1644577258.546875,P01,D04,0,0,1
1072,-0.1,1644577258.5625,P01,D04,0,0,1
1073,0.13,1644577258.578125,P01,D04,0,0,1
1074,0.3,1644577258.59375,P01,D04,0,0,1
1075,0.45,1644577258.609375,P01,D04,0,0,1
1076,0.58,1644577258.625,P01,D04,0,0,1
1077,0.69,1644577258.640625,P01,D04,0,0,1
1078,0.74,1644577258.65625,P01,D04,0,0,1
1079,0.7,1644577258.671875,P01,D04,0,0,1
1080,0.58,1644577258.6875,P01,D04,0,0,1
1081,0.4,1644577258.703125,P01,D04,0,0,1
1082,0.23,1644577258.71875,P01,D04,0,0,1
1083,0.1,1644577258.734375,P01,D04,0,0,1
1084,0.04,1644577258.75,P01,D04,0,0,1
1085,0.04,1644577258.765625,P01,D04,0,0,1
1086,0.08,1644577258.78125,P01,D04,0,0,1
1087,0.11,1644577258.796875,P01,D04,0,0,1
1088,0.09,1644577258.8125,P01,D04,0,0,1
1089,-0.02,1644577258.828125,P01,D04,0,0,1
1090,-0.2,1644577258.84375,P01,D04,0,0,1
1091,-0.42,1644577258.859375,P01,D04,0,0,1
1092,-0.6,1644577258.875,P01,D04,0,0,1
1093,-0.66,1644577258.890625,P01,D04,0,0,1
1094,-0.56,1644577258.90625,P01,D04,0,0,1
1095,-0.34,1644577258.921875,P01,D04,0,0,1
1096,-0.06,1644577258.9375,P01,D04,0,0,1
1097,0.17,1644577258.953125,P01,D04,0,0,1
1098,0.34,1644577258.96875,P01,D04,0,0,1
1099,0.42,1644577258.984375,P01,D04,0,0,1
1100,0.45,1644577259.0,P01,D04,0,0,1
1101,0.48,1644577259.015625,P01,D04,0,0,1
1102,0.52,1644577259.03125,P01,D04,0,0,1
1103,0.56,1644577259.046875,P01,D04,0,0,1
1104,0.6,1644577259.0625,P01,D04,0,0,1
1105,0.62,1644577259.078125,P01,D04,0,0,1
1106,0.61,1644577259.09375,P01,D04,0,0,1
1107,0.56,1644577259.109375,P01,D04,0,0,1
1108,0.47,1644577259.125,P01,D04,0,0,1
1109,0.31,1644577259.140625,P01,D04,0,0,1
1110,0.11,1644577259.15625,P01,D04,0,0,1
1111,-0.08,1644577259.171875,P01,D04,0,0,1
1112,-0.2,1644577259.1875,P01,D04,0,0,1
1113,-0.19,1644577259.203125,P01,D04,0,0,1
1114,-0.02,1644577259.21875,P01,D04,0,0,1
1115,0.26,1644577259.234375,P01,D04,0,0,1
1116,0.6,1644577259.25,P01,D04,0,0,1
1117,0.88,1644577259.265625,P01,D04,0,0,1
1118,1.06,1644577259.28125,P01,D04,0,0,1
1119,1.07,1644577259.296875,P01,D04,0,0,1
1120,0.92,1644577259.3125,P01,D04,0,0,1
1121,0.6,1644577259.328125,P01,D04,0,0,1
1122,0.15,1644577259.34375,P01,D04,0,0,1
1123,-0.36,1644577259.359375,P01,D04,0,0,1
1124,-0.81,1644577259.375,P01,D04,0,0,1
1125,-1.12,1644577259.390625,P01,D04,0,0,1
1126,-1.19,1644577259.40625,P01,D04,0,0,1
1127,-1.05,1644577259.421875,P01,D04,0,0,1
1128,-0.79,1644577259.4375,P01,D04,0,0,1
1129,-0.55,1644577259.453125,P01,D04,0,0,1
1130,-0.46,1644577259.46875,P01,D04,0,0,1
1131,-0.53,1644577259.484375,P01,D04,0,0,1
1132,-0.71,1644577259.5,P01,D04,0,0,1
1133,-0.88,1644577259.515625,P01,D04,0,0,1
1134,-0.97,1644577259.53125,P01,D04,0,0,1
1135,-0.96,1644577259.546875,P01,D04,0,0,1
1136,-0.89,1644577259.5625,P01,D04,0,0,1
1137,-0.78,1644577259.578125,P01,D04,0,0,1
1138,-0.64,1644577259.59375,P01,D04,0,0,1
1139,-0.41,1644577259.609375,P01,D04,0,0,1
1140,-0.06,1644577259.625,P01,D04,0,0,1
1141,0.4,1644577259.640625,P01,D04,0,0,1
1142,0.89,1644577259.65625,P01,D04,0,0,1
1143,1.28,1644577259.671875,P01,D04,0,0,1
1144,1.48,1644577259.6875,P01,D04,0,0,1
1145,1.45,1644577259.703125,P01,D04,0,0,1
1146,1.27,1644577259.71875,P01,D04,0,0,1
1147,1.03,1644577259.734375,P01,D04,0,0,1
1148,0.83,1644577259.75,P01,D04,0,0,1
1149,0.7,1644577259.765625,P01,D04,0,0,1
1150,0.62,1644577259.78125,P01,D04,0,0,1
1151,0.55,1644577259.796875,P01,D04,0,0,1
1152,0.49,1644577259.8125,P01,D04,0,0,1
1153,0.46,1644577259.828125,P01,D04,0,0,1
1154,0.52,1644577259.84375,P01,D04,0,0,1
1155,0.69,1644577259.859375,P01,D04,0,0,1
1156,0.92,1644577259.875,P01,D04,0,0,1
1157,1.09,1644577259.890625,P01,D04,0,0,1
1158,1.06,1644577259.90625,P01,D04,0,0,1
1159,0.77,1644577259.921875,P01,D04,0,0,1
1160,0.28,1644577259.9375,P01,D04,0,0,1
1161,-0.26,1644577259.953125,P01,D04,0,0,1
1162,-0.7,1644577259.96875,P01,D04,0,0,1
1163,-0.94,1644577259.984375,P01,D04,0,0,1
1164,-0.97,1644577260.0,P01,D04,0,0,1
1165,-0.87,1644577260.015625,P01,D04,0,0,1
1166,-0.7,1644577260.03125,P01,D04,0,0,1
1167,-0.51,1644577260.046875,P01,D04,0,0,1
1168,-0.31,1644577260.0625,P01,D04,0,0,1
1169,-0.1,1644577260.078125,P01,D04,0,0,1
1170,0.08,1644577260.09375,P01,D04,0,0,1
1171,0.21,1644577260.109375,P01,D04,0,0,1
1172,0.24,1644577260.125,P01,D04,0,0,1
1173,0.21,1644577260.140625,P01,D04,0,0,1
1174,0.17,1644577260.15625,P01,D04,0,0,1
1175,0.18,1644577260.171875,P01,D04,0,0,1
1176,0.3,1644577260.1875,P01,D04,0,0,1
1177,0.53,1644577260.203125,P01,D04,0,0,1
1178,0.84,1644577260.21875,P01,D04,0,0,1
1179,1.12,1644577260.234375,P01,D04,0,0,1
1180,1.3,1644577260.25,P01,D04,0,0,1
1181,1.3,1644577260.265625,P01,D04,0,0,1
1182,1.1,1644577260.28125,P01,D04,0,0,1
1183,0.74,1644577260.296875,P01,D04,0,0,1
1184,0.33,1644577260.3125,P01,D04,0,0,1
1185,-0.01,1644577260.328125,P01,D04,0,0,1
1186,-0.21,1644577260.34375,P01,D04,0,0,1
1187,-0.25,1644577260.359375,P01,D04,0,0,1
1188,-0.18,1644577260.375,P01,D04,0,0,1
1189,-0.12,1644577260.390625,P01,D04,0,0,1
1190,-0.16,1644577260.40625,P01,D04,0,0,1
1191,-0.32,1644577260.421875,P01,D04,0,0,1
1192,-0.56,1644577260.4375,P01,D04,0,0,1
1193,-0.79,1644577260.453125,P01,D04,0,0,1
1194,-0.93,1644577260.46875,P01,D04,0,0,1
1195,-0.94,1644577260.484375,P01,D04,0,0,1
1196,-0.83,1644577260.5,P01,D04,0,0,1
1197,-0.64,1644577260.515625,P01,D04,0,0,1
1198,-0.41,1644577260.53125,P01,D04,0,0,1
1199,-0.16,1644577260.546875,P01,D04,0,0,1
1200,0.08,1644577260.5625,P01,D04,0,0,1
1201,0.25,1644577260.578125,P01,D04,0,0,1
1202,0.33,1644577260.59375,P01,D04,0,0,1
1203,0.28,1644577260.609375,P01,D04,0,0,1
1204,0.12,1644577260.625,P01,D04,0,0,1
1205,-0.08,1644577260.640625,P01,D04,0,0,1
1206,-0.27,1644577260.65625,P01,D04,0,0,1
1207,-0.4,1644577260.671875,P01,D04,0,0,1
1208,-0.46,1644577260.6875,P01,D04,0,0,1
1209,-0.47,1644577260.703125,P01,D04,0,0,1
1210,-0.46,1644577260.71875,P01,D04,0,0,1
1211,-0.45,1644577260.734375,P01,D04,0,0,1
1212,-0.38,1644577260.75,P01,D04,0,0,1
1213,-0.25,1644577260.765625,P01,D04,0,0,1
1214,-0.06,1644577260.78125,P01,D04,0,0,1
1215,0.12,1644577260.796875,P01,D04,0,0,1
1216,0.25,1644577260.8125,P01,D04,0,0,1
1217,0.28,1644577260.828125,P01,D04,0,0,1
1218,0.27,1644577260.84375,P01,D04,0,0,1
1219,0.29,1644577260.859375,P01,D04,0,0,1
1220,0.42,1644577260.875,P01,D04,0,0,1
1221,0.67,1644577260.890625,P01,D04,0,0,1
1222,0.97,1644577260.90625,P01,D04,0,0,1
1223,1.2,1644577260.921875,P01,D04,0,0,1
1224,1.26,1644577260.9375,P01,D04,0,0,1
1225,1.1,1644577260.953125,P01,D04,0,0,1
1226,0.73,1644577260.96875,P01,D04,0,0,1
1227,0.25,1644577260.984375,P01,D04,0,0,1
1228,-0.22,1644577261.0,P01,D04,0,0,1
1229,-0.58,1644577261.015625,P01,D04,0,0,1
1230,-0.76,1644577261.03125,P01,D04,0,0,1
1231,-0.78,1644577261.046875,P01,D04,0,0,1
1232,-0.68,1644577261.0625,P01,D04,0,0,1
1233,-0.56,1644577261.078125,P01,D04,0,0,1
1234,-0.47,1644577261.09375,P01,D04,0,0,1
1235,-0.43,1644577261.109375,P01,D04,0,0,1
1236,-0.4,1644577261.125,P01,D04,0,0,1
1237,-0.35,1644577261.140625,P01,D04,0,0,1
1238,-0.27,1644577261.15625,P01,D04,0,0,1
1239,-0.19,1644577261.171875,P01,D04,0,0,1
1240,-0.19,1644577261.1875,P01,D04,0,0,1
1241,-0.29,1644577261.203125,P01,D04,0,0,1
1242,-0.47,1644577261.21875,P01,D04,0,0,1
1243,-0.65,1644577261.234375,P01,D04,0,0,1
1244,-0.76,1644577261.25,P01,D04,0,0,1
1245,-0.76,1644577261.265625,P01,D04,0,0,1
1246,-0.7,1644577261.28125,P01,D04,0,0,1
1247,-0.65,1644577261.296875,P01,D04,0,0,1
1248,-0.71,1644577261.3125,P01,D04,0,0,1
1249,-0.87,1644577261.328125,P01,D04,0,0,1
1250,-1.1,1644577261.34375,P01,D04,0,0,1
1251,-1.28,1644577261.359375,P01,D04,0,0,1
1252,-1.36,1644577261.375,P01,D04,0,0,1
1253,-1.33,1644577261.390625,P01,D04,0,0,1
1254,-1.27,1644577261.40625,P01,D04,0,0,1
1255,-1.26,1644577261.421875,P01,D04,0,0,1
1256,-1.3,1644577261.4375,P01,D04,0,0,1
1257,-1.34,1644577261.453125,P01,D04,0,0,1
1258,-1.26,1644577261.46875,P01,D04,0,0,1
1259,-0.97,1644577261.484375,P01,D04,0,0,1
1260,-0.49,1644577261.5,P01,D04,0,0,1
1261,0.06,1644577261.515625,P01,D04,0,0,1
1262,0.5,1644577261.53125,P01,D04,0,0,1
1263,0.7,1644577261.546875,P01,D04,0,0,1
1264,0.64,1644577261.5625,P01,D04,0,0,1
1265,0.43,1644577261.578125,P01,D04,0,0,1
1266,0.24,1644577261.59375,P01,D04,0,0,1
1267,0.23,1644577261.609375,P01,D04,0,0,1
1268,0.41,1644577261.625,P01,D04,0,0,1
1269,0.74,1644577261.640625,P01,D04,0,0,1
1270,1.08,1644577261.65625,P01,D04,0,0,1
1271,1.31,1644577261.671875,P01,D04,0,0,1
1272,1.37,1644577261.6875,P01,D04,0,0,1
1273,1.26,1644577261.703125,P01,D04,0,0,1
1274,1.03,1644577261.71875,P01,D04,0,0,1
1275,0.73,1644577261.734375,P01,D04,0,0,1
1276,0.43,1644577261.75,P01,D04,0,0,1
1277,0.17,1644577261.765625,P01,D04,0,0,1
1278,-0.01,1644577261.78125,P01,D04,0,0,1
1279,-0.14,1644577261.796875,P01,D04,0,0,1
1280,-0.24,1644577261.8125,P01,D04,0,0,1
1281,-0.33,1644577261.828125,P01,D04,0,0,1
1282,-0.44,1644577261.84375,P01,D04,0,0,1
1283,-0.57,1644577261.859375,P01,D04,0,0,1
1284,-0.7,1644577261.875,P01,D04,0,0,1
1285,-0.78,1644577261.890625,P01,D04,0,0,1
1286,-0.75,1644577261.90625,P01,D04,0,0,1
1287,-0.58,1644577261.921875,P01,D04,0,0,1
1288,-0.27,1644577261.9375,P01,D04,0,0,1
1289,0.15,1644577261.953125,P01,D04,0,0,1
1290,0.62,1644577261.96875,P01,D04,0,0,1
1291,1.07,1644577261.984375,P01,D04,0,0,1
1292,1.41,1644577262.0,P01,D04,0,0,1
1293,1.56,1644577262.015625,P01,D04,0,0,1
1294,1.49,1644577262.03125,P01,D04,0,0,1
1295,1.23,1644577262.046875,P01,D04,0,0,1
1296,0.84,1644577262.0625,P01,D04,0,0,1
1297,0.42,1644577262.078125,P01,D04,0,0,1
1298,0.07,1644577262.09375,P01,D04,0,0,1
1299,-0.16,1644577262.109375,P01,D04,0,0,1
1300,-0.27,1644577262.125,P01,D04,0,0,1
1301,-0.29,1644577262.140625,P01,D04,0,0,1
1302,-0.29,1644577262.15625,P01,D04,0,0,1
1303,-0.31,1644577262.171875,P01,D04,0,0,1
1304,-0.35,1644577262.1875,P01,D04,0,0,1
1305,-0.39,1644577262.203125,P01,D04,0,0,1
1306,-0.42,1644577262.21875,P01,D04,0,0,1
1307,-0.39,1644577262.234375,P01,D04,0,0,1
1308,-0.3,1644577262.25,P01,D04,0,0,1
1309,-0.16,1644577262.265625,P01,D04,0,0,1
1310,0.02,1644577262.28125,P01,D04,0,0,1
1311,0.16,1644577262.296875,P01,D04,0,0,1
1312,0.22,1644577262.3125,P01,D04,0,0,1
1313,0.16,1644577262.328125,P01,D04,0,0,1
1314,-0.04,1644577262.34375,P01,D04,0,0,1
1315,-0.32,1644577262.359375,P01,D04,0,0,1
1316,-0.57,1644577262.375,P01,D04,0,0,1
1317,-0.68,1644577262.390625,P01,D04,0,0,1
1318,-0.58,1644577262.40625,P01,D04,0,0,1
1319,-0.3,1644577262.421875,P01,D04,0,0,1
1320,0.02,1644577262.4375,P01,D04,0,0,1
1321,0.24,1644577262.453125,P01,D04,0,0,1
1322,0.27,1644577262.46875,P01,D04,0,0,1
1323,0.15,1644577262.484375,P01,D04,0,0,1
1324,-0.01,1644577262.5,P01,D04,0,0,1
1325,-0.06,1644577262.515625,P01,D04,0,0,1
1326,0.05,1644577262.53125,P01,D04,0,0,1
1327,0.25,1644577262.546875,P01,D04,0,0,1
1328,0.43,1644577262.5625,P01,D04,0,0,1
1329,0.45,1644577262.578125,P01,D04,0,0,1
1330,0.31,1644577262.59375,P01,D04,0,0,1
1331,0.12,1644577262.609375,P01,D04,0,0,1
1332,0.06,1644577262.625,P01,D04,0,0,1
1333,0.22,1644577262.640625,P01,D04,0,0,1
1334,0.53,1644577262.65625,P01,D04,0,0,1
1335,0.84,1644577262.671875,P01,D04,0,0,1
1336,0.97,1644577262.6875,P01,D04,0,0,1
1337,0.86,1644577262.703125,P01,D04,0,0,1
1338,0.59,1644577262.71875,P01,D04,0,0,1
1339,0.35,1644577262.734375,P01,D04,0,0,1
1340,0.29,1644577262.75,P01,D04,0,0,1
1341,0.46,1644577262.765625,P01,D04,0,0,1
1342,0.73,1644577262.78125,P01,D04,0,0,1
1343,0.93,1644577262.796875,P01,D04,0,0,1
1344,0.9,1644577262.8125,P01,D04,0,0,1
1345,0.62,1644577262.828125,P01,D04,0,0,1
1346,0.21,1644577262.84375,P01,D04,0,0,1
1347,-0.19,1644577262.859375,P01,D04,0,0,1
1348,-0.46,1644577262.875,P01,D04,0,0,1
1349,-0.56,1644577262.890625,P01,D04,0,0,1
1350,-0.57,1644577262.90625,P01,D04,0,0,1
1351,-0.58,1644577262.921875,P01,D04,0,0,1
1352,-0.62,1644577262.9375,P01,D04,0,0,1
1353,-0.68,1644577262.953125,P01,D04,0,0,1
1354,-0.68,1644577262.96875,P01,D04,0,0,1
1355,-0.54,1644577262.984375,P01,D04,0,0,1
1356,-0.25,1644577263.0,P01,D04,0,0,1
1357,0.15,1644577263.015625,P01,D04,0,0,1
1358,0.53,1644577263.03125,P01,D04,0,0,1
1359,0.73,1644577263.046875,P01,D04,0,0,1
1360,0.68,1644577263.0625,P01,D04,0,0,1
1361,0.37,1644577263.078125,P01,D04,0,0,1
1362,-0.08,1644577263.09375,P01,D04,0,0,1
1363,-0.54,1644577263.109375,P01,D04,0,0,1
1364,-0.86,1644577263.125,P01,D04,0,0,1
1365,-1.01,1644577263.140625,P01,D04,0,0,1
1366,-0.99,1644577263.15625,P01,D04,0,0,1
1367,-0.87,1644577263.171875,P01,D04,0,0,1
1368,-0.69,1644577263.1875,P01,D04,0,0,1
1369,-0.48,1644577263.203125,P01,D04,0,0,1
1370,-0.25,1644577263.21875,P01,D04,0,0,1
1371,0.0,1644577263.234375,P01,D04,0,0,1
1372,0.25,1644577263.25,P01,D04,0,0,1
1373,0.49,1644577263.265625,P01,D04,0,0,1
1374,0.7,1644577263.28125,P01,D04,0,0,1
1375,0.86,1644577263.296875,P01,D04,0,0,1
1376,0.97,1644577263.3125,P01,D04,0,0,1
1377,0.98,1644577263.328125,P01,D04,0,0,1
1378,0.89,1644577263.34375,P01,D04,0,0,1
1379,0.71,1644577263.359375,P01,D04,0,0,1
1380,0.45,1644577263.375,P01,D04,0,0,1
1381,0.19,1644577263.390625,P01,D04,0,0,1
1382,-0.04,1644577263.40625,P01,D04,0,0,1
1383,-0.23,1644577263.421875,P01,D04,0,0,1
1384,-0.44,1644577263.4375,P01,D04,0,0,1
1385,-0.7,1644577263.453125,P01,D04,0,0,1
1386,-0.97,1644577263.46875,P01,D04,0,0,1
1387,-1.16,1644577263.484375,P01,D04,0,0,1
1388,-1.15,1644577263.5,P01,D04,0,0,1
1389,-0.87,1644577263.515625,P01,D04,0,0,1
1390,-0.35,1644577263.53125,P01,D04,0,0,1
1391,0.25,1644577263.546875,P01,D04,0,0,1
1392,0.75,1644577263.5625,P01,D04,0,0,1
1393,1.0,1644577263.578125,P01,D04,0,0,1
1394,0.94,1644577263.59375,P01,D04,0,0,1
1395,0.67,1644577263.609375,P01,D04,0,0,1
1396,0.32,1644577263.625,P01,D04,0,0,1
1397,0.03,1644577263.640625,P01,D04,0,0,1
1398,-0.12,1644577263.65625,P01,D04,0,0,1
1399,-0.19,1644577263.671875,P01,D04,0,0,1
1400,-0.23,1644577263.6875,P01,D04,0,0,1
1401,-0.29,1644577263.703125,P01,D04,0,0,1
1402,-0.36,1644577263.71875,P01,D04,0,0,1
1403,-0.37,1644577263.734375,P01,D04,0,0,1
1404,-0.22,1644577263.75,P01,D04,0,0,1
1405,0.08,1644577263.765625,P01,D04,0,0,1
1406,0.44,1644577263.78125,P01,D04,0,0,1
1407,0.72,1644577263.796875,P01,D04,0,0,1
1408,0.78,1644577263.8125,P01,D04,0,0,1
1409,0.59,1644577263.828125,P01,D04,0,0,1
1410,0.21,1644577263.84375,P01,D04,0,0,1
1411,-0.23,1644577263.859375,P01,D04,0,0,1
1412,-0.6,1644577263.875,P01,D04,0,0,1
1413,-0.84,1644577263.890625,P01,D04,0,0,1
1414,-0.95,1644577263.90625,P01,D04,0,0,1
1415,-0.98,1644577263.921875,P01,D04,0,0,1
1416,-0.94,1644577263.9375,P01,D04,0,0,1
1417,-0.82,1644577263.953125,P01,D04,0,0,1
1418,-0.59,1644577263.96875,P01,D04,0,0,1
1419,-0.27,1644577263.984375,P01,D04,0,0,1
1420,0.1,1644577264.0,P01,D04,0,0,1
1421,0.47,1644577264.015625,P01,D04,0,0,1
1422,0.74,1644577264.03125,P01,D04,0,0,1
1423,0.88,1644577264.046875,P01,D04,0,0,1
1424,0.86,1644577264.0625,P01,D04,0,0,1
1425,0.7,1644577264.078125,P01,D04,0,0,1
1426,0.46,1644577264.09375,P01,D04,0,0,1
1427,0.19,1644577264.109375,P01,D04,0,0,1
1428,-0.07,1644577264.125,P01,D04,0,0,1
1429,-0.3,1644577264.140625,P01,D04,0,0,1
1430,-0.52,1644577264.15625,P01,D04,0,0,1
1431,-0.71,1644577264.171875,P01,D04,0,0,1
1432,-0.85,1644577264.1875,P01,D04,0,0,1
1433,-0.88,1644577264.203125,P01,D04,0,0,1
1434,-0.78,1644577264.21875,P01,D04,0,0,1
1435,-0.57,1644577264.234375,P01,D04,0,0,1
1436,-0.32,1644577264.25,P01,D04,0,0,1
1437,-0.17,1644577264.265625,P01,D04,0,0,1
1438,-0.18,1644577264.28125,P01,D04,0,0,1
1439,-0.34,1644577264.296875,P01,D04,0,0,1
1440,-0.55,1644577264.3125,P01,D04,0,0,1
1441,-0.69,1644577264.328125,P01,D04,0,0,1
1442,-0.67,1644577264.34375,P01,D04,0,0,1
1443,-0.54,1644577264.359375,P01,D04,0,0,1
1444,-0.38,1644577264.375,P01,D04,0,0,1
1445,-0.3,1644577264.390625,P01,D04,0,0,1
1446,-0.35,1644577264.40625,P01,D04,0,0,1
1447,-0.51,1644577264.421875,P01,D04,0,0,1
1448,-0.7,1644577264.4375,P01,D04,0,0,1
1449,-0.82,1644577264.453125,P01,D04,0,0,1
1450,-0.84,1644577264.46875,P01,D04,0,0,1
1451,-0.73,1644577264.484375,P01,D04,0,0,1
1452,-0.56,1644577264.5,P01,D04,0,0,1
1453,-0.35,1644577264.515625,P01,D04,0,0,1
1454,-0.15,1644577264.53125,P01,D04,0,0,1
1455,0.05,1644577264.546875,P01,D04,0,0,1
1456,0.25,1644577264.5625,P01,D04,0,0,1
1457,0.49,1644577264.578125,P01,D04,0,0,1
1458,0.77,1644577264.59375,P01,D04,0,0,1
1459,1.03,1644577264.609375,P01,D04,0,0,1
1460,1.23,1644577264.625,P01,D04,0,0,1
1461,1.33,1644577264.640625,P01,D04,0,0,1
1462,1.29,1644577264.65625,P01,D04,0,0,1
1463,1.16,1644577264.671875,P01,D04,0,0,1
1464,0.98,1644577264.6875,P01,D04,0,0,1
1465,0.8,1644577264.703125,P01,D04,0,0,1
1466,0.65,1644577264.71875,P01,D04,0,0,1
1467,0.5,1644577264.734375,P01,D04,0,0,1
1468,0.35,1644577264.75,P01,D04,0,0,1
1469,0.21,1644577264.765625,P01,D04,0,0,1
1470,0.13,1644577264.78125,P01,D04,0,0,1
1471,0.13,1644577264.796875,P01,D04,0,0,1
1472,0.23,1644577264.8125,P01,D04,0,0,1
1473,0.37,1644577264.828125,P01,D04,0,0,1
1474,0.51,1644577264.84375,P01,D04,0,0,1
1475,0.61,1644577264.859375,P01,D04,0,0,1
1476,0.67,1644577264.875,P01,D04,0,0,1
1477,0.68,1644577264.890625,P01,D04,0,0,1
1478,0.66,1644577264.90625,P01,D04,0,0,1
1479,0.56,1644577264.921875,P01,D04,0,0,1
1480,0.38,1644577264.9375,P01,D04,0,0,1
1481,0.13,1644577264.953125,P01,D04,0,0,1
1482,-0.15,1644577264.96875,P01,D04,0,0,1
1483,-0.39,1644577264.984375,P01,D04,0,0,1
1484,-0.56,1644577265.0,P01,D04,0,0,1
1485,-0.67,1644577265.015625,P01,D04,0,0,1
1486,-0.73,1644577265.03125,P01,D04,0,0,1
1487,-0.76,1644577265.046875,P01,D04,0,0,1
1488,-0.74,1644577265.0625,P01,D04,0,0,1
1489,-0.66,1644577265.078125,P01,D04,0,0,1
1490,-0.54,1644577265.09375,P01,D04,0,0,1
1491,-0.43,1644577265.109375,P01,D04,0,0,1
1492,-0.36,1644577265.125,P01,D04,0,0,1
1493,-0.35,1644577265.140625,P01,D04,0,0,1
1494,-0.32,1644577265.15625,P01,D04,0,0,1
1495,-0.19,1644577265.171875,P01,D04,0,0,1
1496,0.07,1644577265.1875,P01,D04,0,0,1
1497,0.42,1644577265.203125,P01,D04,0,0,1
1498,0.71,1644577265.21875,P01,D04,0,0,1
1499,0.81,1644577265.234375,P01,D04,0,0,1
1500,0.67,1644577265.25,P01,D04,0,0,1
1501,0.37,1644577265.265625,P01,D04,0,0,1
1502,0.08,1644577265.28125,P01,D04,0,0,1
1503,-0.04,1644577265.296875,P01,D04,0,0,1
1504,0.04,1644577265.3125,P01,D04,0,0,1
1505,0.26,1644577265.328125,P01,D04,0,0,1
1506,0.48,1644577265.34375,P01,D04,0,0,1
1507,0.57,1644577265.359375,P01,D04,0,0,1
1508,0.47,1644577265.375,P01,D04,0,0,1
1509,0.23,1644577265.390625,P01,D04,0,0,1
1510,-0.08,1644577265.40625,P01,D04,0,0,1
1511,-0.37,1644577265.421875,P01,D04,0,0,1
1512,-0.58,1644577265.4375,P01,D04,0,0,1
1513,-0.69,1644577265.453125,P01,D04,0,0,1
1514,-0.68,1644577265.46875,P01,D04,0,0,1
1515,-0.6,1644577265.484375,P01,D04,0,0,1
1516,-0.47,1644577265.5,P01,D04,0,0,1
1517,-0.35,1644577265.515625,P01,D04,0,0,1
1518,-0.3,1644577265.53125,P01,D04,0,0,1
1519,-0.3,1644577265.546875,P01,D04,0,0,1
1520,-0.32,1644577265.5625,P01,D04,0,0,1
1521,-0.27,1644577265.578125,P01,D04,0,0,1
1522,-0.08,1644577265.59375,P01,D04,0,0,1
1523,0.25,1644577265.609375,P01,D04,0,0,1
1524,0.65,1644577265.625,P01,D04,0,0,1
1525,0.97,1644577265.640625,P01,D04,0,0,1
1526,1.08,1644577265.65625,P01,D04,0,0,1
1527,0.97,1644577265.671875,P01,D04,0,0,1
1528,0.72,1644577265.6875,P01,D04,0,0,1
1529,0.47,1644577265.703125,P01,D04,0,0,1
1530,0.35,1644577265.71875,P01,D04,0,0,1
1531,0.37,1644577265.734375,P01,D04,0,0,1
1532,0.45,1644577265.75,P01,D04,0,0,1
1533,0.47,1644577265.765625,P01,D04,0,0,1
1534,0.31,1644577265.78125,P01,D04,0,0,1
1535,0.01,1644577265.796875,P01,D04,0,0,1
1536,-0.32,1644577265.8125,P01,D04,0,0,1
1537,-0.52,1644577265.828125,P01,D04,0,0,1
1538,-0.53,1644577265.84375,P01,D04,0,0,1
1539,-0.36,1644577265.859375,P01,D04,0,0,1
1540,-0.14,1644577265.875,P01,D04,0,0,1
1541,0.01,1644577265.890625,P01,D04,0,0,1
1542,0.03,1644577265.90625,P01,D04,0,0,1
1543,-0.07,1644577265.921875,P01,D04,0,0,1
1544,-0.21,1644577265.9375,P01,D04,0,0,1
1545,-0.35,1644577265.953125,P01,D04,0,0,1
1546,-0.48,1644577265.96875,P01,D04,0,0,1
1547,-0.63,1644577265.984375,P01,D04,0,0,1
1548,-0.79,1644577266.0,P01,D04,0,0,1
1549,-0.91,1644577266.015625,P01,D04,0,0,1
1550,-0.9,1644577266.03125,P01,D04,0,0,1
1551,-0.68,1644577266.046875,P01,D04,0,0,1
1552,-0.27,1644577266.0625,P01,D04,0,0,1
1553,0.2,1644577266.078125,P01,D04,0,0,1
1554,0.55,1644577266.09375,P01,D04,0,0,1
1555,0.63,1644577266.109375,P01,D04,0,0,1
1556,0.43,1644577266.125,P01,D04,0,0,1
1557,0.06,1644577266.140625,P01,D04,0,0,1
1558,-0.3,1644577266.15625,P01,D04,0,0,1
1559,-0.49,1644577266.171875,P01,D04,0,0,1
1560,-0.44,1644577266.1875,P01,D04,0,0,1
1561,-0.2,1644577266.203125,P01,D04,0,0,1
1562,0.15,1644577266.21875,P01,D04,0,0,1
1563,0.51,1644577266.234375,P01,D04,0,0,1
1564,0.82,1644577266.25,P01,D04,0,0,1
1565,1.04,1644577266.265625,P01,D04,0,0,1
1566,1.11,1644577266.28125,P01,D04,0,0,1
1567,1.04,1644577266.296875,P01,D04,0,0,1
1568,0.85,1644577266.3125,P01,D04,0,0,1
1569,0.59,1644577266.328125,P01,D04,0,0,1
1570,0.37,1644577266.34375,P01,D04,0,0,1
1571,0.25,1644577266.359375,P01,D04,0,0,1
1572,0.24,1644577266.375,P01,D04,0,0,1
1573,0.26,1644577266.390625,P01,D04,0,0,1
1574,0.23,1644577266.40625,P01,D04,0,0,1
1575,0.11,1644577266.421875,P01,D04,0,0,1
1576,-0.06,1644577266.4375,P01,D04,0,0,1
1577,-0.19,1644577266.453125,P01,D04,0,0,1
1578,-0.18,1644577266.46875,P01,D04,0,0,1
1579,0.0,1644577266.484375,P01,D04,0,0,1
1580,0.3,1644577266.5,P01,D04,0,0,1
1581,0.6,1644577266.515625,P01,D04,0,0,1
1582,0.78,1644577266.53125,P01,D04,0,0,1
1583,0.75,1644577266.546875,P01,D04,0,0,1
1584,0.54,1644577266.5625,P01,D04,0,0,1
1585,0.23,1644577266.578125,P01,D04,0,0,1
1586,-0.07,1644577266.59375,P01,D04,0,0,1
1587,-0.24,1644577266.609375,P01,D04,0,0,1
1588,-0.26,1644577266.625,P01,D04,0,0,1
1589,-0.15,1644577266.640625,P01,D04,0,0,1
1590,0.02,1644577266.65625,P01,D04,0,0,1
1591,0.16,1644577266.671875,P01,D04,0,0,1
1592,0.22,1644577266.6875,P01,D04,0,0,1
1593,0.18,1644577266.703125,P01,D04,0,0,1
1594,0.07,1644577266.71875,P01,D04,0,0,1
1595,-0.09,1644577266.734375,P01,D04,0,0,1
1596,-0.27,1644577266.75,P01,D04,0,0,1
1597,-0.45,1644577266.765625,P01,D04,0,0,1
1598,-0.63,1644577266.78125,P01,D04,0,0,1
1599,-0.79,1644577266.796875,P01,D04,0,0,1
1600,-0.91,1644577266.8125,P01,D04,0,0,1
1601,-1.02,1644577266.828125,P01,D04,0,0,1
1602,-1.16,1644577266.84375,P01,D04,0,0,1
1603,-1.36,1644577266.859375,P01,D04,0,0,1
1604,-1.6,1644577266.875,P01,D04,0,0,1
1605,-1.81,1644577266.890625,P01,D04,0,0,1
1606,-1.91,1644577266.90625,P01,D04,0,0,1
1607,-1.81,1644577266.921875,P01,D04,0,0,1
1608,-1.52,1644577266.9375,P01,D04,0,0,1
1609,-1.11,1644577266.953125,P01,D04,0,0,1
1610,-0.71,1644577266.96875,P01,D04,0,0,1
1611,-0.39,1644577266.984375,P01,D04,0,0,1
1612,-0.18,1644577267.0,P01,D04,0,0,1
1613,-0.08,1644577267.015625,P01,D04,0,0,1
1614,-0.04,1644577267.03125,P01,D04,0,0,1
1615,-0.06,1644577267.046875,P01,D04,0,0,1
1616,-0.13,1644577267.0625,P01,D04,0,0,1
1617,-0.28,1644577267.078125,P01,D04,0,0,1
1618,-0.44,1644577267.09375,P01,D04,0,0,1
1619,-0.54,1644577267.109375,P01,D04,0,0,1
1620,-0.49,1644577267.125,P01,D04,0,0,1
1621,-0.19,1644577267.140625,P01,D04,0,0,1
1622,0.32,1644577267.15625,P01,D04,0,0,1
1623,0.95,1644577267.171875,P01,D04,0,0,1
1624,1.53,1644577267.1875,P01,D04,0,0,1
1625,1.87,1644577267.203125,P01,D04,0,0,1
1626,1.89,1644577267.21875,P01,D04,0,0,1
1627,1.59,1644577267.234375,P01,D04,0,0,1
1628,1.09,1644577267.25,P01,D04,0,0,1
1629,0.55,1644577267.265625,P01,D04,0,0,1
1630,0.1,1644577267.28125,P01,D04,0,0,1
1631,-0.2,1644577267.296875,P01,D04,0,0,1
1632,-0.37,1644577267.3125,P01,D04,0,0,1
1633,-0.47,1644577267.328125,P01,D04,0,0,1
1634,-0.58,1644577267.34375,P01,D04,0,0,1
1635,-0.71,1644577267.359375,P01,D04,0,0,1
1636,-0.82,1644577267.375,P01,D04,0,0,1
1637,-0.87,1644577267.390625,P01,D04,0,0,1
1638,-0.83,1644577267.40625,P01,D04,0,0,1
1639,-0.68,1644577267.421875,P01,D04,0,0,1
1640,-0.47,1644577267.4375,P01,D04,0,0,1
1641,-0.25,1644577267.453125,P01,D04,0,0,1
1642,-0.06,1644577267.46875,P01,D04,0,0,1
1643,0.05,1644577267.484375,P01,D04,0,0,1
1644,0.11,1644577267.5,P01,D04,0,0,1
1645,0.13,1644577267.515625,P01,D04,0,0,1
1646,0.16,1644577267.53125,P01,D04,0,0,1
1647,0.2,1644577267.546875,P01,D04,0,0,1
1648,0.24,1644577267.5625,P01,D04,0,0,1
1649,0.23,1644577267.578125,P01,D04,0,0,1
1650,0.14,1644577267.59375,P01,D04,0,0,1
1651,0.03,1644577267.609375,P01,D04,0,0,1
1652,-0.04,1644577267.625,P01,D04,0,0,1
1653,0.01,1644577267.640625,P01,D04,0,0,1
1654,0.21,1644577267.65625,P01,D04,0,0,1
1655,0.48,1644577267.671875,P01,D04,0,0,1
1656,0.67,1644577267.6875,P01,D04,0,0,1
1657,0.69,1644577267.703125,P01,D04,0,0,1
1658,0.53,1644577267.71875,P01,D04,0,0,1
1659,0.3,1644577267.734375,P01,D04,0,0,1
1660,0.14,1644577267.75,P01,D04,0,0,1
1661,0.15,1644577267.765625,P01,D04,0,0,1
1662,0.31,1644577267.78125,P01,D04,0,0,1
1663,0.52,1644577267.796875,P01,D04,0,0,1
1664,0.67,1644577267.8125,P01,D04,0,0,1
1665,0.67,1644577267.828125,P01,D04,0,0,1
1666,0.54,1644577267.84375,P01,D04,0,0,1
1667,0.39,1644577267.859375,P01,D04,0,0,1
1668,0.28,1644577267.875,P01,D04,0,0,1
1669,0.28,1644577267.890625,P01,D04,0,0,1
1670,0.33,1644577267.90625,P01,D04,0,0,1
1671,0.35,1644577267.921875,P01,D04,0,0,1
1672,0.27,1644577267.9375,P01,D04,0,0,1
1673,0.08,1644577267.953125,P01,D04,0,0,1
1674,-0.17,1644577267.96875,P01,D04,0,0,1
1675,-0.39,1644577267.984375,P01,D04,0,0,1
1676,-0.51,1644577268.0,P01,D04,0,0,1
1677,-0.53,1644577268.015625,P01,D04,0,0,1
1678,-0.49,1644577268.03125,P01,D04,0,0,1
1679,-0.47,1644577268.046875,P01,D04,0,0,1
1680,-0.5,1644577268.0625,P01,D04,0,0,1
1681,-0.55,1644577268.078125,P01,D04,0,0,1
1682,-0.53,1644577268.09375,P01,D04,0,0,1
1683,-0.39,1644577268.109375,P01,D04,0,0,1
1684,-0.12,1644577268.125,P01,D04,0,0,1
1685,0.25,1644577268.140625,P01,D04,0,0,1
1686,0.6,1644577268.15625,P01,D04,0,0,1
1687,0.86,1644577268.171875,P01,D04,0,0,1
1688,0.98,1644577268.1875,P01,D04,0,0,1
1689,0.96,1644577268.203125,P01,D04,0,0,1
1690,0.83,1644577268.21875,P01,D04,0,0,1
1691,0.63,1644577268.234375,P01,D04,0,0,1
1692,0.4,1644577268.25,P01,D04,0,0,1
1693,0.17,1644577268.265625,P01,D04,0,0,1
1694,-0.02,1644577268.28125,P01,D04,0,0,1
1695,-0.17,1644577268.296875,P01,D04,0,0,1
1696,-0.25,1644577268.3125,P01,D04,0,0,1
1697,-0.28,1644577268.328125,P01,D04,0,0,1
1698,-0.29,1644577268.34375,P01,D04,0,0,1
1699,-0.3,1644577268.359375,P01,D04,0,0,1
1700,-0.32,1644577268.375,P01,D04,0,0,1
1701,-0.36,1644577268.390625,P01,D04,0,0,1
1702,-0.4,1644577268.40625,P01,D04,0,0,1
1703,-0.45,1644577268.421875,P01,D04,0,0,1
1704,-0.47,1644577268.4375,P01,D04,0,0,1
1705,-0.47,1644577268.453125,P01,D04,0,0,1
1706,-0.42,1644577268.46875,P01,D04,0,0,1
1707,-0.33,1644577268.484375,P01,D04,0,0,1
1708,-0.2,1644577268.5,P01,D04,0,0,1
1709,-0.06,1644577268.515625,P01,D04,0,0,1
1710,0.09,1644577268.53125,P01,D04,0,0,1
1711,0.23,1644577268.546875,P01,D04,0,0,1
1712,0.35,1644577268.5625,P01,D04,0,0,1
1713,0.43,1644577268.578125,P01,D04,0,0,1
1714,0.47,1644577268.59375,P01,D04,0,0,1
1715,0.45,1644577268.609375,P01,D04,0,0,1
1716,0.38,1644577268.625,P01,D04,0,0,1
1717,0.29,1644577268.640625,P01,D04,0,0,1
1718,0.19,1644577268.65625,P01,D04,0,0,1
1719,0.09,1644577268.671875,P01,D04,0,0,1
1720,-0.03,1644577268.6875,P01,D04,0,0,1
1721,-0.19,1644577268.703125,P01,D04,0,0,1
1722,-0.4,1644577268.71875,P01,D04,0,0,1
1723,-0.63,1644577268.734375,P01,D04,0,0,1
1724,-0.84,1644577268.75,P01,D04,0,0,1
1725,-0.93,1644577268.765625,P01,D04,0,0,1
1726,-0.87,1644577268.78125,P01,D04,0,0,1
1727,-0.64,1644577268.796875,P01,D04,0,0,1
1728,-0.28,1644577268.8125,P01,D04,0,0,1
1729,0.12,1644577268.828125,P01,D04,0,0,1
1730,0.49,1644577268.84375,P01,D04,0,0,1
1731,0.77,1644577268.859375,P01,D04,0,0,1
1732,0.95,1644577268.875,P01,D04,0,0,1
1733,1.06,1644577268.890625,P01,D04,0,0,1
1734,1.17,1644577268.90625,P01,D04,0,0,1
1735,1.29,1644577268.921875,P01,D04,0,0,1
1736,1.43,1644577268.9375,P01,D04,0,0,1
1737,1.54,1644577268.953125,P01,D04,0,0,1
1738,1.57,1644577268.96875,P01,D04,0,0,1
1739,1.5,1644577268.984375,P01,D04,0,0,1
1740,1.32,1644577269.0,P01,D04,0,0,1
1741,1.08,1644577269.015625,P01,D04,0,0,1
1742,0.83,1644577269.03125,P01,D04,0,0,1
1743,0.57,1644577269.046875,P01,D04,0,0,1
1744,0.28,1644577269.0625,P01,D04,0,0,1
1745,-0.06,1644577269.078125,P01,D04,0,0,1
1746,-0.43,1644577269.09375,P01,D04,0,0,1
1747,-0.8,1644577269.109375,P01,D04,0,0,1
1748,-1.07,1644577269.125,P01,D04,0,0,1
1749,-1.2,1644577269.140625,P01,D04,0,0,1
1750,-1.19,1644577269.15625,P01,D04,0,0,1
1751,-1.08,1644577269.171875,P01,D04,0,0,1
1752,-0.93,1644577269.1875,P01,D04,0,0,1
1753,-0.77,1644577269.203125,P01,D04,0,0,1
1754,-0.59,1644577269.21875,P01,D04,0,0,1
1755,-0.39,1644577269.234375,P01,D04,0,0,1
1756,-0.17,1644577269.25,P01,D04,0,0,1
1757,0.02,1644577269.265625,P01,D04,0,0,1
1758,0.14,1644577269.28125,P01,D04,0,0,1
1759,0.2,1644577269.296875,P01,D04,0,0,1
1760,0.26,1644577269.3125,P01,D04,0,0,1
1761,0.4,1644577269.328125,P01,D04,0,0,1
1762,0.65,1644577269.34375,P01,D04,0,0,1
1763,0.94,1644577269.359375,P01,D04,0,0,1
1764,1.11,1644577269.375,P01,D04,0,0,1
1765,1.03,1644577269.390625,P01,D04,0,0,1
1766,0.61,1644577269.40625,P01,D04,0,0,1
1767,-0.04,1644577269.421875,P01,D04,0,0,1
1768,-0.72,1644577269.4375,P01,D04,0,0,1
1769,-1.18,1644577269.453125,P01,D04,0,0,1
1770,-1.29,1644577269.46875,P01,D04,0,0,1
1771,-1.06,1644577269.484375,P01,D04,0,0,1
1772,-0.63,1644577269.5,P01,D04,0,0,1
1773,-0.22,1644577269.515625,P01,D04,0,0,1
1774,0.01,1644577269.53125,P01,D04,0,0,1
1775,0.03,1644577269.546875,P01,D04,0,0,1
1776,-0.08,1644577269.5625,P01,D04,0,0,1
1777,-0.19,1644577269.578125,P01,D04,0,0,1
1778,-0.19,1644577269.59375,P01,D04,0,0,1
1779,-0.06,1644577269.609375,P01,D04,0,0,1
1780,0.14,1644577269.625,P01,D04,0,0,1
1781,0.32,1644577269.640625,P01,D04,0,0,1
1782,0.38,1644577269.65625,P01,D04,0,0,1
1783,0.29,1644577269.671875,P01,D04,0,0,1
1784,0.08,1644577269.6875,P01,D04,0,0,1
1785,-0.2,1644577269.703125,P01,D04,0,0,1
1786,-0.48,1644577269.71875,P01,D04,0,0,1
1787,-0.71,1644577269.734375,P01,D04,0,0,1
1788,-0.84,1644577269.75,P01,D04,0,0,1
1789,-0.87,1644577269.765625,P01,D04,0,0,1
1790,-0.82,1644577269.78125,P01,D04,0,0,1
1791,-0.73,1644577269.796875,P01,D04,0,0,1
1792,-0.63,1644577269.8125,P01,D04,0,0,1
1793,-0.53,1644577269.828125,P01,D04,0,0,1
1794,-0.45,1644577269.84375,P01,D04,0,0,1
1795,-0.41,1644577269.859375,P01,D04,0,0,1
1796,-0.44,1644577269.875,P01,D04,0,0,1
1797,-0.58,1644577269.890625,P01,D04,0,0,1
1798,-0.82,1644577269.90625,P01,D04,0,0,1
1799,-1.1,1644577269.921875,P01,D04,0,0,1
1800,-1.35,1644577269.9375,P01,D04,0,0,1
1801,-1.46,1644577269.953125,P01,D04,0,0,1
1802,-1.4,1644577269.96875,P01,D04,0,0,1
1803,-1.16,1644577269.984375,P01,D04,0,0,1
1804,-0.82,1644577270.0,P01,D04,0,0,1
1805,-0.44,1644577270.015625,P01,D04,0,0,1
1806,-0.04,1644577270.03125,P01,D04,0,0,1
1807,0.38,1644577270.046875,P01,D04,0,0,1
1808,0.8,1644577270.0625,P01,D04,0,0,1
1809,1.19,1644577270.078125,P01,D04,0,0,1
1810,1.44,1644577270.09375,P01,D04,0,0,1
1811,1.48,1644577270.109375,P01,D04,0,0,1
1812,1.27,1644577270.125,P01,D04,0,0,1
1813,0.87,1644577270.140625,P01,D04,0,0,1
1814,0.44,1644577270.15625,P01,D04,0,0,1
1815,0.13,1644577270.171875,P01,D04,0,0,1
1816,0.04,1644577270.1875,P01,D04,0,0,1
1817,0.15,1644577270.203125,P01,D04,0,0,1
1818,0.38,1644577270.21875,P01,D04,0,0,1
1819,0.6,1644577270.234375,P01,D04,0,0,1
1820,0.7,1644577270.25,P01,D04,0,0,1
1821,0.66,1644577270.265625,P01,D04,0,0,1
1822,0.5,1644577270.28125,P01,D04,0,0,1
1823,0.3,1644577270.296875,P01,D04,0,0,1
1824,0.14,1644577270.3125,P01,D04,0,0,1
1825,0.04,1644577270.328125,P01,D04,0,0,1
1826,0.01,1644577270.34375,P01,D04,0,0,1
1827,0.03,1644577270.359375,P01,D04,0,0,1
1828,0.05,1644577270.375,P01,D04,0,0,1
1829,0.08,1644577270.390625,P01,D04,0,0,1
1830,0.1,1644577270.40625,P01,D04,0,0,1
1831,0.1,1644577270.421875,P01,D04,0,0,1
1832,0.06,1644577270.4375,P01,D04,0,0,1
1833,-0.02,1644577270.453125,P01,D04,0,0,1
1834,-0.14,1644577270.46875,P01,D04,0,0,1
1835,-0.25,1644577270.484375,P01,D04,0,0,1
1836,-0.29,1644577270.5,P01,D04,0,0,1
1837,-0.21,1644577270.515625,P01,D04,0,0,1
1838,-0.03,1644577270.53125,P01,D04,0,0,1
1839,0.18,1644577270.546875,P01,D04,0,0,1
1840,0.33,1644577270.5625,P01,D04,0,0,1
1841,0.33,1644577270.578125,P01,D04,0,0,1
1842,0.16,1644577270.59375,P01,D04,0,0,1
1843,-0.12,1644577270.609375,P01,D04,0,0,1
1844,-0.43,1644577270.625,P01,D04,0,0,1
1845,-0.68,1644577270.640625,P01,D04,0,0,1
1846,-0.81,1644577270.65625,P01,D04,0,0,1
1847,-0.81,1644577270.671875,P01,D04,0,0,1
1848,-0.72,1644577270.6875,P01,D04,0,0,1
1849,-0.57,1644577270.703125,P01,D04,0,0,1
1850,-0.41,1644577270.71875,P01,D04,0,0,1
1851,-0.25,1644577270.734375,P01,D04,0,0,1
1852,-0.13,1644577270.75,P01,D04,0,0,1
1853,-0.07,1644577270.765625,P01,D04,0,0,1
1854,-0.06,1644577270.78125,P01,D04,0,0,1
1855,-0.07,1644577270.796875,P01,D04,0,0,1
1856,-0.03,1644577270.8125,P01,D04,0,0,1
1857,0.12,1644577270.828125,P01,D04,0,0,1
1858,0.4,1644577270.84375,P01,D04,0,0,1
1859,0.74,1644577270.859375,P01,D04,0,0,1
1860,1.03,1644577270.875,P01,D04,0,0,1
1861,1.1,1644577270.890625,P01,D04,0,0,1
1862,0.86,1644577270.90625,P01,D04,0,0,1
1863,0.36,1644577270.921875,P01,D04,0,0,1
1864,-0.28,1644577270.9375,P01,D04,0,0,1
1865,-0.86,1644577270.953125,P01,D04,0,0,1
1866,-1.21,1644577270.96875,P01,D04,0,0,1
1867,-1.28,1644577270.984375,P01,D04,0,0,1
1868,-1.08,1644577271.0,P01,D04,0,0,1
1869,-0.71,1644577271.015625,P01,D04,0,0,1
1870,-0.26,1644577271.03125,P01,D04,0,0,1
1871,0.18,1644577271.046875,P01,D04,0,0,1
1872,0.56,1644577271.0625,P01,D04,0,0,1
1873,0.82,1644577271.078125,P01,D04,0,0,1
1874,0.93,1644577271.09375,P01,D04,0,0,1
1875,0.88,1644577271.109375,P01,D04,0,0,1
1876,0.73,1644577271.125,P01,D04,0,0,1
1877,0.56,1644577271.140625,P01,D04,0,0,1
1878,0.43,1644577271.15625,P01,D04,0,0,1
1879,0.36,1644577271.171875,P01,D04,0,0,1
1880,0.33,1644577271.1875,P01,D04,0,0,1
1881,0.3,1644577271.203125,P01,D04,0,0,1
1882,0.23,1644577271.21875,P01,D04,0,0,1
1883,0.14,1644577271.234375,P01,D04,0,0,1
1884,0.06,1644577271.25,P01,D04,0,0,1
1885,0.03,1644577271.265625,P01,D04,0,0,1
1886,0.01,1644577271.28125,P01,D04,0,0,1
1887,-0.03,1644577271.296875,P01,D04,0,0,1
1888,-0.13,1644577271.3125,P01,D04,0,0,1
1889,-0.25,1644577271.328125,P01,D04,0,0,1
1890,-0.35,1644577271.34375,P01,D04,0,0,1
1891,-0.33,1644577271.359375,P01,D04,0,0,1
1892,-0.18,1644577271.375,P01,D04,0,0,1
1893,0.09,1644577271.390625,P01,D04,0,0,1
1894,0.38,1644577271.40625,P01,D04,0,0,1
1895,0.6,1644577271.421875,P01,D04,0,0,1
1896,0.67,1644577271.4375,P01,D04,0,0,1
1897,0.59,1644577271.453125,P01,D04,0,0,1
1898,0.42,1644577271.46875,P01,D04,0,0,1
1899,0.24,1644577271.484375,P01,D04,0,0,1
1900,0.14,1644577271.5,P01,D04,0,0,1
1901,0.21,1644577271.515625,P01,D04,0,0,1
1902,0.43,1644577271.53125,P01,D04,0,0,1
1903,0.72,1644577271.546875,P01,D04,0,0,1
1904,0.96,1644577271.5625,P01,D04,0,0,1
1905,1.04,1644577271.578125,P01,D04,0,0,1
1906,0.92,1644577271.59375,P01,D04,0,0,1
1907,0.67,1644577271.609375,P01,D04,0,0,1
1908,0.43,1644577271.625,P01,D04,0,0,1
1909,0.32,1644577271.640625,P01,D04,0,0,1
1910,0.39,1644577271.65625,P01,D04,0,0,1
1911,0.58,1644577271.671875,P01,D04,0,0,1
1912,0.72,1644577271.6875,P01,D04,0,0,1
1913,0.69,1644577271.703125,P01,D04,0,0,1
1914,0.44,1644577271.71875,P01,D04,0,0,1
1915,0.04,1644577271.734375,P01,D04,0,0,1
1916,-0.33,1644577271.75,P01,D04,0,0,1
1917,-0.52,1644577271.765625,P01,D04,0,0,1
1918,-0.45,1644577271.78125,P01,D04,0,0,1
1919,-0.17,1644577271.796875,P01,D04,0,0,1
1920,0.17,1644577271.8125,P01,D04,0,0,1
1921,0.4,1644577271.828125,P01,D04,0,0,1
1922,0.4,1644577271.84375,P01,D04,0,0,1
1923,0.18,1644577271.859375,P01,D04,0,0,1
1924,-0.16,1644577271.875,P01,D04,0,0,1
1925,-0.49,1644577271.890625,P01,D04,0,0,1
1926,-0.71,1644577271.90625,P01,D04,0,0,1
1927,-0.78,1644577271.921875,P01,D04,0,0,1
1928,-0.76,1644577271.9375,P01,D04,0,0,1
1929,-0.69,1644577271.953125,P01,D04,0,0,1
1930,-0.61,1644577271.96875,P01,D04,0,0,1
1931,-0.49,1644577271.984375,P01,D04,0,0,1
1932,-0.3,1644577272.0,P01,D04,0,0,1
1933,-0.02,1644577272.015625,P01,D04,0,0,1
1934,0.3,1644577272.03125,P01,D04,0,0,1
1935,0.54,1644577272.046875,P01,D04,0,0,1
1936,0.59,1644577272.0625,P01,D04,0,0,1
1937,0.43,1644577272.078125,P01,D04,0,0,1
1938,0.14,1644577272.09375,P01,D04,0,0,1
1939,-0.16,1644577272.109375,P01,D04,0,0,1
1940,-0.33,1644577272.125,P01,D04,0,0,1
1941,-0.32,1644577272.140625,P01,D04,0,0,1
1942,-0.18,1644577272.15625,P01,D04,0,0,1
1943,0.0,1644577272.171875,P01,D04,0,0,1
1944,0.16,1644577272.1875,P01,D04,0,0,1
1945,0.27,1644577272.203125,P01,D04,0,0,1
1946,0.38,1644577272.21875,P01,D04,0,0,1
1947,0.52,1644577272.234375,P01,D04,0,0,1
1948,0.68,1644577272.25,P01,D04,0,0,1
1949,0.78,1644577272.265625,P01,D04,0,0,1
1950,0.77,1644577272.28125,P01,D04,0,0,1
1951,0.62,1644577272.296875,P01,D04,0,0,1
1952,0.38,1644577272.3125,P01,D04,0,0,1
1953,0.15,1644577272.328125,P01,D04,0,0,1
1954,0.03,1644577272.34375,P01,D04,0,0,1
1955,0.02,1644577272.359375,P01,D04,0,0,1
1956,0.08,1644577272.375,P01,D04,0,0,1
1957,0.1,1644577272.390625,P01,D04,0,0,1
1958,0.01,1644577272.40625,P01,D04,0,0,1
1959,-0.17,1644577272.421875,P01,D04,0,0,1
1960,-0.38,1644577272.4375,P01,D04,0,0,1
1961,-0.52,1644577272.453125,P01,D04,0,0,1
1962,-0.54,1644577272.46875,P01,D04,0,0,1
1963,-0.44,1644577272.484375,P01,D04,0,0,1
1964,-0.28,1644577272.5,P01,D04,0,0,1
1965,-0.13,1644577272.515625,P01,D04,0,0,1
1966,-0.04,1644577272.53125,P01,D04,0,0,1
1967,-0.06,1644577272.546875,P01,D04,0,0,1
1968,-0.17,1644577272.5625,P01,D04,0,0,1
1969,-0.37,1644577272.578125,P01,D04,0,0,1
1970,-0.63,1644577272.59375,P01,D04,0,0,1
1971,-0.9,1644577272.609375,P01,D04,0,0,1
1972,-1.11,1644577272.625,P01,D04,0,0,1
1973,-1.19,1644577272.640625,P01,D04,0,0,1
1974,-1.11,1644577272.65625,P01,D04,0,0,1
1975,-0.89,1644577272.671875,P01,D04,0,0,1
1976,-0.59,1644577272.6875,P01,D04,0,0,1
1977,-0.32,1644577272.703125,P01,D04,0,0,1
1978,-0.15,1644577272.71875,P01,D04,0,0,1
1979,-0.14,1644577272.734375,P01,D04,0,0,1
1980,-0.27,1644577272.75,P01,D04,0,0,1
1981,-0.52,1644577272.765625,P01,D04,0,0,1
1982,-0.84,1644577272.78125,P01,D04,0,0,1
1983,-1.2,1644577272.796875,P01,D04,0,0,1
1984,-1.58,1644577272.8125,P01,D04,0,0,1
1985,-1.97,1644577272.828125,P01,D04,0,0,1
1986,-2.34,1644577272.84375,P01,D04,0,0,1
1987,-2.66,1644577272.859375,P01,D04,0,0,1
1988,-2.91,1644577272.875,P01,D04,0,0,1
1989,-3.16,1644577272.890625,P01,D04,0,0,1
1990,-3.52,1644577272.90625,P01,D04,0,0,1
1991,-4.09,1644577272.921875,P01,D04,0,0,1
1992,-4.9,1644577272.9375,P01,D04,0,0,1
1993,-5.87,1644577272.953125,P01,D04,0,0,1
1994,-6.81,1644577272.96875,P01,D04,0,0,1
1995,-7.53,1644577272.984375,P01,D04,0,0,1
1996,-7.91,1644577273.0,P01,D04,0,0,1
1997,-8.02,1644577273.015625,P01,D04,0,0,1
1998,-8.1,1644577273.03125,P01,D04,0,0,1
1999,-8.4,1644577273.046875,P01,D04,0,0,1
2000,-9.15,1644577273.0625,P01,D04,0,0,1
2001,-10.43,1644577273.078125,P01,D04,0,0,1
2002,-12.19,1644577273.09375,P01,D04,0,0,1
2003,-14.29,1644577273.109375,P01,D04,0,0,1
2004,-16.62,1644577273.125,P01,D04,0,0,1
2005,-19.12,1644577273.140625,P01,D04,0,0,1
2006,-21.78,1644577273.15625,P01,D04,0,0,1
2007,-24.62,1644577273.171875,P01,D04,0,0,1
2008,-27.65,1644577273.1875,P01,D04,0,0,1
2009,-30.85,1644577273.203125,P01,D04,0,0,1
2010,-34.16,1644577273.21875,P01,D04,0,0,1
2011,-37.47,1644577273.234375,P01,D04,0,0,1
2012,-40.66,1644577273.25,P01,D04,0,0,1
2013,-43.65,1644577273.265625,P01,D04,0,0,1
2014,-46.41,1644577273.28125,P01,D04,0,0,1
2015,-49.01,1644577273.296875,P01,D04,0,0,1
2016,-51.62,1644577273.3125,P01,D04,0,0,1
2017,-54.39,1644577273.328125,P01,D04,0,0,1
2018,-57.43,1644577273.34375,P01,D04,0,0,1
2019,-60.75,1644577273.359375,P01,D04,0,0,1
2020,-64.3,1644577273.375,P01,D04,0,0,1
2021,-68.02,1644577273.390625,P01,D04,0,0,1
2022,-71.85,1644577273.40625,P01,D04,0,0,1
2023,-75.75,1644577273.421875,P01,D04,0,0,1
2024,-79.61,1644577273.4375,P01,D04,0,0,1
2025,-83.33,1644577273.453125,P01,D04,0,0,1
2026,-86.88,1644577273.46875,P01,D04,0,0,1
2027,-90.46,1644577273.484375,P01,D04,0,0,1
2028,-94.42,1644577273.5,P01,D04,0,0,1
2029,-99.12,1644577273.515625,P01,D04,0,0,1
2030,-104.6,1644577273.53125,P01,D04,0,0,1
2031,-110.49,1644577273.546875,P01,D04,0,0,1
2032,-116.06,1644577273.5625,P01,D04,0,0,1
2033,-120.65,1644577273.578125,P01,D04,0,0,1
2034,-124.16,1644577273.59375,P01,D04,0,0,1
2035,-127.16,1644577273.609375,P01,D04,0,0,1
2036,-130.49,1644577273.625,P01,D04,0,0,1
2037,-134.36,1644577273.640625,P01,D04,0,0,1
2038,-137.75,1644577273.65625,P01,D04,0,0,1
2039,-138.42,1644577273.671875,P01,D04,0,0,1
2040,-133.68,1644577273.6875,P01,D04,0,0,1
2041,-121.41,1644577273.703125,P01,D04,0,0,1
2042,-100.81,1644577273.71875,P01,D04,0,0,1
2043,-72.47,1644577273.734375,P01,D04,0,0,1
2044,-38.02,1644577273.75,P01,D04,0,0,1
2045,0.31,1644577273.765625,P01,D04,0,0,1
2046,39.85,1644577273.78125,P01,D04,0,0,1
2047,77.5,1644577273.796875,P01,D04,0,0,1
2048,109.91,1644577273.8125,P01,D04,0,0,1
2049,134.25,1644577273.828125,P01,D04,0,0,1
2050,149.16,1644577273.84375,P01,D04,0,0,1
2051,155.46,1644577273.859375,P01,D04,0,0,1
2052,155.94,1644577273.875,P01,D04,0,0,1
2053,154.17,1644577273.890625,P01,D04,0,0,1
2054,152.93,1644577273.90625,P01,D04,0,0,1
2055,153.15,1644577273.921875,P01,D04,0,0,1
2056,153.94,1644577273.9375,P01,D04,0,0,1
2057,153.62,1644577273.953125,P01,D04,0,0,1
2058,150.98,1644577273.96875,P01,D04,0,0,1
2059,145.98,1644577273.984375,P01,D04,0,0,1
2060,139.52,1644577274.0,P01,D04,0,0,1
2061,132.7,1644577274.015625,P01,D04,0,0,1
2062,126.16,1644577274.03125,P01,D04,0,0,1
2063,119.76,1644577274.046875,P01,D04,0,0,1
2064,112.98,1644577274.0625,P01,D04,0,0,1
2065,105.46,1644577274.078125,P01,D04,0,0,1
2066,97.33,1644577274.09375,P01,D04,0,0,1
2067,89.21,1644577274.109375,P01,D04,0,0,1
2068,81.87,1644577274.125,P01,D04,0,0,1
2069,75.72,1644577274.140625,P01,D04,0,0,1
2070,70.67,1644577274.15625,P01,D04,0,0,1
2071,66.23,1644577274.171875,P01,D04,0,0,1
2072,61.83,1644577274.1875,P01,D04,0,0,1
2073,57.14,1644577274.203125,P01,D04,0,0,1
2074,52.3,1644577274.21875,P01,D04,0,0,1
2075,47.81,1644577274.234375,P01,D04,0,0,1
2076,44.23,1644577274.25,P01,D04,0,0,1
2077,41.92,1644577274.265625,P01,D04,0,0,1
2078,40.87,1644577274.28125,P01,D04,0,0,1
2079,40.71,1644577274.296875,P01,D04,0,0,1
2080,40.95,1644577274.3125,P01,D04,0,0,1
2081,41.23,1644577274.328125,P01,D04,0,0,1
2082,41.45,1644577274.34375,P01,D04,0,0,1
2083,41.84,1644577274.359375,P01,D04,0,0,1
2084,42.72,1644577274.375,P01,D04,0,0,1
2085,44.34,1644577274.390625,P01,D04,0,0,1
2086,46.65,1644577274.40625,P01,D04,0,0,1
2087,49.34,1644577274.421875,P01,D04,0,0,1
2088,52.01,1644577274.4375,P01,D04,0,0,1
2089,54.4,1644577274.453125,P01,D04,0,0,1
2090,56.56,1644577274.46875,P01,D04,0,0,1
2091,58.89,1644577274.484375,P01,D04,0,0,1
2092,61.91,1644577274.5,P01,D04,0,0,1
2093,66.02,1644577274.515625,P01,D04,0,0,1
2094,71.22,1644577274.53125,P01,D04,0,0,1
2095,77.18,1644577274.546875,P01,D04,0,0,1
2096,83.4,1644577274.5625,P01,D04,0,0,1
2097,89.51,1644577274.578125,P01,D04,0,0,1
2098,95.53,1644577274.59375,P01,D04,0,0,1
2099,101.82,1644577274.609375,P01,D04,0,0,1
2100,108.94,1644577274.625,P01,D04,0,0,1
2101,117.36,1644577274.640625,P01,D04,0,0,1
2102,127.41,1644577274.65625,P01,D04,0,0,1
2103,139.34,1644577274.671875,P01,D04,0,0,1
2104,153.21,1644577274.6875,P01,D04,0,0,1
2105,168.74,1644577274.703125,P01,D04,0,0,1
2106,184.75,1644577274.71875,P01,D04,0,0,1
2107,198.9,1644577274.734375,P01,D04,0,0,1
2108,207.86,1644577274.75,P01,D04,0,0,1
2109,208.18,1644577274.765625,P01,D04,0,0,1
2110,197.48,1644577274.78125,P01,D04,0,0,1
2111,175.4,1644577274.796875,P01,D04,0,0,1
2112,143.62,1644577274.8125,P01,D04,0,0,1
2113,104.98,1644577274.828125,P01,D04,0,0,1
2114,62.14,1644577274.84375,P01,D04,0,0,1
2115,16.77,1644577274.859375,P01,D04,0,0,1
2116,-30.26,1644577274.875,P01,D04,0,0,1
2117,-77.83,1644577274.890625,P01,D04,0,0,1
2118,-123.57,1644577274.90625,P01,D04,0,0,1
2119,-163.81,1644577274.921875,P01,D04,0,0,1
2120,-194.63,1644577274.9375,P01,D04,0,0,1
2121,-213.56,1644577274.953125,P01,D04,0,0,1
2122,-220.75,1644577274.96875,P01,D04,0,0,1
2123,-218.88,1644577274.984375,P01,D04,0,0,1
2124,-211.9,1644577275.0,P01,D04,0,0,1
2125,-203.28,1644577275.015625,P01,D04,0,0,1
2126,-194.91,1644577275.03125,P01,D04,0,0,1
2127,-187.13,1644577275.046875,P01,D04,0,0,1
2128,-179.57,1644577275.0625,P01,D04,0,0,1
2129,-172.2,1644577275.078125,P01,D04,0,0,1
2130,-165.73,1644577275.09375,P01,D04,0,0,1
2131,-161.27,1644577275.109375,P01,D04,0,0,1
2132,-159.41,1644577275.125,P01,D04,0,0,1
2133,-159.77,1644577275.140625,P01,D04,0,0,1
2134,-160.94,1644577275.15625,P01,D04,0,0,1
2135,-161.25,1644577275.171875,P01,D04,0,0,1
2136,-159.59,1644577275.1875,P01,D04,0,0,1
2137,-155.89,1644577275.203125,P01,D04,0,0,1
2138,-151.06,1644577275.21875,P01,D04,0,0,1
2139,-146.42,1644577275.234375,P01,D04,0,0,1
2140,-142.96,1644577275.25,P01,D04,0,0,1
2141,-140.92,1644577275.265625,P01,D04,0,0,1
2142,-139.83,1644577275.28125,P01,D04,0,0,1
2143,-138.85,1644577275.296875,P01,D04,0,0,1
2144,-137.39,1644577275.3125,P01,D04,0,0,1
2145,-135.35,1644577275.328125,P01,D04,0,0,1
2146,-133.25,1644577275.34375,P01,D04,0,0,1
2147,-131.97,1644577275.359375,P01,D04,0,0,1
2148,-132.37,1644577275.375,P01,D04,0,0,1
2149,-134.78,1644577275.390625,P01,D04,0,0,1
2150,-138.52,1644577275.40625,P01,D04,0,0,1
2151,-141.7,1644577275.421875,P01,D04,0,0,1
2152,-141.44,1644577275.4375,P01,D04,0,0,1
2153,-134.44,1644577275.453125,P01,D04,0,0,1
2154,-117.99,1644577275.46875,P01,D04,0,0,1
2155,-90.76,1644577275.484375,P01,D04,0,0,1
2156,-53.12,1644577275.5,P01,D04,0,0,1
2157,-7.0,1644577275.515625,P01,D04,0,0,1
2158,44.53,1644577275.53125,P01,D04,0,0,1
2159,97.95,1644577275.546875,P01,D04,0,0,1
2160,149.85,1644577275.5625,P01,D04,0,0,1
2161,197.49,1644577275.578125,P01,D04,0,0,1
2162,239.29,1644577275.59375,P01,D04,0,0,1
2163,274.98,1644577275.609375,P01,D04,0,0,1
2164,305.45,1644577275.625,P01,D04,0,0,1
2165,331.89,1644577275.640625,P01,D04,0,0,1
2166,354.78,1644577275.65625,P01,D04,0,0,1
2167,373.02,1644577275.671875,P01,D04,0,0,1
2168,383.97,1644577275.6875,P01,D04,0,0,1
2169,384.41,1644577275.703125,P01,D04,0,0,1
2170,371.99,1644577275.71875,P01,D04,0,0,1
2171,346.48,1644577275.734375,P01,D04,0,0,1
2172,309.79,1644577275.75,P01,D04,0,0,1
2173,264.98,1644577275.765625,P01,D04,0,0,1
2174,214.84,1644577275.78125,P01,D04,0,0,1
2175,161.17,1644577275.796875,P01,D04,0,0,1
2176,105.18,1644577275.8125,P01,D04,0,0,1
2177,48.67,1644577275.828125,P01,D04,0,0,1
2178,-5.1,1644577275.84375,P01,D04,0,0,1
2179,-51.65,1644577275.859375,P01,D04,0,0,1
2180,-86.73,1644577275.875,P01,D04,0,0,1
2181,-108.12,1644577275.890625,P01,D04,0,0,1
2182,-116.74,1644577275.90625,P01,D04,0,0,1
2183,-116.28,1644577275.921875,P01,D04,0,0,1
2184,-111.63,1644577275.9375,P01,D04,0,0,1
2185,-106.71,1644577275.953125,P01,D04,0,0,1
2186,-103.26,1644577275.96875,P01,D04,0,0,1
2187,-100.84,1644577275.984375,P01,D04,0,0,1
2188,-97.98,1644577276.0,P01,D04,0,0,1
2189,-93.52,1644577276.015625,P01,D04,0,0,1
2190,-87.43,1644577276.03125,P01,D04,0,0,1
2191,-80.71,1644577276.046875,P01,D04,0,0,1
2192,-74.69,1644577276.0625,P01,D04,0,0,1
2193,-70.19,1644577276.078125,P01,D04,0,0,1
2194,-67.22,1644577276.09375,P01,D04,0,0,1
2195,-65.18,1644577276.109375,P01,D04,0,0,1
2196,-63.3,1644577276.125,P01,D04,0,0,1
2197,-61.08,1644577276.140625,P01,D04,0,0,1
2198,-58.42,1644577276.15625,P01,D04,0,0,1
2199,-55.62,1644577276.171875,P01,D04,0,0,1
2200,-53.1,1644577276.1875,P01,D04,0,0,1
2201,-51.15,1644577276.203125,P01,D04,0,0,1
2202,-49.78,1644577276.21875,P01,D04,0,0,1
2203,-48.69,1644577276.234375,P01,D04,0,0,1
2204,-47.44,1644577276.25,P01,D04,0,0,1
2205,-45.61,1644577276.265625,P01,D04,0,0,1
2206,-43.03,1644577276.28125,P01,D04,0,0,1
2207,-39.83,1644577276.296875,P01,D04,0,0,1
2208,-36.35,1644577276.3125,P01,D04,0,0,1
2209,-33.03,1644577276.328125,P01,D04,0,0,1
2210,-30.12,1644577276.34375,P01,D04,0,0,1
2211,-27.7,1644577276.359375,P01,D04,0,0,1
2212,-25.59,1644577276.375,P01,D04,0,0,1
2213,-23.59,1644577276.390625,P01,D04,0,0,1
2214,-21.56,1644577276.40625,P01,D04,0,0,1
2215,-19.5,1644577276.421875,P01,D04,0,0,1
2216,-17.57,1644577276.4375,P01,D04,0,0,1
2217,-15.95,1644577276.453125,P01,D04,0,0,1
2218,-14.73,1644577276.46875,P01,D04,0,0,1
2219,-13.84,1644577276.484375,P01,D04,0,0,1
2220,-13.13,1644577276.5,P01,D04,0,0,1
2221,-12.41,1644577276.515625,P01,D04,0,0,1
2222,-11.58,1644577276.53125,P01,D04,0,0,1
2223,-10.61,1644577276.546875,P01,D04,0,0,1
2224,-9.54,1644577276.5625,P01,D04,0,0,1
2225,-8.44,1644577276.578125,P01,D04,0,0,1
2226,-7.38,1644577276.59375,P01,D04,0,0,1
2227,-6.37,1644577276.609375,P01,D04,0,0,1
2228,-5.41,1644577276.625,P01,D04,0,0,1
2229,-4.51,1644577276.640625,P01,D04,0,0,1
2230,-3.68,1644577276.65625,P01,D04,0,0,1
2231,-2.96,1644577276.671875,P01,D04,0,0,1
2232,-2.39,1644577276.6875,P01,D04,0,0,1
2233,-2.03,1644577276.703125,P01,D04,0,0,1
2234,-1.91,1644577276.71875,P01,D04,0,0,1
2235,-2.01,1644577276.734375,P01,D04,0,0,1
2236,-2.25,1644577276.75,P01,D04,0,0,1
2237,-2.47,1644577276.765625,P01,D04,0,0,1
2238,-2.52,1644577276.78125,P01,D04,0,0,1
2239,-2.31,1644577276.796875,P01,D04,0,0,1
2240,-1.88,1644577276.8125,P01,D04,0,0,1
2241,-1.35,1644577276.828125,P01,D04,0,0,1
2242,-0.91,1644577276.84375,P01,D04,0,0,1
2243,-0.68,1644577276.859375,P01,D04,0,0,1
2244,-0.7,1644577276.875,P01,D04,0,0,1
2245,-0.88,1644577276.890625,P01,D04,0,0,1
2246,-1.09,1644577276.90625,P01,D04,0,0,1
2247,-1.22,1644577276.921875,P01,D04,0,0,1
2248,-1.19,1644577276.9375,P01,D04,0,0,1
2249,-1.03,1644577276.953125,P01,D04,0,0,1
2250,-0.77,1644577276.96875,P01,D04,0,0,1
2251,-0.46,1644577276.984375,P01,D04,0,0,1
2252,-0.12,1644577277.0,P01,D04,0,0,1
2253,0.22,1644577277.015625,P01,D04,0,0,1
2254,0.52,1644577277.03125,P01,D04,0,0,1
2255,0.69,1644577277.046875,P01,D04,0,0,1
2256,0.69,1644577277.0625,P01,D04,0,0,1
2257,0.49,1644577277.078125,P01,D04,0,0,1
2258,0.15,1644577277.09375,P01,D04,0,0,1
2259,-0.21,1644577277.109375,P01,D04,0,0,1
2260,-0.46,1644577277.125,P01,D04,0,0,1
2261,-0.53,1644577277.140625,P01,D04,0,0,1
2262,-0.42,1644577277.15625,P01,D04,0,0,1
2263,-0.23,1644577277.171875,P01,D04,0,0,1
2264,-0.03,1644577277.1875,P01,D04,0,0,1
2265,0.1,1644577277.203125,P01,D04,0,0,1
2266,0.15,1644577277.21875,P01,D04,0,0,1
2267,0.13,1644577277.234375,P01,D04,0,0,1
2268,0.08,1644577277.25,P01,D04,0,0,1
2269,0.03,1644577277.265625,P01,D04,0,0,1
2270,-0.02,1644577277.28125,P01,D04,0,0,1
2271,-0.04,1644577277.296875,P01,D04,0,0,1
2272,-0.02,1644577277.3125,P01,D04,0,0,1
2273,0.03,1644577277.328125,P01,D04,0,0,1
2274,0.1,1644577277.34375,P01,D04,0,0,1
2275,0.19,1644577277.359375,P01,D04,0,0,1
2276,0.28,1644577277.375,P01,D04,0,0,1
2277,0.37,1644577277.390625,P01,D04,0,0,1
2278,0.4,1644577277.40625,P01,D04,0,0,1
2279,0.36,1644577277.421875,P01,D04,0,0,1
2280,0.19,1644577277.4375,P01,D04,0,0,1
2281,-0.1,1644577277.453125,P01,D04,0,0,1
2282,-0.42,1644577277.46875,P01,D04,0,0,1
2283,-0.62,1644577277.484375,P01,D04,0,0,1
2284,-0.58,1644577277.5,P01,D04,0,0,1
2285,-0.25,1644577277.515625,P01,D04,0,0,1
2286,0.29,1644577277.53125,P01,D04,0,0,1
2287,0.83,1644577277.546875,P01,D04,0,0,1
2288,1.16,1644577277.5625,P01,D04,0,0,1
2289,1.17,1644577277.578125,P01,D04,0,0,1
2290,0.88,1644577277.59375,P01,D04,0,0,1
2291,0.43,1644577277.609375,P01,D04,0,0,1
2292,-0.0,1644577277.625,P01,D04,0,0,1
2293,-0.32,1644577277.640625,P01,D04,0,0,1
2294,-0.5,1644577277.65625,P01,D04,0,0,1
2295,-0.6,1644577277.671875,P01,D04,0,0,1
2296,-0.65,1644577277.6875,P01,D04,0,0,1
2297,-0.67,1644577277.703125,P01,D04,0,0,1
2298,-0.6,1644577277.71875,P01,D04,0,0,1
2299,-0.38,1644577277.734375,P01,D04,0,0,1
2300,-0.01,1644577277.75,P01,D04,0,0,1
2301,0.45,1644577277.765625,P01,D04,0,0,1
2302,0.88,1644577277.78125,P01,D04,0,0,1
2303,1.14,1644577277.796875,P01,D04,0,0,1
2304,1.2,1644577277.8125,P01,D04,0,0,1
2305,1.09,1644577277.828125,P01,D04,0,0,1
2306,0.97,1644577277.84375,P01,D04,0,0,1
2307,0.98,1644577277.859375,P01,D04,0,0,1
2308,1.17,1644577277.875,P01,D04,0,0,1
2309,1.48,1644577277.890625,P01,D04,0,0,1
2310,1.74,1644577277.90625,P01,D04,0,0,1
2311,1.78,1644577277.921875,P01,D04,0,0,1
2312,1.56,1644577277.9375,P01,D04,0,0,1
2313,1.17,1644577277.953125,P01,D04,0,0,1
2314,0.8,1644577277.96875,P01,D04,0,0,1
2315,0.63,1644577277.984375,P01,D04,0,0,1
2316,0.74,1644577278.0,P01,D04,0,0,1
2317,1.06,1644577278.015625,P01,D04,0,0,1
2318,1.44,1644577278.03125,P01,D04,0,0,1
2319,1.68,1644577278.046875,P01,D04,0,0,1
2320,1.68,1644577278.0625,P01,D04,0,0,1
2321,1.45,1644577278.078125,P01,D04,0,0,1
2322,1.09,1644577278.09375,P01,D04,0,0,1
2323,0.67,1644577278.109375,P01,D04,0,0,1
2324,0.27,1644577278.125,P01,D04,0,0,1
2325,-0.12,1644577278.140625,P01,D04,0,0,1
2326,-0.5,1644577278.15625,P01,D04,0,0,1
2327,-0.85,1644577278.171875,P01,D04,0,0,1
2328,-1.14,1644577278.1875,P01,D04,0,0,1
2329,-1.34,1644577278.203125,P01,D04,0,0,1
2330,-1.42,1644577278.21875,P01,D04,0,0,1
2331,-1.39,1644577278.234375,P01,D04,0,0,1
2332,-1.28,1644577278.25,P01,D04,0,0,1
2333,-1.12,1644577278.265625,P01,D04,0,0,1
2334,-0.9,1644577278.28125,P01,D04,0,0,1
2335,-0.63,1644577278.296875,P01,D04,0,0,1
2336,-0.39,1644577278.3125,P01,D04,0,0,1
2337,-0.26,1644577278.328125,P01,D04,0,0,1
2338,-0.33,1644577278.34375,P01,D04,0,0,1
2339,-0.6,1644577278.359375,P01,D04,0,0,1
2340,-0.97,1644577278.375,P01,D04,0,0,1
2341,-1.27,1644577278.390625,P01,D04,0,0,1
2342,-1.36,1644577278.40625,P01,D04,0,0,1
2343,-1.21,1644577278.421875,P01,D04,0,0,1
2344,-0.95,1644577278.4375,P01,D04,0,0,1
2345,-0.76,1644577278.453125,P01,D04,0,0,1
2346,-0.76,1644577278.46875,P01,D04,0,0,1
2347,-0.93,1644577278.484375,P01,D04,0,0,1
2348,-1.14,1644577278.5,P01,D04,0,0,1
2349,-1.23,1644577278.515625,P01,D04,0,0,1
2350,-1.09,1644577278.53125,P01,D04,0,0,1
2351,-0.76,1644577278.546875,P01,D04,0,0,1
2352,-0.35,1644577278.5625,P01,D04,0,0,1
2353,-0.01,1644577278.578125,P01,D04,0,0,1
2354,0.22,1644577278.59375,P01,D04,0,0,1
2355,0.36,1644577278.609375,P01,D04,0,0,1
2356,0.45,1644577278.625,P01,D04,0,0,1
2357,0.56,1644577278.640625,P01,D04,0,0,1
2358,0.68,1644577278.65625,P01,D04,0,0,1
2359,0.75,1644577278.671875,P01,D04,0,0,1
2360,0.7,1644577278.6875,P01,D04,0,0,1
2361,0.47,1644577278.703125,P01,D04,0,0,1
2362,0.05,1644577278.71875,P01,D04,0,0,1
2363,-0.49,1644577278.734375,P01,D04,0,0,1
2364,-1.01,1644577278.75,P01,D04,0,0,1
2365,-1.34,1644577278.765625,P01,D04,0,0,1
2366,-1.39,1644577278.78125,P01,D04,0,0,1
2367,-1.21,1644577278.796875,P01,D04,0,0,1
2368,-0.91,1644577278.8125,P01,D04,0,0,1
2369,-0.64,1644577278.828125,P01,D04,0,0,1
2370,-0.52,1644577278.84375,P01,D04,0,0,1
2371,-0.53,1644577278.859375,P01,D04,0,0,1
2372,-0.57,1644577278.875,P01,D04,0,0,1
2373,-0.49,1644577278.890625,P01,D04,0,0,1
2374,-0.21,1644577278.90625,P01,D04,0,0,1
2375,0.24,1644577278.921875,P01,D04,0,0,1
2376,0.74,1644577278.9375,P01,D04,0,0,1
2377,1.14,1644577278.953125,P01,D04,0,0,1
2378,1.35,1644577278.96875,P01,D04,0,0,1
2379,1.37,1644577278.984375,P01,D04,0,0,1
2380,1.26,1644577279.0,P01,D04,0,0,1
2381,1.08,1644577279.015625,P01,D04,0,0,1
2382,0.89,1644577279.03125,P01,D04,0,0,1
2383,0.7,1644577279.046875,P01,D04,0,0,1
2384,0.51,1644577279.0625,P01,D04,0,0,1
2385,0.32,1644577279.078125,P01,D04,0,0,1
2386,0.16,1644577279.09375,P01,D04,0,0,1
2387,0.08,1644577279.109375,P01,D04,0,0,1
2388,0.11,1644577279.125,P01,D04,0,0,1
2389,0.24,1644577279.140625,P01,D04,0,0,1
2390,0.43,1644577279.15625,P01,D04,0,0,1
2391,0.59,1644577279.171875,P01,D04,0,0,1
2392,0.64,1644577279.1875,P01,D04,0,0,1
2393,0.59,1644577279.203125,P01,D04,0,0,1
2394,0.48,1644577279.21875,P01,D04,0,0,1
2395,0.37,1644577279.234375,P01,D04,0,0,1
2396,0.34,1644577279.25,P01,D04,0,0,1
2397,0.42,1644577279.265625,P01,D04,0,0,1
2398,0.58,1644577279.28125,P01,D04,0,0,1
2399,0.79,1644577279.296875,P01,D04,0,0,1
2400,1.0,1644577279.3125,P01,D04,0,0,1
2401,1.18,1644577279.328125,P01,D04,0,0,1
2402,1.29,1644577279.34375,P01,D04,0,0,1
2403,1.32,1644577279.359375,P01,D04,0,0,1
2404,1.25,1644577279.375,P01,D04,0,0,1
2405,1.14,1644577279.390625,P01,D04,0,0,1
2406,1.05,1644577279.40625,P01,D04,0,0,1
2407,1.01,1644577279.421875,P01,D04,0,0,1
2408,1.02,1644577279.4375,P01,D04,0,0,1
2409,1.02,1644577279.453125,P01,D04,0,0,1
2410,0.89,1644577279.46875,P01,D04,0,0,1
2411,0.53,1644577279.484375,P01,D04,0,0,1
2412,-0.03,1644577279.5,P01,D04,0,0,1
2413,-0.67,1644577279.515625,P01,D04,0,0,1
2414,-1.22,1644577279.53125,P01,D04,0,0,1
2415,-1.52,1644577279.546875,P01,D04,0,0,1
2416,-1.51,1644577279.5625,P01,D04,0,0,1
2417,-1.27,1644577279.578125,P01,D04,0,0,1
2418,-0.93,1644577279.59375,P01,D04,0,0,1
2419,-0.65,1644577279.609375,P01,D04,0,0,1
2420,-0.49,1644577279.625,P01,D04,0,0,1
2421,-0.47,1644577279.640625,P01,D04,0,0,1
2422,-0.52,1644577279.65625,P01,D04,0,0,1
2423,-0.58,1644577279.671875,P01,D04,0,0,1
2424,-0.6,1644577279.6875,P01,D04,0,0,1
2425,-0.57,1644577279.703125,P01,D04,0,0,1
2426,-0.52,1644577279.71875,P01,D04,0,0,1
2427,-0.46,1644577279.734375,P01,D04,0,0,1
2428,-0.41,1644577279.75,P01,D04,0,0,1
2429,-0.38,1644577279.765625,P01,D04,0,0,1
2430,-0.34,1644577279.78125,P01,D04,0,0,1
2431,-0.28,1644577279.796875,P01,D04,0,0,1
2432,-0.17,1644577279.8125,P01,D04,0,0,1
2433,-0.0,1644577279.828125,P01,D04,0,0,1
2434,0.18,1644577279.84375,P01,D04,0,0,1
2435,0.28,1644577279.859375,P01,D04,0,0,1
2436,0.2,1644577279.875,P01,D04,0,0,1
2437,-0.1,1644577279.890625,P01,D04,0,0,1
2438,-0.58,1644577279.90625,P01,D04,0,0,1
2439,-1.11,1644577279.921875,P01,D04,0,0,1
2440,-1.54,1644577279.9375,P01,D04,0,0,1
2441,-1.74,1644577279.953125,P01,D04,0,0,1
2442,-1.67,1644577279.96875,P01,D04,0,0,1
2443,-1.36,1644577279.984375,P01,D04,0,0,1
2444,-0.94,1644577280.0,P01,D04,0,0,1
2445,-0.52,1644577280.015625,P01,D04,0,0,1
2446,-0.23,1644577280.03125,P01,D04,0,0,1
2447,-0.13,1644577280.046875,P01,D04,0,0,1
2448,-0.24,1644577280.0625,P01,D04,0,0,1
2449,-0.48,1644577280.078125,P01,D04,0,0,1
2450,-0.74,1644577280.09375,P01,D04,0,0,1
2451,-0.9,1644577280.109375,P01,D04,0,0,1
2452,-0.88,1644577280.125,P01,D04,0,0,1
2453,-0.71,1644577280.140625,P01,D04,0,0,1
2454,-0.48,1644577280.15625,P01,D04,0,0,1
2455,-0.33,1644577280.171875,P01,D04,0,0,1
2456,-0.29,1644577280.1875,P01,D04,0,0,1
2457,-0.34,1644577280.203125,P01,D04,0,0,1
2458,-0.35,1644577280.21875,P01,D04,0,0,1
2459,-0.23,1644577280.234375,P01,D04,0,0,1
2460,0.04,1644577280.25,P01,D04,0,0,1
2461,0.34,1644577280.265625,P01,D04,0,0,1
2462,0.57,1644577280.28125,P01,D04,0,0,1
2463,0.66,1644577280.296875,P01,D04,0,0,1
2464,0.65,1644577280.3125,P01,D04,0,0,1
2465,0.61,1644577280.328125,P01,D04,0,0,1
2466,0.62,1644577280.34375,P01,D04,0,0,1
2467,0.67,1644577280.359375,P01,D04,0,0,1
2468,0.7,1644577280.375,P01,D04,0,0,1
2469,0.62,1644577280.390625,P01,D04,0,0,1
2470,0.43,1644577280.40625,P01,D04,0,0,1
2471,0.2,1644577280.421875,P01,D04,0,0,1
2472,0.02,1644577280.4375,P01,D04,0,0,1
2473,-0.02,1644577280.453125,P01,D04,0,0,1
2474,0.04,1644577280.46875,P01,D04,0,0,1
2475,0.11,1644577280.484375,P01,D04,0,0,1
2476,0.13,1644577280.5,P01,D04,0,0,1
2477,0.08,1644577280.515625,P01,D04,0,0,1
2478,0.04,1644577280.53125,P01,D04,0,0,1
2479,0.12,1644577280.546875,P01,D04,0,0,1
2480,0.31,1644577280.5625,P01,D04,0,0,1
2481,0.56,1644577280.578125,P01,D04,0,0,1
2482,0.72,1644577280.59375,P01,D04,0,0,1
2483,0.67,1644577280.609375,P01,D04,0,0,1
2484,0.42,1644577280.625,P01,D04,0,0,1
2485,0.08,1644577280.640625,P01,D04,0,0,1
2486,-0.17,1644577280.65625,P01,D04,0,0,1
2487,-0.2,1644577280.671875,P01,D04,0,0,1
2488,-0.01,1644577280.6875,P01,D04,0,0,1
2489,0.28,1644577280.703125,P01,D04,0,0,1
2490,0.51,1644577280.71875,P01,D04,0,0,1
2491,0.58,1644577280.734375,P01,D04,0,0,1
2492,0.51,1644577280.75,P01,D04,0,0,1
2493,0.4,1644577280.765625,P01,D04,0,0,1
2494,0.36,1644577280.78125,P01,D04,0,0,1
2495,0.42,1644577280.796875,P01,D04,0,0,1
2496,0.52,1644577280.8125,P01,D04,0,0,1
2497,0.56,1644577280.828125,P01,D04,0,0,1
2498,0.45,1644577280.84375,P01,D04,0,0,1
2499,0.18,1644577280.859375,P01,D04,0,0,1
2500,-0.15,1644577280.875,P01,D04,0,0,1
2501,-0.42,1644577280.890625,P01,D04,0,0,1
2502,-0.53,1644577280.90625,P01,D04,0,0,1
2503,-0.46,1644577280.921875,P01,D04,0,0,1
2504,-0.26,1644577280.9375,P01,D04,0,0,1
2505,-0.05,1644577280.953125,P01,D04,0,0,1
2506,0.1,1644577280.96875,P01,D04,0,0,1
2507,0.18,1644577280.984375,P01,D04,0,0,1
2508,0.22,1644577281.0,P01,D04,0,0,1
2509,0.29,1644577281.015625,P01,D04,0,0,1
2510,0.4,1644577281.03125,P01,D04,0,0,1
2511,0.52,1644577281.046875,P01,D04,0,0,1
2512,0.61,1644577281.0625,P01,D04,0,0,1
2513,0.63,1644577281.078125,P01,D04,0,0,1
2514,0.63,1644577281.09375,P01,D04,0,0,1
2515,0.66,1644577281.109375,P01,D04,0,0,1
2516,0.73,1644577281.125,P01,D04,0,0,1
2517,0.79,1644577281.140625,P01,D04,0,0,1
2518,0.74,1644577281.15625,P01,D04,0,0,1
2519,0.52,1644577281.171875,P01,D04,0,0,1
2520,0.14,1644577281.1875,P01,D04,0,0,1
2521,-0.25,1644577281.203125,P01,D04,0,0,1
2522,-0.48,1644577281.21875,P01,D04,0,0,1
2523,-0.41,1644577281.234375,P01,D04,0,0,1
2524,-0.07,1644577281.25,P01,D04,0,0,1
2525,0.4,1644577281.265625,P01,D04,0,0,1
2526,0.8,1644577281.28125,P01,D04,0,0,1
2527,0.95,1644577281.296875,P01,D04,0,0,1
2528,0.81,1644577281.3125,P01,D04,0,0,1
2529,0.44,1644577281.328125,P01,D04,0,0,1
2530,-0.03,1644577281.34375,P01,D04,0,0,1
2531,-0.48,1644577281.359375,P01,D04,0,0,1
2532,-0.79,1644577281.375,P01,D04,0,0,1
2533,-0.95,1644577281.390625,P01,D04,0,0,1
2534,-0.98,1644577281.40625,P01,D04,0,0,1
2535,-0.92,1644577281.421875,P01,D04,0,0,1
2536,-0.8,1644577281.4375,P01,D04,0,0,1
2537,-0.65,1644577281.453125,P01,D04,0,0,1
2538,-0.46,1644577281.46875,P01,D04,0,0,1
2539,-0.24,1644577281.484375,P01,D04,0,0,1
2540,-0.01,1644577281.5,P01,D04,0,0,1
2541,0.19,1644577281.515625,P01,D04,0,0,1
2542,0.31,1644577281.53125,P01,D04,0,0,1
2543,0.34,1644577281.546875,P01,D04,0,0,1
2544,0.32,1644577281.5625,P01,D04,0,0,1
2545,0.31,1644577281.578125,P01,D04,0,0,1
2546,0.36,1644577281.59375,P01,D04,0,0,1
2547,0.47,1644577281.609375,P01,D04,0,0,1
2548,0.61,1644577281.625,P01,D04,0,0,1
2549,0.73,1644577281.640625,P01,D04,0,0,1
2550,0.79,1644577281.65625,P01,D04,0,0,1
2551,0.73,1644577281.671875,P01,D04,0,0,1
2552,0.56,1644577281.6875,P01,D04,0,0,1
2553,0.28,1644577281.703125,P01,D04,0,0,1
2554,-0.1,1644577281.71875,P01,D04,0,0,1
2555,-0.5,1644577281.734375,P01,D04,0,0,1
2556,-0.78,1644577281.75,P01,D04,0,0,1
2557,-0.84,1644577281.765625,P01,D04,0,0,1
2558,-0.62,1644577281.78125,P01,D04,0,0,1
2559,-0.18,1644577281.796875,P01,D04,0,0,1
2560,0.31,1644577281.8125,P01,D04,0,0,1
2561,0.69,1644577281.828125,P01,D04,0,0,1
2562,0.86,1644577281.84375,P01,D04,0,0,1
2563,0.84,1644577281.859375,P01,D04,0,0,1
2564,0.78,1644577281.875,P01,D04,0,0,1
2565,0.79,1644577281.890625,P01,D04,0,0,1
2566,0.92,1644577281.90625,P01,D04,0,0,1
2567,1.1,1644577281.921875,P01,D04,0,0,1
2568,1.2,1644577281.9375,P01,D04,0,0,1
2569,1.13,1644577281.953125,P01,D04,0,0,1
2570,0.87,1644577281.96875,P01,D04,0,0,1
2571,0.49,1644577281.984375,P01,D04,0,0,1
2572,0.1,1644577282.0,P01,D04,0,0,1
2573,-0.21,1644577282.015625,P01,D04,0,0,1
2574,-0.38,1644577282.03125,P01,D04,0,0,1
2575,-0.4,1644577282.046875,P01,D04,0,0,1
2576,-0.31,1644577282.0625,P01,D04,0,0,1
2577,-0.19,1644577282.078125,P01,D04,0,0,1
2578,-0.1,1644577282.09375,P01,D04,0,0,1
2579,-0.14,1644577282.109375,P01,D04,0,0,1
2580,-0.32,1644577282.125,P01,D04,0,0,1
2581,-0.63,1644577282.140625,P01,D04,0,0,1
2582,-0.99,1644577282.15625,P01,D04,0,0,1
2583,-1.31,1644577282.171875,P01,D04,0,0,1
2584,-1.52,1644577282.1875,P01,D04,0,0,1
2585,-1.6,1644577282.203125,P01,D04,0,0,1
2586,-1.57,1644577282.21875,P01,D04,0,0,1
2587,-1.48,1644577282.234375,P01,D04,0,0,1
2588,-1.34,1644577282.25,P01,D04,0,0,1
2589,-1.15,1644577282.265625,P01,D04,0,0,1
2590,-0.93,1644577282.28125,P01,D04,0,0,1
2591,-0.69,1644577282.296875,P01,D04,0,0,1
2592,-0.47,1644577282.3125,P01,D04,0,0,1
2593,-0.32,1644577282.328125,P01,D04,0,0,1
2594,-0.25,1644577282.34375,P01,D04,0,0,1
2595,-0.24,1644577282.359375,P01,D04,0,0,1
2596,-0.23,1644577282.375,P01,D04,0,0,1
2597,-0.16,1644577282.390625,P01,D04,0,0,1
2598,-0.02,1644577282.40625,P01,D04,0,0,1
2599,0.18,1644577282.421875,P01,D04,0,0,1
2600,0.36,1644577282.4375,P01,D04,0,0,1
2601,0.48,1644577282.453125,P01,D04,0,0,1
2602,0.51,1644577282.46875,P01,D04,0,0,1
2603,0.5,1644577282.484375,P01,D04,0,0,1
2604,0.51,1644577282.5,P01,D04,0,0,1
2605,0.59,1644577282.515625,P01,D04,0,0,1
2606,0.76,1644577282.53125,P01,D04,0,0,1
2607,0.98,1644577282.546875,P01,D04,0,0,1
2608,1.17,1644577282.5625,P01,D04,0,0,1
2609,1.28,1644577282.578125,P01,D04,0,0,1
2610,1.27,1644577282.59375,P01,D04,0,0,1
2611,1.16,1644577282.609375,P01,D04,0,0,1
2612,0.98,1644577282.625,P01,D04,0,0,1
2613,0.77,1644577282.640625,P01,D04,0,0,1
2614,0.56,1644577282.65625,P01,D04,0,0,1
2615,0.4,1644577282.671875,P01,D04,0,0,1
2616,0.3,1644577282.6875,P01,D04,0,0,1
2617,0.27,1644577282.703125,P01,D04,0,0,1
2618,0.29,1644577282.71875,P01,D04,0,0,1
2619,0.3,1644577282.734375,P01,D04,0,0,1
2620,0.24,1644577282.75,P01,D04,0,0,1
2621,0.09,1644577282.765625,P01,D04,0,0,1
2622,-0.12,1644577282.78125,P01,D04,0,0,1
2623,-0.33,1644577282.796875,P01,D04,0,0,1
2624,-0.45,1644577282.8125,P01,D04,0,0,1
2625,-0.45,1644577282.828125,P01,D04,0,0,1
2626,-0.32,1644577282.84375,P01,D04,0,0,1
2627,-0.16,1644577282.859375,P01,D04,0,0,1
2628,-0.05,1644577282.875,P01,D04,0,0,1
2629,-0.11,1644577282.890625,P01,D04,0,0,1
2630,-0.35,1644577282.90625,P01,D04,0,0,1
2631,-0.72,1644577282.921875,P01,D04,0,0,1
2632,-1.15,1644577282.9375,P01,D04,0,0,1
2633,-1.52,1644577282.953125,P01,D04,0,0,1
2634,-1.73,1644577282.96875,P01,D04,0,0,1
2635,-1.72,1644577282.984375,P01,D04,0,0,1
2636,-1.5,1644577283.0,P01,D04,0,0,1
2637,-1.1,1644577283.015625,P01,D04,0,0,1
2638,-0.63,1644577283.03125,P01,D04,0,0,1
2639,-0.19,1644577283.046875,P01,D04,0,0,1
2640,0.12,1644577283.0625,P01,D04,0,0,1
2641,0.21,1644577283.078125,P01,D04,0,0,1
2642,0.12,1644577283.09375,P01,D04,0,0,1
2643,-0.07,1644577283.109375,P01,D04,0,0,1
2644,-0.21,1644577283.125,P01,D04,0,0,1
2645,-0.2,1644577283.140625,P01,D04,0,0,1
2646,-0.02,1644577283.15625,P01,D04,0,0,1
2647,0.26,1644577283.171875,P01,D04,0,0,1
2648,0.48,1644577283.1875,P01,D04,0,0,1
2649,0.57,1644577283.203125,P01,D04,0,0,1
2650,0.5,1644577283.21875,P01,D04,0,0,1
2651,0.37,1644577283.234375,P01,D04,0,0,1
2652,0.28,1644577283.25,P01,D04,0,0,1
2653,0.28,1644577283.265625,P01,D04,0,0,1
2654,0.36,1644577283.28125,P01,D04,0,0,1
2655,0.43,1644577283.296875,P01,D04,0,0,1
2656,0.43,1644577283.3125,P01,D04,0,0,1
2657,0.36,1644577283.328125,P01,D04,0,0,1
2658,0.26,1644577283.34375,P01,D04,0,0,1
2659,0.19,1644577283.359375,P01,D04,0,0,1
2660,0.17,1644577283.375,P01,D04,0,0,1
2661,0.16,1644577283.390625,P01,D04,0,0,1
2662,0.12,1644577283.40625,P01,D04,0,0,1
2663,0.03,1644577283.421875,P01,D04,0,0,1
2664,-0.04,1644577283.4375,P01,D04,0,0,1
2665,-0.03,1644577283.453125,P01,D04,0,0,1
2666,0.11,1644577283.46875,P01,D04,0,0,1
2667,0.33,1644577283.484375,P01,D04,0,0,1
2668,0.52,1644577283.5,P01,D04,0,0,1
2669,0.56,1644577283.515625,P01,D04,0,0,1
2670,0.39,1644577283.53125,P01,D04,0,0,1
2671,0.06,1644577283.546875,P01,D04,0,0,1
2672,-0.31,1644577283.5625,P01,D04,0,0,1
2673,-0.55,1644577283.578125,P01,D04,0,0,1
2674,-0.61,1644577283.59375,P01,D04,0,0,1
2675,-0.52,1644577283.609375,P01,D04,0,0,1
2676,-0.39,1644577283.625,P01,D04,0,0,1
2677,-0.34,1644577283.640625,P01,D04,0,0,1
2678,-0.41,1644577283.65625,P01,D04,0,0,1
2679,-0.55,1644577283.671875,P01,D04,0,0,1
2680,-0.6,1644577283.6875,P01,D04,0,0,1
2681,-0.47,1644577283.703125,P01,D04,0,0,1
2682,-0.17,1644577283.71875,P01,D04,0,0,1
2683,0.19,1644577283.734375,P01,D04,0,0,1
2684,0.43,1644577283.75,P01,D04,0,0,1
2685,0.42,1644577283.765625,P01,D04,0,0,1
2686,0.14,1644577283.78125,P01,D04,0,0,1
2687,-0.27,1644577283.796875,P01,D04,0,0,1
2688,-0.66,1644577283.8125,P01,D04,0,0,1
2689,-0.88,1644577283.828125,P01,D04,0,0,1
2690,-0.9,1644577283.84375,P01,D04,0,0,1
2691,-0.8,1644577283.859375,P01,D04,0,0,1
2692,-0.67,1644577283.875,P01,D04,0,0,1
2693,-0.59,1644577283.890625,P01,D04,0,0,1
2694,-0.58,1644577283.90625,P01,D04,0,0,1
2695,-0.61,1644577283.921875,P01,D04,0,0,1
2696,-0.64,1644577283.9375,P01,D04,0,0,1
2697,-0.63,1644577283.953125,P01,D04,0,0,1
2698,-0.55,1644577283.96875,P01,D04,0,0,1
2699,-0.39,1644577283.984375,P01,D04,0,0,1
2700,-0.16,1644577284.0,P01,D04,0,0,1
2701,0.13,1644577284.015625,P01,D04,0,0,1
2702,0.44,1644577284.03125,P01,D04,0,0,1
2703,0.7,1644577284.046875,P01,D04,0,0,1
2704,0.84,1644577284.0625,P01,D04,0,0,1
2705,0.82,1644577284.078125,P01,D04,0,0,1
2706,0.62,1644577284.09375,P01,D04,0,0,1
2707,0.27,1644577284.109375,P01,D04,0,0,1
2708,-0.13,1644577284.125,P01,D04,0,0,1
2709,-0.47,1644577284.140625,P01,D04,0,0,1
2710,-0.66,1644577284.15625,P01,D04,0,0,1
2711,-0.65,1644577284.171875,P01,D04,0,0,1
2712,-0.46,1644577284.1875,P01,D04,0,0,1
2713,-0.17,1644577284.203125,P01,D04,0,0,1
2714,0.12,1644577284.21875,P01,D04,0,0,1
2715,0.34,1644577284.234375,P01,D04,0,0,1
2716,0.47,1644577284.25,P01,D04,0,0,1
2717,0.53,1644577284.265625,P01,D04,0,0,1
2718,0.56,1644577284.28125,P01,D04,0,0,1
2719,0.56,1644577284.296875,P01,D04,0,0,1
2720,0.52,1644577284.3125,P01,D04,0,0,1
2721,0.45,1644577284.328125,P01,D04,0,0,1
2722,0.37,1644577284.34375,P01,D04,0,0,1
2723,0.39,1644577284.359375,P01,D04,0,0,1
2724,0.55,1644577284.375,P01,D04,0,0,1
2725,0.8,1644577284.390625,P01,D04,0,0,1
2726,1.03,1644577284.40625,P01,D04,0,0,1
2727,1.07,1644577284.421875,P01,D04,0,0,1
2728,0.84,1644577284.4375,P01,D04,0,0,1
2729,0.38,1644577284.453125,P01,D04,0,0,1
2730,-0.11,1644577284.46875,P01,D04,0,0,1
2731,-0.47,1644577284.484375,P01,D04,0,0,1
2732,-0.56,1644577284.5,P01,D04,0,0,1
2733,-0.43,1644577284.515625,P01,D04,0,0,1
2734,-0.2,1644577284.53125,P01,D04,0,0,1
2735,-0.02,1644577284.546875,P01,D04,0,0,1
2736,0.04,1644577284.5625,P01,D04,0,0,1
2737,-0.01,1644577284.578125,P01,D04,0,0,1
2738,-0.08,1644577284.59375,P01,D04,0,0,1
2739,-0.1,1644577284.609375,P01,D04,0,0,1
2740,-0.06,1644577284.625,P01,D04,0,0,1
2741,-0.02,1644577284.640625,P01,D04,0,0,1
2742,-0.03,1644577284.65625,P01,D04,0,0,1
2743,-0.1,1644577284.671875,P01,D04,0,0,1
2744,-0.21,1644577284.6875,P01,D04,0,0,1
2745,-0.34,1644577284.703125,P01,D04,0,0,1
2746,-0.42,1644577284.71875,P01,D04,0,0,1
2747,-0.43,1644577284.734375,P01,D04,0,0,1
2748,-0.38,1644577284.75,P01,D04,0,0,1
2749,-0.28,1644577284.765625,P01,D04,0,0,1
2750,-0.15,1644577284.78125,P01,D04,0,0,1
2751,-0.01,1644577284.796875,P01,D04,0,0,1
2752,0.14,1644577284.8125,P01,D04,0,0,1
2753,0.29,1644577284.828125,P01,D04,0,0,1
2754,0.44,1644577284.84375,P01,D04,0,0,1
2755,0.54,1644577284.859375,P01,D04,0,0,1
2756,0.58,1644577284.875,P01,D04,0,0,1
2757,0.52,1644577284.890625,P01,D04,0,0,1
2758,0.35,1644577284.90625,P01,D04,0,0,1
2759,0.12,1644577284.921875,P01,D04,0,0,1
2760,-0.11,1644577284.9375,P01,D04,0,0,1
2761,-0.24,1644577284.953125,P01,D04,0,0,1
2762,-0.22,1644577284.96875,P01,D04,0,0,1
2763,-0.03,1644577284.984375,P01,D04,0,0,1
2764,0.28,1644577285.0,P01,D04,0,0,1
2765,0.6,1644577285.015625,P01,D04,0,0,1
2766,0.83,1644577285.03125,P01,D04,0,0,1
2767,0.93,1644577285.046875,P01,D04,0,0,1
2768,0.92,1644577285.0625,P01,D04,0,0,1
2769,0.84,1644577285.078125,P01,D04,0,0,1
2770,0.76,1644577285.09375,P01,D04,0,0,1
2771,0.69,1644577285.109375,P01,D04,0,0,1
2772,0.61,1644577285.125,P01,D04,0,0,1
2773,0.53,1644577285.140625,P01,D04,0,0,1
2774,0.46,1644577285.15625,P01,D04,0,0,1
2775,0.46,1644577285.171875,P01,D04,0,0,1
2776,0.53,1644577285.1875,P01,D04,0,0,1
2777,0.64,1644577285.203125,P01,D04,0,0,1
2778,0.69,1644577285.21875,P01,D04,0,0,1
2779,0.61,1644577285.234375,P01,D04,0,0,1
2780,0.34,1644577285.25,P01,D04,0,0,1
2781,-0.06,1644577285.265625,P01,D04,0,0,1
2782,-0.49,1644577285.28125,P01,D04,0,0,1
2783,-0.82,1644577285.296875,P01,D04,0,0,1
2784,-0.97,1644577285.3125,P01,D04,0,0,1
2785,-0.95,1644577285.328125,P01,D04,0,0,1
2786,-0.85,1644577285.34375,P01,D04,0,0,1
2787,-0.75,1644577285.359375,P01,D04,0,0,1
2788,-0.71,1644577285.375,P01,D04,0,0,1
2789,-0.71,1644577285.390625,P01,D04,0,0,1
2790,-0.71,1644577285.40625,P01,D04,0,0,1
2791,-0.69,1644577285.421875,P01,D04,0,0,1
2792,-0.66,1644577285.4375,P01,D04,0,0,1
2793,-0.69,1644577285.453125,P01,D04,0,0,1
2794,-0.8,1644577285.46875,P01,D04,0,0,1
2795,-0.99,1644577285.484375,P01,D04,0,0,1
2796,-1.14,1644577285.5,P01,D04,0,0,1
2797,-1.15,1644577285.515625,P01,D04,0,0,1
2798,-0.92,1644577285.53125,P01,D04,0,0,1
2799,-0.47,1644577285.546875,P01,D04,0,0,1
2800,0.08,1644577285.5625,P01,D04,0,0,1
2801,0.59,1644577285.578125,P01,D04,0,0,1
2802,0.91,1644577285.59375,P01,D04,0,0,1
2803,1.02,1644577285.609375,P01,D04,0,0,1
2804,0.95,1644577285.625,P01,D04,0,0,1
2805,0.8,1644577285.640625,P01,D04,0,0,1
2806,0.63,1644577285.65625,P01,D04,0,0,1
2807,0.5,1644577285.671875,P01,D04,0,0,1
2808,0.41,1644577285.6875,P01,D04,0,0,1
2809,0.36,1644577285.703125,P01,D04,0,0,1
2810,0.34,1644577285.71875,P01,D04,0,0,1
2811,0.32,1644577285.734375,P01,D04,0,0,1
2812,0.32,1644577285.75,P01,D04,0,0,1
2813,0.32,1644577285.765625,P01,D04,0,0,1
2814,0.33,1644577285.78125,P01,D04,0,0,1
2815,0.33,1644577285.796875,P01,D04,0,0,1
2816,0.33,1644577285.8125,P01,D04,0,0,1
2817,0.29,1644577285.828125,P01,D04,0,0,1
2818,0.23,1644577285.84375,P01,D04,0,0,1
2819,0.13,1644577285.859375,P01,D04,0,0,1
2820,0.03,1644577285.875,P01,D04,0,0,1
2821,-0.02,1644577285.890625,P01,D04,0,0,1
2822,0.01,1644577285.90625,P01,D04,0,0,1
2823,0.11,1644577285.921875,P01,D04,0,0,1
2824,0.24,1644577285.9375,P01,D04,0,0,1
2825,0.34,1644577285.953125,P01,D04,0,0,1
2826,0.36,1644577285.96875,P01,D04,0,0,1
2827,0.3,1644577285.984375,P01,D04,0,0,1
2828,0.18,1644577286.0,P01,D04,0,0,1
2829,0.05,1644577286.015625,P01,D04,0,0,1
2830,-0.07,1644577286.03125,P01,D04,0,0,1
2831,-0.15,1644577286.046875,P01,D04,0,0,1
2832,-0.2,1644577286.0625,P01,D04,0,0,1
2833,-0.21,1644577286.078125,P01,D04,0,0,1
2834,-0.2,1644577286.09375,P01,D04,0,0,1
2835,-0.19,1644577286.109375,P01,D04,0,0,1
2836,-0.21,1644577286.125,P01,D04,0,0,1
2837,-0.29,1644577286.140625,P01,D04,0,0,1
2838,-0.43,1644577286.15625,P01,D04,0,0,1
2839,-0.59,1644577286.171875,P01,D04,0,0,1
2840,-0.73,1644577286.1875,P01,D04,0,0,1
2841,-0.79,1644577286.203125,P01,D04,0,0,1
2842,-0.76,1644577286.21875,P01,D04,0,0,1
2843,-0.66,1644577286.234375,P01,D04,0,0,1
2844,-0.5,1644577286.25,P01,D04,0,0,1
2845,-0.34,1644577286.265625,P01,D04,0,0,1
2846,-0.2,1644577286.28125,P01,D04,0,0,1
2847,-0.12,1644577286.296875,P01,D04,0,0,1
2848,-0.11,1644577286.3125,P01,D04,0,0,1
2849,-0.19,1644577286.328125,P01,D04,0,0,1
2850,-0.33,1644577286.34375,P01,D04,0,0,1
2851,-0.49,1644577286.359375,P01,D04,0,0,1
2852,-0.6,1644577286.375,P01,D04,0,0,1
2853,-0.63,1644577286.390625,P01,D04,0,0,1
2854,-0.58,1644577286.40625,P01,D04,0,0,1
2855,-0.46,1644577286.421875,P01,D04,0,0,1
2856,-0.32,1644577286.4375,P01,D04,0,0,1
2857,-0.17,1644577286.453125,P01,D04,0,0,1
2858,-0.05,1644577286.46875,P01,D04,0,0,1
2859,0.01,1644577286.484375,P01,D04,0,0,1
2860,-0.03,1644577286.5,P01,D04,0,0,1
2861,-0.18,1644577286.515625,P01,D04,0,0,1
2862,-0.43,1644577286.53125,P01,D04,0,0,1
2863,-0.73,1644577286.546875,P01,D04,0,0,1
2864,-1.02,1644577286.5625,P01,D04,0,0,1
2865,-1.23,1644577286.578125,P01,D04,0,0,1
2866,-1.3,1644577286.59375,P01,D04,0,0,1
2867,-1.19,1644577286.609375,P01,D04,0,0,1
2868,-0.89,1644577286.625,P01,D04,0,0,1
2869,-0.42,1644577286.640625,P01,D04,0,0,1
2870,0.15,1644577286.65625,P01,D04,0,0,1
2871,0.68,1644577286.671875,P01,D04,0,0,1
2872,1.04,1644577286.6875,P01,D04,0,0,1
2873,1.12,1644577286.703125,P01,D04,0,0,1
2874,0.91,1644577286.71875,P01,D04,0,0,1
2875,0.52,1644577286.734375,P01,D04,0,0,1
2876,0.14,1644577286.75,P01,D04,0,0,1
2877,-0.07,1644577286.765625,P01,D04,0,0,1
2878,-0.03,1644577286.78125,P01,D04,0,0,1
2879,0.25,1644577286.796875,P01,D04,0,0,1
2880,0.6,1644577286.8125,P01,D04,0,0,1
2881,0.87,1644577286.828125,P01,D04,0,0,1
2882,0.94,1644577286.84375,P01,D04,0,0,1
2883,0.77,1644577286.859375,P01,D04,0,0,1
2884,0.46,1644577286.875,P01,D04,0,0,1
2885,0.12,1644577286.890625,P01,D04,0,0,1
2886,-0.11,1644577286.90625,P01,D04,0,0,1
2887,-0.21,1644577286.921875,P01,D04,0,0,1
2888,-0.2,1644577286.9375,P01,D04,0,0,1
2889,-0.15,1644577286.953125,P01,D04,0,0,1
2890,-0.11,1644577286.96875,P01,D04,0,0,1
2891,-0.05,1644577286.984375,P01,D04,0,0,1
2892,0.1,1644577287.0,P01,D04,0,0,1
2893,0.38,1644577287.015625,P01,D04,0,0,1
2894,0.76,1644577287.03125,P01,D04,0,0,1
2895,1.14,1644577287.046875,P01,D04,0,0,1
2896,1.37,1644577287.0625,P01,D04,0,0,1
2897,1.34,1644577287.078125,P01,D04,0,0,1
2898,1.06,1644577287.09375,P01,D04,0,0,1
2899,0.65,1644577287.109375,P01,D04,0,0,1
2900,0.24,1644577287.125,P01,D04,0,0,1
2901,-0.05,1644577287.140625,P01,D04,0,0,1
2902,-0.21,1644577287.15625,P01,D04,0,0,1
2903,-0.27,1644577287.171875,P01,D04,0,0,1
2904,-0.28,1644577287.1875,P01,D04,0,0,1
2905,-0.26,1644577287.203125,P01,D04,0,0,1
2906,-0.24,1644577287.21875,P01,D04,0,0,1
2907,-0.22,1644577287.234375,P01,D04,0,0,1
2908,-0.24,1644577287.25,P01,D04,0,0,1
2909,-0.33,1644577287.265625,P01,D04,0,0,1
2910,-0.51,1644577287.28125,P01,D04,0,0,1
2911,-0.72,1644577287.296875,P01,D04,0,0,1
2912,-0.9,1644577287.3125,P01,D04,0,0,1
