,data,timestamp,participant,document,val,arou,eng
0,-0.98,1644591849.875,P04,D05,1,0,1
1,-1.07,1644591849.890625,P04,D05,1,0,1
2,-1.08,1644591849.90625,P04,D05,1,0,1
3,-1.06,1644591849.921875,P04,D05,1,0,1
4,-1.08,1644591849.9375,P04,D05,1,0,1
5,-1.15,1644591849.953125,P04,D05,1,0,1
6,-1.24,1644591849.96875,P04,D05,1,0,1
7,-1.3,1644591849.984375,P04,D05,1,0,1
8,-1.28,1644591850.0,P04,D05,1,0,1
9,-1.19,1644591850.015625,P04,D05,1,0,1
10,-1.06,1644591850.03125,P04,D05,1,0,1
11,-0.96,1644591850.046875,P04,D05,1,0,1
12,-0.87,1644591850.0625,P04,D05,1,0,1
13,-0.76,1644591850.078125,P04,D05,1,0,1
14,-0.59,1644591850.09375,P04,D05,1,0,1
15,-0.35,1644591850.109375,P04,D05,1,0,1
16,-0.09,1644591850.125,P04,D05,1,0,1
17,0.14,1644591850.140625,P04,D05,1,0,1
18,0.26,1644591850.15625,P04,D05,1,0,1
19,0.27,1644591850.171875,P04,D05,1,0,1
20,0.23,1644591850.1875,P04,D05,1,0,1
21,0.22,1644591850.203125,P04,D05,1,0,1
22,0.3,1644591850.21875,P04,D05,1,0,1
23,0.49,1644591850.234375,P04,D05,1,0,1
24,0.72,1644591850.25,P04,D05,1,0,1
25,0.93,1644591850.265625,P04,D05,1,0,1
26,1.1,1644591850.28125,P04,D05,1,0,1
27,1.22,1644591850.296875,P04,D05,1,0,1
28,1.29,1644591850.3125,P04,D05,1,0,1
29,1.32,1644591850.328125,P04,D05,1,0,1
30,1.26,1644591850.34375,P04,D05,1,0,1
31,1.06,1644591850.359375,P04,D05,1,0,1
32,0.68,1644591850.375,P04,D05,1,0,1
33,0.19,1644591850.390625,P04,D05,1,0,1
34,-0.29,1644591850.40625,P04,D05,1,0,1
35,-0.63,1644591850.421875,P04,D05,1,0,1
36,-0.74,1644591850.4375,P04,D05,1,0,1
37,-0.64,1644591850.453125,P04,D05,1,0,1
38,-0.44,1644591850.46875,P04,D05,1,0,1
39,-0.24,1644591850.484375,P04,D05,1,0,1
40,-0.12,1644591850.5,P04,D05,1,0,1
41,-0.04,1644591850.515625,P04,D05,1,0,1
42,0.05,1644591850.53125,P04,D05,1,0,1
43,0.19,1644591850.546875,P04,D05,1,0,1
44,0.35,1644591850.5625,P04,D05,1,0,1
45,0.45,1644591850.578125,P04,D05,1,0,1
46,0.39,1644591850.59375,P04,D05,1,0,1
47,0.15,1644591850.609375,P04,D05,1,0,1
48,-0.21,1644591850.625,P04,D05,1,0,1
49,-0.59,1644591850.640625,P04,D05,1,0,1
50,-0.87,1644591850.65625,P04,D05,1,0,1
51,-1.0,1644591850.671875,P04,D05,1,0,1
52,-0.98,1644591850.6875,P04,D05,1,0,1
53,-0.83,1644591850.703125,P04,D05,1,0,1
54,-0.58,1644591850.71875,P04,D05,1,0,1
55,-0.28,1644591850.734375,P04,D05,1,0,1
56,0.04,1644591850.75,P04,D05,1,0,1
57,0.35,1644591850.765625,P04,D05,1,0,1
58,0.58,1644591850.78125,P04,D05,1,0,1
59,0.68,1644591850.796875,P04,D05,1,0,1
60,0.62,1644591850.8125,P04,D05,1,0,1
61,0.42,1644591850.828125,P04,D05,1,0,1
62,0.13,1644591850.84375,P04,D05,1,0,1
63,-0.16,1644591850.859375,P04,D05,1,0,1
64,-0.34,1644591850.875,P04,D05,1,0,1
65,-0.34,1644591850.890625,P04,D05,1,0,1
66,-0.12,1644591850.90625,P04,D05,1,0,1
67,0.24,1644591850.921875,P04,D05,1,0,1
68,0.62,1644591850.9375,P04,D05,1,0,1
69,0.89,1644591850.953125,P04,D05,1,0,1
70,0.97,1644591850.96875,P04,D05,1,0,1
71,0.87,1644591850.984375,P04,D05,1,0,1
72,0.67,1644591851.0,P04,D05,1,0,1
73,0.48,1644591851.015625,P04,D05,1,0,1
74,0.38,1644591851.03125,P04,D05,1,0,1
75,0.34,1644591851.046875,P04,D05,1,0,1
76,0.32,1644591851.0625,P04,D05,1,0,1
77,0.25,1644591851.078125,P04,D05,1,0,1
78,0.1,1644591851.09375,P04,D05,1,0,1
79,-0.15,1644591851.109375,P04,D05,1,0,1
80,-0.44,1644591851.125,P04,D05,1,0,1
81,-0.73,1644591851.140625,P04,D05,1,0,1
82,-0.97,1644591851.15625,P04,D05,1,0,1
83,-1.08,1644591851.171875,P04,D05,1,0,1
84,-1.04,1644591851.1875,P04,D05,1,0,1
85,-0.83,1644591851.203125,P04,D05,1,0,1
86,-0.49,1644591851.21875,P04,D05,1,0,1
87,-0.07,1644591851.234375,P04,D05,1,0,1
88,0.37,1644591851.25,P04,D05,1,0,1
89,0.78,1644591851.265625,P04,D05,1,0,1
90,1.09,1644591851.28125,P04,D05,1,0,1
91,1.26,1644591851.296875,P04,D05,1,0,1
92,1.25,1644591851.3125,P04,D05,1,0,1
93,1.05,1644591851.328125,P04,D05,1,0,1
94,0.71,1644591851.34375,P04,D05,1,0,1
95,0.35,1644591851.359375,P04,D05,1,0,1
96,0.1,1644591851.375,P04,D05,1,0,1
97,-0.01,1644591851.390625,P04,D05,1,0,1
98,0.01,1644591851.40625,P04,D05,1,0,1
99,0.04,1644591851.421875,P04,D05,1,0,1
100,-0.04,1644591851.4375,P04,D05,1,0,1
101,-0.27,1644591851.453125,P04,D05,1,0,1
102,-0.61,1644591851.46875,P04,D05,1,0,1
103,-0.96,1644591851.484375,P04,D05,1,0,1
104,-1.2,1644591851.5,P04,D05,1,0,1
105,-1.27,1644591851.515625,P04,D05,1,0,1
106,-1.17,1644591851.53125,P04,D05,1,0,1
107,-0.96,1644591851.546875,P04,D05,1,0,1
108,-0.67,1644591851.5625,P04,D05,1,0,1
109,-0.35,1644591851.578125,P04,D05,1,0,1
110,-0.0,1644591851.59375,P04,D05,1,0,1
111,0.34,1644591851.609375,P04,D05,1,0,1
112,0.61,1644591851.625,P04,D05,1,0,1
113,0.7,1644591851.640625,P04,D05,1,0,1
114,0.55,1644591851.65625,P04,D05,1,0,1
115,0.19,1644591851.671875,P04,D05,1,0,1
116,-0.25,1644591851.6875,P04,D05,1,0,1
117,-0.56,1644591851.703125,P04,D05,1,0,1
118,-0.61,1644591851.71875,P04,D05,1,0,1
119,-0.39,1644591851.734375,P04,D05,1,0,1
120,-0.04,1644591851.75,P04,D05,1,0,1
121,0.27,1644591851.765625,P04,D05,1,0,1
122,0.39,1644591851.78125,P04,D05,1,0,1
123,0.34,1644591851.796875,P04,D05,1,0,1
124,0.21,1644591851.8125,P04,D05,1,0,1
125,0.18,1644591851.828125,P04,D05,1,0,1
126,0.32,1644591851.84375,P04,D05,1,0,1
127,0.59,1644591851.859375,P04,D05,1,0,1
128,0.9,1644591851.875,P04,D05,1,0,1
129,1.11,1644591851.890625,P04,D05,1,0,1
130,1.15,1644591851.90625,P04,D05,1,0,1
131,1.01,1644591851.921875,P04,D05,1,0,1
132,0.73,1644591851.9375,P04,D05,1,0,1
133,0.38,1644591851.953125,P04,D05,1,0,1
134,-0.02,1644591851.96875,P04,D05,1,0,1
135,-0.41,1644591851.984375,P04,D05,1,0,1
136,-0.73,1644591852.0,P04,D05,1,0,1
137,-0.9,1644591852.015625,P04,D05,1,0,1
138,-0.85,1644591852.03125,P04,D05,1,0,1
139,-0.56,1644591852.046875,P04,D05,1,0,1
140,-0.11,1644591852.0625,P04,D05,1,0,1
141,0.38,1644591852.078125,P04,D05,1,0,1
142,0.74,1644591852.09375,P04,D05,1,0,1
143,0.87,1644591852.109375,P04,D05,1,0,1
144,0.75,1644591852.125,P04,D05,1,0,1
145,0.44,1644591852.140625,P04,D05,1,0,1
146,0.08,1644591852.15625,P04,D05,1,0,1
147,-0.22,1644591852.171875,P04,D05,1,0,1
148,-0.34,1644591852.1875,P04,D05,1,0,1
149,-0.28,1644591852.203125,P04,D05,1,0,1
150,-0.1,1644591852.21875,P04,D05,1,0,1
151,0.07,1644591852.234375,P04,D05,1,0,1
152,0.13,1644591852.25,P04,D05,1,0,1
153,0.05,1644591852.265625,P04,D05,1,0,1
154,-0.15,1644591852.28125,P04,D05,1,0,1
155,-0.39,1644591852.296875,P04,D05,1,0,1
156,-0.56,1644591852.3125,P04,D05,1,0,1
157,-0.6,1644591852.328125,P04,D05,1,0,1
158,-0.52,1644591852.34375,P04,D05,1,0,1
159,-0.36,1644591852.359375,P04,D05,1,0,1
160,-0.21,1644591852.375,P04,D05,1,0,1
161,-0.13,1644591852.390625,P04,D05,1,0,1
162,-0.15,1644591852.40625,P04,D05,1,0,1
163,-0.26,1644591852.421875,P04,D05,1,0,1
164,-0.4,1644591852.4375,P04,D05,1,0,1
165,-0.51,1644591852.453125,P04,D05,1,0,1
166,-0.54,1644591852.46875,P04,D05,1,0,1
167,-0.47,1644591852.484375,P04,D05,1,0,1
168,-0.35,1644591852.5,P04,D05,1,0,1
169,-0.2,1644591852.515625,P04,D05,1,0,1
170,-0.07,1644591852.53125,P04,D05,1,0,1
171,0.04,1644591852.546875,P04,D05,1,0,1
172,0.13,1644591852.5625,P04,D05,1,0,1
173,0.22,1644591852.578125,P04,D05,1,0,1
174,0.29,1644591852.59375,P04,D05,1,0,1
175,0.31,1644591852.609375,P04,D05,1,0,1
176,0.26,1644591852.625,P04,D05,1,0,1
177,0.14,1644591852.640625,P04,D05,1,0,1
178,0.03,1644591852.65625,P04,D05,1,0,1
179,-0.0,1644591852.671875,P04,D05,1,0,1
180,0.09,1644591852.6875,P04,D05,1,0,1
181,0.28,1644591852.703125,P04,D05,1,0,1
182,0.48,1644591852.71875,P04,D05,1,0,1
183,0.61,1644591852.734375,P04,D05,1,0,1
184,0.62,1644591852.75,P04,D05,1,0,1
185,0.54,1644591852.765625,P04,D05,1,0,1
186,0.45,1644591852.78125,P04,D05,1,0,1
187,0.37,1644591852.796875,P04,D05,1,0,1
188,0.31,1644591852.8125,P04,D05,1,0,1
189,0.24,1644591852.828125,P04,D05,1,0,1
190,0.13,1644591852.84375,P04,D05,1,0,1
191,-0.04,1644591852.859375,P04,D05,1,0,1
192,-0.23,1644591852.875,P04,D05,1,0,1
193,-0.43,1644591852.890625,P04,D05,1,0,1
194,-0.61,1644591852.90625,P04,D05,1,0,1
195,-0.8,1644591852.921875,P04,D05,1,0,1
196,-1.0,1644591852.9375,P04,D05,1,0,1
197,-1.17,1644591852.953125,P04,D05,1,0,1
198,-1.3,1644591852.96875,P04,D05,1,0,1
199,-1.32,1644591852.984375,P04,D05,1,0,1
200,-1.25,1644591853.0,P04,D05,1,0,1
201,-1.11,1644591853.015625,P04,D05,1,0,1
202,-0.95,1644591853.03125,P04,D05,1,0,1
203,-0.8,1644591853.046875,P04,D05,1,0,1
204,-0.64,1644591853.0625,P04,D05,1,0,1
205,-0.45,1644591853.078125,P04,D05,1,0,1
206,-0.23,1644591853.09375,P04,D05,1,0,1
207,-0.02,1644591853.109375,P04,D05,1,0,1
208,0.12,1644591853.125,P04,D05,1,0,1
209,0.16,1644591853.140625,P04,D05,1,0,1
210,0.11,1644591853.15625,P04,D05,1,0,1
211,0.03,1644591853.171875,P04,D05,1,0,1
212,0.02,1644591853.1875,P04,D05,1,0,1
213,0.13,1644591853.203125,P04,D05,1,0,1
214,0.32,1644591853.21875,P04,D05,1,0,1
215,0.53,1644591853.234375,P04,D05,1,0,1
216,0.62,1644591853.25,P04,D05,1,0,1
217,0.55,1644591853.265625,P04,D05,1,0,1
218,0.34,1644591853.28125,P04,D05,1,0,1
219,0.11,1644591853.296875,P04,D05,1,0,1
220,-0.03,1644591853.3125,P04,D05,1,0,1
221,0.05,1644591853.328125,P04,D05,1,0,1
222,0.33,1644591853.34375,P04,D05,1,0,1
223,0.74,1644591853.359375,P04,D05,1,0,1
224,1.12,1644591853.375,P04,D05,1,0,1
225,1.35,1644591853.390625,P04,D05,1,0,1
226,1.35,1644591853.40625,P04,D05,1,0,1
227,1.17,1644591853.421875,P04,D05,1,0,1
228,0.91,1644591853.4375,P04,D05,1,0,1
229,0.7,1644591853.453125,P04,D05,1,0,1
230,0.63,1644591853.46875,P04,D05,1,0,1
231,0.7,1644591853.484375,P04,D05,1,0,1
232,0.84,1644591853.5,P04,D05,1,0,1
233,0.93,1644591853.515625,P04,D05,1,0,1
234,0.89,1644591853.53125,P04,D05,1,0,1
235,0.71,1644591853.546875,P04,D05,1,0,1
236,0.46,1644591853.5625,P04,D05,1,0,1
237,0.26,1644591853.578125,P04,D05,1,0,1
238,0.17,1644591853.59375,P04,D05,1,0,1
239,0.21,1644591853.609375,P04,D05,1,0,1
240,0.29,1644591853.625,P04,D05,1,0,1
241,0.32,1644591853.640625,P04,D05,1,0,1
242,0.28,1644591853.65625,P04,D05,1,0,1
243,0.21,1644591853.671875,P04,D05,1,0,1
244,0.21,1644591853.6875,P04,D05,1,0,1
245,0.36,1644591853.703125,P04,D05,1,0,1
246,0.62,1644591853.71875,P04,D05,1,0,1
247,0.92,1644591853.734375,P04,D05,1,0,1
248,1.11,1644591853.75,P04,D05,1,0,1
249,1.1,1644591853.765625,P04,D05,1,0,1
250,0.88,1644591853.78125,P04,D05,1,0,1
251,0.52,1644591853.796875,P04,D05,1,0,1
252,0.12,1644591853.8125,P04,D05,1,0,1
253,-0.21,1644591853.828125,P04,D05,1,0,1
254,-0.4,1644591853.84375,P04,D05,1,0,1
255,-0.46,1644591853.859375,P04,D05,1,0,1
256,-0.42,1644591853.875,P04,D05,1,0,1
257,-0.34,1644591853.890625,P04,D05,1,0,1
258,-0.29,1644591853.90625,P04,D05,1,0,1
259,-0.31,1644591853.921875,P04,D05,1,0,1
260,-0.41,1644591853.9375,P04,D05,1,0,1
261,-0.57,1644591853.953125,P04,D05,1,0,1
262,-0.73,1644591853.96875,P04,D05,1,0,1
263,-0.81,1644591853.984375,P04,D05,1,0,1
264,-0.77,1644591854.0,P04,D05,1,0,1
265,-0.62,1644591854.015625,P04,D05,1,0,1
266,-0.42,1644591854.03125,P04,D05,1,0,1
267,-0.29,1644591854.046875,P04,D05,1,0,1
268,-0.34,1644591854.0625,P04,D05,1,0,1
269,-0.58,1644591854.078125,P04,D05,1,0,1
270,-0.94,1644591854.09375,P04,D05,1,0,1
271,-1.29,1644591854.109375,P04,D05,1,0,1
272,-1.5,1644591854.125,P04,D05,1,0,1
273,-1.49,1644591854.140625,P04,D05,1,0,1
274,-1.3,1644591854.15625,P04,D05,1,0,1
275,-1.02,1644591854.171875,P04,D05,1,0,1
276,-0.73,1644591854.1875,P04,D05,1,0,1
277,-0.48,1644591854.203125,P04,D05,1,0,1
278,-0.29,1644591854.21875,P04,D05,1,0,1
279,-0.15,1644591854.234375,P04,D05,1,0,1
280,-0.08,1644591854.25,P04,D05,1,0,1
281,-0.12,1644591854.265625,P04,D05,1,0,1
282,-0.29,1644591854.28125,P04,D05,1,0,1
283,-0.52,1644591854.296875,P04,D05,1,0,1
284,-0.7,1644591854.3125,P04,D05,1,0,1
285,-0.76,1644591854.328125,P04,D05,1,0,1
286,-0.66,1644591854.34375,P04,D05,1,0,1
287,-0.48,1644591854.359375,P04,D05,1,0,1
288,-0.37,1644591854.375,P04,D05,1,0,1
289,-0.39,1644591854.390625,P04,D05,1,0,1
290,-0.57,1644591854.40625,P04,D05,1,0,1
291,-0.81,1644591854.421875,P04,D05,1,0,1
292,-0.99,1644591854.4375,P04,D05,1,0,1
293,-0.99,1644591854.453125,P04,D05,1,0,1
294,-0.79,1644591854.46875,P04,D05,1,0,1
295,-0.41,1644591854.484375,P04,D05,1,0,1
296,0.08,1644591854.5,P04,D05,1,0,1
297,0.61,1644591854.515625,P04,D05,1,0,1
298,1.09,1644591854.53125,P04,D05,1,0,1
299,1.44,1644591854.546875,P04,D05,1,0,1
300,1.59,1644591854.5625,P04,D05,1,0,1
301,1.54,1644591854.578125,P04,D05,1,0,1
302,1.31,1644591854.59375,P04,D05,1,0,1
303,1.01,1644591854.609375,P04,D05,1,0,1
304,0.75,1644591854.625,P04,D05,1,0,1
305,0.59,1644591854.640625,P04,D05,1,0,1
306,0.56,1644591854.65625,P04,D05,1,0,1
307,0.61,1644591854.671875,P04,D05,1,0,1
308,0.67,1644591854.6875,P04,D05,1,0,1
309,0.68,1644591854.703125,P04,D05,1,0,1
310,0.61,1644591854.71875,P04,D05,1,0,1
311,0.47,1644591854.734375,P04,D05,1,0,1
312,0.28,1644591854.75,P04,D05,1,0,1
313,0.07,1644591854.765625,P04,D05,1,0,1
314,-0.17,1644591854.78125,P04,D05,1,0,1
315,-0.43,1644591854.796875,P04,D05,1,0,1
316,-0.66,1644591854.8125,P04,D05,1,0,1
317,-0.81,1644591854.828125,P04,D05,1,0,1
318,-0.84,1644591854.84375,P04,D05,1,0,1
319,-0.71,1644591854.859375,P04,D05,1,0,1
320,-0.45,1644591854.875,P04,D05,1,0,1
321,-0.12,1644591854.890625,P04,D05,1,0,1
322,0.19,1644591854.90625,P04,D05,1,0,1
323,0.38,1644591854.921875,P04,D05,1,0,1
324,0.41,1644591854.9375,P04,D05,1,0,1
325,0.28,1644591854.953125,P04,D05,1,0,1
326,0.01,1644591854.96875,P04,D05,1,0,1
327,-0.33,1644591854.984375,P04,D05,1,0,1
328,-0.67,1644591855.0,P04,D05,1,0,1
329,-0.94,1644591855.015625,P04,D05,1,0,1
330,-1.08,1644591855.03125,P04,D05,1,0,1
331,-1.06,1644591855.046875,P04,D05,1,0,1
332,-0.87,1644591855.0625,P04,D05,1,0,1
333,-0.53,1644591855.078125,P04,D05,1,0,1
334,-0.12,1644591855.09375,P04,D05,1,0,1
335,0.28,1644591855.109375,P04,D05,1,0,1
336,0.58,1644591855.125,P04,D05,1,0,1
337,0.72,1644591855.140625,P04,D05,1,0,1
338,0.71,1644591855.15625,P04,D05,1,0,1
339,0.6,1644591855.171875,P04,D05,1,0,1
340,0.49,1644591855.1875,P04,D05,1,0,1
341,0.43,1644591855.203125,P04,D05,1,0,1
342,0.43,1644591855.21875,P04,D05,1,0,1
343,0.41,1644591855.234375,P04,D05,1,0,1
344,0.31,1644591855.25,P04,D05,1,0,1
345,0.1,1644591855.265625,P04,D05,1,0,1
346,-0.19,1644591855.28125,P04,D05,1,0,1
347,-0.43,1644591855.296875,P04,D05,1,0,1
348,-0.52,1644591855.3125,P04,D05,1,0,1
349,-0.44,1644591855.328125,P04,D05,1,0,1
350,-0.29,1644591855.34375,P04,D05,1,0,1
351,-0.18,1644591855.359375,P04,D05,1,0,1
352,-0.22,1644591855.375,P04,D05,1,0,1
353,-0.38,1644591855.390625,P04,D05,1,0,1
354,-0.57,1644591855.40625,P04,D05,1,0,1
355,-0.64,1644591855.421875,P04,D05,1,0,1
356,-0.53,1644591855.4375,P04,D05,1,0,1
357,-0.28,1644591855.453125,P04,D05,1,0,1
358,0.0,1644591855.46875,P04,D05,1,0,1
359,0.18,1644591855.484375,P04,D05,1,0,1
360,0.21,1644591855.5,P04,D05,1,0,1
361,0.1,1644591855.515625,P04,D05,1,0,1
362,-0.05,1644591855.53125,P04,D05,1,0,1
363,-0.17,1644591855.546875,P04,D05,1,0,1
364,-0.2,1644591855.5625,P04,D05,1,0,1
365,-0.14,1644591855.578125,P04,D05,1,0,1
366,-0.01,1644591855.59375,P04,D05,1,0,1
367,0.15,1644591855.609375,P04,D05,1,0,1
368,0.29,1644591855.625,P04,D05,1,0,1
369,0.41,1644591855.640625,P04,D05,1,0,1
370,0.49,1644591855.65625,P04,D05,1,0,1
371,0.53,1644591855.671875,P04,D05,1,0,1
372,0.53,1644591855.6875,P04,D05,1,0,1
373,0.49,1644591855.703125,P04,D05,1,0,1
374,0.42,1644591855.71875,P04,D05,1,0,1
375,0.29,1644591855.734375,P04,D05,1,0,1
376,0.1,1644591855.75,P04,D05,1,0,1
377,-0.09,1644591855.765625,P04,D05,1,0,1
378,-0.19,1644591855.78125,P04,D05,1,0,1
379,-0.12,1644591855.796875,P04,D05,1,0,1
380,0.13,1644591855.8125,P04,D05,1,0,1
381,0.52,1644591855.828125,P04,D05,1,0,1
382,0.89,1644591855.84375,P04,D05,1,0,1
383,1.11,1644591855.859375,P04,D05,1,0,1
384,1.11,1644591855.875,P04,D05,1,0,1
385,0.93,1644591855.890625,P04,D05,1,0,1
386,0.66,1644591855.90625,P04,D05,1,0,1
387,0.41,1644591855.921875,P04,D05,1,0,1
388,0.23,1644591855.9375,P04,D05,1,0,1
389,0.12,1644591855.953125,P04,D05,1,0,1
390,0.08,1644591855.96875,P04,D05,1,0,1
391,0.08,1644591855.984375,P04,D05,1,0,1
392,0.15,1644591856.0,P04,D05,1,0,1
393,0.27,1644591856.015625,P04,D05,1,0,1
394,0.41,1644591856.03125,P04,D05,1,0,1
395,0.49,1644591856.046875,P04,D05,1,0,1
396,0.44,1644591856.0625,P04,D05,1,0,1
397,0.22,1644591856.078125,P04,D05,1,0,1
398,-0.1,1644591856.09375,P04,D05,1,0,1
399,-0.41,1644591856.109375,P04,D05,1,0,1
400,-0.58,1644591856.125,P04,D05,1,0,1
401,-0.57,1644591856.140625,P04,D05,1,0,1
402,-0.41,1644591856.15625,P04,D05,1,0,1
403,-0.17,1644591856.171875,P04,D05,1,0,1
404,0.02,1644591856.1875,P04,D05,1,0,1
405,0.08,1644591856.203125,P04,D05,1,0,1
406,0.01,1644591856.21875,P04,D05,1,0,1
407,-0.15,1644591856.234375,P04,D05,1,0,1
408,-0.32,1644591856.25,P04,D05,1,0,1
409,-0.43,1644591856.265625,P04,D05,1,0,1
410,-0.46,1644591856.28125,P04,D05,1,0,1
411,-0.44,1644591856.296875,P04,D05,1,0,1
412,-0.42,1644591856.3125,P04,D05,1,0,1
413,-0.46,1644591856.328125,P04,D05,1,0,1
414,-0.53,1644591856.34375,P04,D05,1,0,1
415,-0.59,1644591856.359375,P04,D05,1,0,1
416,-0.57,1644591856.375,P04,D05,1,0,1
417,-0.46,1644591856.390625,P04,D05,1,0,1
418,-0.29,1644591856.40625,P04,D05,1,0,1
419,-0.14,1644591856.421875,P04,D05,1,0,1
420,-0.06,1644591856.4375,P04,D05,1,0,1
421,-0.04,1644591856.453125,P04,D05,1,0,1
422,-0.04,1644591856.46875,P04,D05,1,0,1
423,0.01,1644591856.484375,P04,D05,1,0,1
424,0.13,1644591856.5,P04,D05,1,0,1
425,0.27,1644591856.515625,P04,D05,1,0,1
426,0.39,1644591856.53125,P04,D05,1,0,1
427,0.42,1644591856.546875,P04,D05,1,0,1
428,0.35,1644591856.5625,P04,D05,1,0,1
429,0.18,1644591856.578125,P04,D05,1,0,1
430,-0.04,1644591856.59375,P04,D05,1,0,1
431,-0.25,1644591856.609375,P04,D05,1,0,1
432,-0.37,1644591856.625,P04,D05,1,0,1
433,-0.36,1644591856.640625,P04,D05,1,0,1
434,-0.21,1644591856.65625,P04,D05,1,0,1
435,0.01,1644591856.671875,P04,D05,1,0,1
436,0.22,1644591856.6875,P04,D05,1,0,1
437,0.31,1644591856.703125,P04,D05,1,0,1
438,0.25,1644591856.71875,P04,D05,1,0,1
439,0.08,1644591856.734375,P04,D05,1,0,1
440,-0.1,1644591856.75,P04,D05,1,0,1
441,-0.19,1644591856.765625,P04,D05,1,0,1
442,-0.13,1644591856.78125,P04,D05,1,0,1
443,0.02,1644591856.796875,P04,D05,1,0,1
444,0.19,1644591856.8125,P04,D05,1,0,1
445,0.3,1644591856.828125,P04,D05,1,0,1
446,0.32,1644591856.84375,P04,D05,1,0,1
447,0.29,1644591856.859375,P04,D05,1,0,1
448,0.25,1644591856.875,P04,D05,1,0,1
449,0.24,1644591856.890625,P04,D05,1,0,1
450,0.25,1644591856.90625,P04,D05,1,0,1
451,0.26,1644591856.921875,P04,D05,1,0,1
452,0.25,1644591856.9375,P04,D05,1,0,1
453,0.19,1644591856.953125,P04,D05,1,0,1
454,0.1,1644591856.96875,P04,D05,1,0,1
455,-0.01,1644591856.984375,P04,D05,1,0,1
456,-0.1,1644591857.0,P04,D05,1,0,1
457,-0.17,1644591857.015625,P04,D05,1,0,1
458,-0.23,1644591857.03125,P04,D05,1,0,1
459,-0.3,1644591857.046875,P04,D05,1,0,1
460,-0.38,1644591857.0625,P04,D05,1,0,1
461,-0.47,1644591857.078125,P04,D05,1,0,1
462,-0.52,1644591857.09375,P04,D05,1,0,1
463,-0.5,1644591857.109375,P04,D05,1,0,1
464,-0.39,1644591857.125,P04,D05,1,0,1
465,-0.21,1644591857.140625,P04,D05,1,0,1
466,-0.02,1644591857.15625,P04,D05,1,0,1
467,0.12,1644591857.171875,P04,D05,1,0,1
468,0.18,1644591857.1875,P04,D05,1,0,1
469,0.19,1644591857.203125,P04,D05,1,0,1
470,0.17,1644591857.21875,P04,D05,1,0,1
471,0.16,1644591857.234375,P04,D05,1,0,1
472,0.17,1644591857.25,P04,D05,1,0,1
473,0.16,1644591857.265625,P04,D05,1,0,1
474,0.1,1644591857.28125,P04,D05,1,0,1
475,-0.0,1644591857.296875,P04,D05,1,0,1
476,-0.12,1644591857.3125,P04,D05,1,0,1
477,-0.21,1644591857.328125,P04,D05,1,0,1
478,-0.24,1644591857.34375,P04,D05,1,0,1
479,-0.19,1644591857.359375,P04,D05,1,0,1
480,-0.08,1644591857.375,P04,D05,1,0,1
481,0.03,1644591857.390625,P04,D05,1,0,1
482,0.12,1644591857.40625,P04,D05,1,0,1
483,0.15,1644591857.421875,P04,D05,1,0,1
484,0.14,1644591857.4375,P04,D05,1,0,1
485,0.11,1644591857.453125,P04,D05,1,0,1
486,0.07,1644591857.46875,P04,D05,1,0,1
487,0.04,1644591857.484375,P04,D05,1,0,1
488,0.01,1644591857.5,P04,D05,1,0,1
489,-0.01,1644591857.515625,P04,D05,1,0,1
490,-0.05,1644591857.53125,P04,D05,1,0,1
491,-0.07,1644591857.546875,P04,D05,1,0,1
492,-0.07,1644591857.5625,P04,D05,1,0,1
493,-0.02,1644591857.578125,P04,D05,1,0,1
494,0.07,1644591857.59375,P04,D05,1,0,1
495,0.16,1644591857.609375,P04,D05,1,0,1
496,0.24,1644591857.625,P04,D05,1,0,1
497,0.28,1644591857.640625,P04,D05,1,0,1
498,0.28,1644591857.65625,P04,D05,1,0,1
499,0.29,1644591857.671875,P04,D05,1,0,1
500,0.3,1644591857.6875,P04,D05,1,0,1
501,0.29,1644591857.703125,P04,D05,1,0,1
502,0.22,1644591857.71875,P04,D05,1,0,1
503,0.01,1644591857.734375,P04,D05,1,0,1
504,-0.34,1644591857.75,P04,D05,1,0,1
505,-0.79,1644591857.765625,P04,D05,1,0,1
506,-1.22,1644591857.78125,P04,D05,1,0,1
507,-1.53,1644591857.796875,P04,D05,1,0,1
508,-1.63,1644591857.8125,P04,D05,1,0,1
509,-1.51,1644591857.828125,P04,D05,1,0,1
510,-1.2,1644591857.84375,P04,D05,1,0,1
511,-0.81,1644591857.859375,P04,D05,1,0,1
512,-0.43,1644591857.875,P04,D05,1,0,1
513,-0.14,1644591857.890625,P04,D05,1,0,1
514,0.02,1644591857.90625,P04,D05,1,0,1
515,0.08,1644591857.921875,P04,D05,1,0,1
516,0.09,1644591857.9375,P04,D05,1,0,1
517,0.14,1644591857.953125,P04,D05,1,0,1
518,0.29,1644591857.96875,P04,D05,1,0,1
519,0.55,1644591857.984375,P04,D05,1,0,1
520,0.85,1644591858.0,P04,D05,1,0,1
521,1.08,1644591858.015625,P04,D05,1,0,1
522,1.13,1644591858.03125,P04,D05,1,0,1
523,0.96,1644591858.046875,P04,D05,1,0,1
524,0.63,1644591858.0625,P04,D05,1,0,1
525,0.25,1644591858.078125,P04,D05,1,0,1
526,-0.07,1644591858.09375,P04,D05,1,0,1
527,-0.26,1644591858.109375,P04,D05,1,0,1
528,-0.3,1644591858.125,P04,D05,1,0,1
529,-0.23,1644591858.140625,P04,D05,1,0,1
530,-0.07,1644591858.15625,P04,D05,1,0,1
531,0.16,1644591858.171875,P04,D05,1,0,1
532,0.44,1644591858.1875,P04,D05,1,0,1
533,0.7,1644591858.203125,P04,D05,1,0,1
534,0.85,1644591858.21875,P04,D05,1,0,1
535,0.84,1644591858.234375,P04,D05,1,0,1
536,0.65,1644591858.25,P04,D05,1,0,1
537,0.38,1644591858.265625,P04,D05,1,0,1
538,0.15,1644591858.28125,P04,D05,1,0,1
539,0.1,1644591858.296875,P04,D05,1,0,1
540,0.26,1644591858.3125,P04,D05,1,0,1
541,0.54,1644591858.328125,P04,D05,1,0,1
542,0.8,1644591858.34375,P04,D05,1,0,1
543,0.91,1644591858.359375,P04,D05,1,0,1
544,0.8,1644591858.375,P04,D05,1,0,1
545,0.53,1644591858.390625,P04,D05,1,0,1
546,0.2,1644591858.40625,P04,D05,1,0,1
547,-0.09,1644591858.421875,P04,D05,1,0,1
548,-0.28,1644591858.4375,P04,D05,1,0,1
549,-0.38,1644591858.453125,P04,D05,1,0,1
550,-0.42,1644591858.46875,P04,D05,1,0,1
551,-0.43,1644591858.484375,P04,D05,1,0,1
552,-0.42,1644591858.5,P04,D05,1,0,1
553,-0.36,1644591858.515625,P04,D05,1,0,1
554,-0.2,1644591858.53125,P04,D05,1,0,1
555,0.05,1644591858.546875,P04,D05,1,0,1
556,0.33,1644591858.5625,P04,D05,1,0,1
557,0.51,1644591858.578125,P04,D05,1,0,1
558,0.52,1644591858.59375,P04,D05,1,0,1
559,0.32,1644591858.609375,P04,D05,1,0,1
560,-0.0,1644591858.625,P04,D05,1,0,1
561,-0.31,1644591858.640625,P04,D05,1,0,1
562,-0.45,1644591858.65625,P04,D05,1,0,1
563,-0.39,1644591858.671875,P04,D05,1,0,1
564,-0.18,1644591858.6875,P04,D05,1,0,1
565,0.02,1644591858.703125,P04,D05,1,0,1
566,0.1,1644591858.71875,P04,D05,1,0,1
567,-0.0,1644591858.734375,P04,D05,1,0,1
568,-0.23,1644591858.75,P04,D05,1,0,1
569,-0.47,1644591858.765625,P04,D05,1,0,1
570,-0.62,1644591858.78125,P04,D05,1,0,1
571,-0.66,1644591858.796875,P04,D05,1,0,1
572,-0.6,1644591858.8125,P04,D05,1,0,1
573,-0.51,1644591858.828125,P04,D05,1,0,1
574,-0.42,1644591858.84375,P04,D05,1,0,1
575,-0.36,1644591858.859375,P04,D05,1,0,1
576,-0.3,1644591858.875,P04,D05,1,0,1
577,-0.24,1644591858.890625,P04,D05,1,0,1
578,-0.19,1644591858.90625,P04,D05,1,0,1
579,-0.18,1644591858.921875,P04,D05,1,0,1
580,-0.25,1644591858.9375,P04,D05,1,0,1
581,-0.4,1644591858.953125,P04,D05,1,0,1
582,-0.58,1644591858.96875,P04,D05,1,0,1
583,-0.72,1644591858.984375,P04,D05,1,0,1
584,-0.74,1644591859.0,P04,D05,1,0,1
585,-0.64,1644591859.015625,P04,D05,1,0,1
586,-0.45,1644591859.03125,P04,D05,1,0,1
587,-0.29,1644591859.046875,P04,D05,1,0,1
588,-0.21,1644591859.0625,P04,D05,1,0,1
589,-0.24,1644591859.078125,P04,D05,1,0,1
590,-0.3,1644591859.09375,P04,D05,1,0,1
591,-0.29,1644591859.109375,P04,D05,1,0,1
592,-0.12,1644591859.125,P04,D05,1,0,1
593,0.19,1644591859.140625,P04,D05,1,0,1
594,0.56,1644591859.15625,P04,D05,1,0,1
595,0.86,1644591859.171875,P04,D05,1,0,1
596,1.04,1644591859.1875,P04,D05,1,0,1
597,1.06,1644591859.203125,P04,D05,1,0,1
598,0.94,1644591859.21875,P04,D05,1,0,1
599,0.71,1644591859.234375,P04,D05,1,0,1
600,0.38,1644591859.25,P04,D05,1,0,1
601,0.0,1644591859.265625,P04,D05,1,0,1
602,-0.35,1644591859.28125,P04,D05,1,0,1
603,-0.57,1644591859.296875,P04,D05,1,0,1
604,-0.59,1644591859.3125,P04,D05,1,0,1
605,-0.4,1644591859.328125,P04,D05,1,0,1
606,-0.12,1644591859.34375,P04,D05,1,0,1
607,0.13,1644591859.359375,P04,D05,1,0,1
608,0.23,1644591859.375,P04,D05,1,0,1
609,0.17,1644591859.390625,P04,D05,1,0,1
610,-0.01,1644591859.40625,P04,D05,1,0,1
611,-0.21,1644591859.421875,P04,D05,1,0,1
612,-0.35,1644591859.4375,P04,D05,1,0,1
613,-0.42,1644591859.453125,P04,D05,1,0,1
614,-0.45,1644591859.46875,P04,D05,1,0,1
615,-0.45,1644591859.484375,P04,D05,1,0,1
616,-0.46,1644591859.5,P04,D05,1,0,1
617,-0.48,1644591859.515625,P04,D05,1,0,1
618,-0.49,1644591859.53125,P04,D05,1,0,1
619,-0.47,1644591859.546875,P04,D05,1,0,1
620,-0.41,1644591859.5625,P04,D05,1,0,1
621,-0.32,1644591859.578125,P04,D05,1,0,1
622,-0.22,1644591859.59375,P04,D05,1,0,1
623,-0.13,1644591859.609375,P04,D05,1,0,1
624,-0.07,1644591859.625,P04,D05,1,0,1
625,-0.07,1644591859.640625,P04,D05,1,0,1
626,-0.1,1644591859.65625,P04,D05,1,0,1
627,-0.1,1644591859.671875,P04,D05,1,0,1
628,-0.04,1644591859.6875,P04,D05,1,0,1
629,0.08,1644591859.703125,P04,D05,1,0,1
630,0.23,1644591859.71875,P04,D05,1,0,1
631,0.34,1644591859.734375,P04,D05,1,0,1
632,0.35,1644591859.75,P04,D05,1,0,1
633,0.29,1644591859.765625,P04,D05,1,0,1
634,0.23,1644591859.78125,P04,D05,1,0,1
635,0.27,1644591859.796875,P04,D05,1,0,1
636,0.45,1644591859.8125,P04,D05,1,0,1
637,0.76,1644591859.828125,P04,D05,1,0,1
638,1.11,1644591859.84375,P04,D05,1,0,1
639,1.39,1644591859.859375,P04,D05,1,0,1
640,1.52,1644591859.875,P04,D05,1,0,1
641,1.45,1644591859.890625,P04,D05,1,0,1
642,1.22,1644591859.90625,P04,D05,1,0,1
643,0.93,1644591859.921875,P04,D05,1,0,1
644,0.66,1644591859.9375,P04,D05,1,0,1
645,0.49,1644591859.953125,P04,D05,1,0,1
646,0.42,1644591859.96875,P04,D05,1,0,1
647,0.39,1644591859.984375,P04,D05,1,0,1
648,0.34,1644591860.0,P04,D05,1,0,1
649,0.2,1644591860.015625,P04,D05,1,0,1
650,-0.01,1644591860.03125,P04,D05,1,0,1
651,-0.25,1644591860.046875,P04,D05,1,0,1
652,-0.46,1644591860.0625,P04,D05,1,0,1
653,-0.58,1644591860.078125,P04,D05,1,0,1
654,-0.59,1644591860.09375,P04,D05,1,0,1
655,-0.53,1644591860.109375,P04,D05,1,0,1
656,-0.47,1644591860.125,P04,D05,1,0,1
657,-0.47,1644591860.140625,P04,D05,1,0,1
658,-0.53,1644591860.15625,P04,D05,1,0,1
659,-0.64,1644591860.171875,P04,D05,1,0,1
660,-0.69,1644591860.1875,P04,D05,1,0,1
661,-0.62,1644591860.203125,P04,D05,1,0,1
662,-0.41,1644591860.21875,P04,D05,1,0,1
663,-0.12,1644591860.234375,P04,D05,1,0,1
664,0.13,1644591860.25,P04,D05,1,0,1
665,0.22,1644591860.265625,P04,D05,1,0,1
666,0.11,1644591860.28125,P04,D05,1,0,1
667,-0.15,1644591860.296875,P04,D05,1,0,1
668,-0.44,1644591860.3125,P04,D05,1,0,1
669,-0.6,1644591860.328125,P04,D05,1,0,1
670,-0.54,1644591860.34375,P04,D05,1,0,1
671,-0.25,1644591860.359375,P04,D05,1,0,1
672,0.19,1644591860.375,P04,D05,1,0,1
673,0.65,1644591860.390625,P04,D05,1,0,1
674,0.98,1644591860.40625,P04,D05,1,0,1
675,1.1,1644591860.421875,P04,D05,1,0,1
676,1.01,1644591860.4375,P04,D05,1,0,1
677,0.79,1644591860.453125,P04,D05,1,0,1
678,0.56,1644591860.46875,P04,D05,1,0,1
679,0.42,1644591860.484375,P04,D05,1,0,1
680,0.39,1644591860.5,P04,D05,1,0,1
681,0.42,1644591860.515625,P04,D05,1,0,1
682,0.42,1644591860.53125,P04,D05,1,0,1
683,0.32,1644591860.546875,P04,D05,1,0,1
684,0.09,1644591860.5625,P04,D05,1,0,1
685,-0.22,1644591860.578125,P04,D05,1,0,1
686,-0.54,1644591860.59375,P04,D05,1,0,1
687,-0.86,1644591860.609375,P04,D05,1,0,1
688,-1.16,1644591860.625,P04,D05,1,0,1
689,-1.44,1644591860.640625,P04,D05,1,0,1
690,-1.66,1644591860.65625,P04,D05,1,0,1
691,-1.71,1644591860.671875,P04,D05,1,0,1
692,-1.55,1644591860.6875,P04,D05,1,0,1
693,-1.17,1644591860.703125,P04,D05,1,0,1
694,-0.69,1644591860.71875,P04,D05,1,0,1
695,-0.24,1644591860.734375,P04,D05,1,0,1
696,0.03,1644591860.75,P04,D05,1,0,1
697,0.11,1644591860.765625,P04,D05,1,0,1
698,0.09,1644591860.78125,P04,D05,1,0,1
699,0.12,1644591860.796875,P04,D05,1,0,1
700,0.32,1644591860.8125,P04,D05,1,0,1
701,0.73,1644591860.828125,P04,D05,1,0,1
702,1.27,1644591860.84375,P04,D05,1,0,1
703,1.79,1644591860.859375,P04,D05,1,0,1
704,2.16,1644591860.875,P04,D05,1,0,1
705,2.31,1644591860.890625,P04,D05,1,0,1
706,2.23,1644591860.90625,P04,D05,1,0,1
707,1.98,1644591860.921875,P04,D05,1,0,1
708,1.65,1644591860.9375,P04,D05,1,0,1
709,1.33,1644591860.953125,P04,D05,1,0,1
710,1.11,1644591860.96875,P04,D05,1,0,1
711,0.99,1644591860.984375,P04,D05,1,0,1
712,0.94,1644591861.0,P04,D05,1,0,1
713,0.89,1644591861.015625,P04,D05,1,0,1
714,0.77,1644591861.03125,P04,D05,1,0,1
715,0.58,1644591861.046875,P04,D05,1,0,1
716,0.34,1644591861.0625,P04,D05,1,0,1
717,0.07,1644591861.078125,P04,D05,1,0,1
718,-0.17,1644591861.09375,P04,D05,1,0,1
719,-0.37,1644591861.109375,P04,D05,1,0,1
720,-0.52,1644591861.125,P04,D05,1,0,1
721,-0.64,1644591861.140625,P04,D05,1,0,1
722,-0.71,1644591861.15625,P04,D05,1,0,1
723,-0.76,1644591861.171875,P04,D05,1,0,1
724,-0.81,1644591861.1875,P04,D05,1,0,1
725,-0.87,1644591861.203125,P04,D05,1,0,1
726,-0.94,1644591861.21875,P04,D05,1,0,1
727,-0.98,1644591861.234375,P04,D05,1,0,1
728,-0.94,1644591861.25,P04,D05,1,0,1
729,-0.76,1644591861.265625,P04,D05,1,0,1
730,-0.44,1644591861.28125,P04,D05,1,0,1
731,-0.02,1644591861.296875,P04,D05,1,0,1
732,0.4,1644591861.3125,P04,D05,1,0,1
733,0.72,1644591861.328125,P04,D05,1,0,1
734,0.9,1644591861.34375,P04,D05,1,0,1
735,0.94,1644591861.359375,P04,D05,1,0,1
736,0.84,1644591861.375,P04,D05,1,0,1
737,0.64,1644591861.390625,P04,D05,1,0,1
738,0.34,1644591861.40625,P04,D05,1,0,1
739,-0.05,1644591861.421875,P04,D05,1,0,1
740,-0.46,1644591861.4375,P04,D05,1,0,1
741,-0.81,1644591861.453125,P04,D05,1,0,1
742,-1.03,1644591861.46875,P04,D05,1,0,1
743,-1.09,1644591861.484375,P04,D05,1,0,1
744,-1.01,1644591861.5,P04,D05,1,0,1
745,-0.86,1644591861.515625,P04,D05,1,0,1
746,-0.72,1644591861.53125,P04,D05,1,0,1
747,-0.65,1644591861.546875,P04,D05,1,0,1
748,-0.66,1644591861.5625,P04,D05,1,0,1
749,-0.77,1644591861.578125,P04,D05,1,0,1
750,-0.95,1644591861.59375,P04,D05,1,0,1
751,-1.17,1644591861.609375,P04,D05,1,0,1
752,-1.39,1644591861.625,P04,D05,1,0,1
753,-1.56,1644591861.640625,P04,D05,1,0,1
754,-1.62,1644591861.65625,P04,D05,1,0,1
755,-1.51,1644591861.671875,P04,D05,1,0,1
756,-1.25,1644591861.6875,P04,D05,1,0,1
757,-0.9,1644591861.703125,P04,D05,1,0,1
758,-0.57,1644591861.71875,P04,D05,1,0,1
759,-0.35,1644591861.734375,P04,D05,1,0,1
760,-0.31,1644591861.75,P04,D05,1,0,1
761,-0.44,1644591861.765625,P04,D05,1,0,1
762,-0.62,1644591861.78125,P04,D05,1,0,1
763,-0.75,1644591861.796875,P04,D05,1,0,1
764,-0.69,1644591861.8125,P04,D05,1,0,1
765,-0.4,1644591861.828125,P04,D05,1,0,1
766,0.07,1644591861.84375,P04,D05,1,0,1
767,0.58,1644591861.859375,P04,D05,1,0,1
768,0.99,1644591861.875,P04,D05,1,0,1
769,1.22,1644591861.890625,P04,D05,1,0,1
770,1.25,1644591861.90625,P04,D05,1,0,1
771,1.19,1644591861.921875,P04,D05,1,0,1
772,1.12,1644591861.9375,P04,D05,1,0,1
773,1.08,1644591861.953125,P04,D05,1,0,1
774,1.08,1644591861.96875,P04,D05,1,0,1
775,1.04,1644591861.984375,P04,D05,1,0,1
776,0.95,1644591862.0,P04,D05,1,0,1
777,0.81,1644591862.015625,P04,D05,1,0,1
778,0.7,1644591862.03125,P04,D05,1,0,1
779,0.73,1644591862.046875,P04,D05,1,0,1
780,0.93,1644591862.0625,P04,D05,1,0,1
781,1.26,1644591862.078125,P04,D05,1,0,1
782,1.61,1644591862.09375,P04,D05,1,0,1
783,1.85,1644591862.109375,P04,D05,1,0,1
784,1.91,1644591862.125,P04,D05,1,0,1
785,1.8,1644591862.140625,P04,D05,1,0,1
786,1.59,1644591862.15625,P04,D05,1,0,1
787,1.4,1644591862.171875,P04,D05,1,0,1
788,1.31,1644591862.1875,P04,D05,1,0,1
789,1.33,1644591862.203125,P04,D05,1,0,1
790,1.39,1644591862.21875,P04,D05,1,0,1
791,1.36,1644591862.234375,P04,D05,1,0,1
792,1.15,1644591862.25,P04,D05,1,0,1
793,0.74,1644591862.265625,P04,D05,1,0,1
794,0.19,1644591862.28125,P04,D05,1,0,1
795,-0.37,1644591862.296875,P04,D05,1,0,1
796,-0.8,1644591862.3125,P04,D05,1,0,1
797,-1.04,1644591862.328125,P04,D05,1,0,1
798,-1.12,1644591862.34375,P04,D05,1,0,1
799,-1.17,1644591862.359375,P04,D05,1,0,1
800,-1.3,1644591862.375,P04,D05,1,0,1
801,-1.56,1644591862.390625,P04,D05,1,0,1
802,-1.91,1644591862.40625,P04,D05,1,0,1
803,-2.24,1644591862.421875,P04,D05,1,0,1
804,-2.46,1644591862.4375,P04,D05,1,0,1
805,-2.52,1644591862.453125,P04,D05,1,0,1
806,-2.43,1644591862.46875,P04,D05,1,0,1
807,-2.27,1644591862.484375,P04,D05,1,0,1
808,-2.07,1644591862.5,P04,D05,1,0,1
809,-1.88,1644591862.515625,P04,D05,1,0,1
810,-1.65,1644591862.53125,P04,D05,1,0,1
811,-1.38,1644591862.546875,P04,D05,1,0,1
812,-1.05,1644591862.5625,P04,D05,1,0,1
813,-0.69,1644591862.578125,P04,D05,1,0,1
814,-0.36,1644591862.59375,P04,D05,1,0,1
815,-0.1,1644591862.609375,P04,D05,1,0,1
816,0.08,1644591862.625,P04,D05,1,0,1
817,0.17,1644591862.640625,P04,D05,1,0,1
818,0.17,1644591862.65625,P04,D05,1,0,1
819,0.1,1644591862.671875,P04,D05,1,0,1
820,0.01,1644591862.6875,P04,D05,1,0,1
821,-0.1,1644591862.703125,P04,D05,1,0,1
822,-0.2,1644591862.71875,P04,D05,1,0,1
823,-0.29,1644591862.734375,P04,D05,1,0,1
824,-0.43,1644591862.75,P04,D05,1,0,1
825,-0.62,1644591862.765625,P04,D05,1,0,1
826,-0.88,1644591862.78125,P04,D05,1,0,1
827,-1.12,1644591862.796875,P04,D05,1,0,1
828,-1.29,1644591862.8125,P04,D05,1,0,1
829,-1.31,1644591862.828125,P04,D05,1,0,1
830,-1.19,1644591862.84375,P04,D05,1,0,1
831,-0.96,1644591862.859375,P04,D05,1,0,1
832,-0.7,1644591862.875,P04,D05,1,0,1
833,-0.49,1644591862.890625,P04,D05,1,0,1
834,-0.32,1644591862.90625,P04,D05,1,0,1
835,-0.17,1644591862.921875,P04,D05,1,0,1
836,-0.0,1644591862.9375,P04,D05,1,0,1
837,0.18,1644591862.953125,P04,D05,1,0,1
838,0.35,1644591862.96875,P04,D05,1,0,1
839,0.48,1644591862.984375,P04,D05,1,0,1
840,0.55,1644591863.0,P04,D05,1,0,1
841,0.6,1644591863.015625,P04,D05,1,0,1
842,0.69,1644591863.03125,P04,D05,1,0,1
843,0.84,1644591863.046875,P04,D05,1,0,1
844,1.04,1644591863.0625,P04,D05,1,0,1
845,1.21,1644591863.078125,P04,D05,1,0,1
846,1.3,1644591863.09375,P04,D05,1,0,1
847,1.29,1644591863.109375,P04,D05,1,0,1
848,1.19,1644591863.125,P04,D05,1,0,1
849,1.07,1644591863.140625,P04,D05,1,0,1
850,0.95,1644591863.15625,P04,D05,1,0,1
851,0.86,1644591863.171875,P04,D05,1,0,1
852,0.77,1644591863.1875,P04,D05,1,0,1
853,0.62,1644591863.203125,P04,D05,1,0,1
854,0.43,1644591863.21875,P04,D05,1,0,1
855,0.19,1644591863.234375,P04,D05,1,0,1
856,-0.03,1644591863.25,P04,D05,1,0,1
857,-0.17,1644591863.265625,P04,D05,1,0,1
858,-0.22,1644591863.28125,P04,D05,1,0,1
859,-0.16,1644591863.296875,P04,D05,1,0,1
860,-0.04,1644591863.3125,P04,D05,1,0,1
861,0.11,1644591863.328125,P04,D05,1,0,1
862,0.26,1644591863.34375,P04,D05,1,0,1
863,0.41,1644591863.359375,P04,D05,1,0,1
864,0.55,1644591863.375,P04,D05,1,0,1
865,0.69,1644591863.390625,P04,D05,1,0,1
866,0.78,1644591863.40625,P04,D05,1,0,1
867,0.79,1644591863.421875,P04,D05,1,0,1
868,0.7,1644591863.4375,P04,D05,1,0,1
869,0.49,1644591863.453125,P04,D05,1,0,1
870,0.23,1644591863.46875,P04,D05,1,0,1
871,-0.04,1644591863.484375,P04,D05,1,0,1
872,-0.24,1644591863.5,P04,D05,1,0,1
873,-0.32,1644591863.515625,P04,D05,1,0,1
874,-0.31,1644591863.53125,P04,D05,1,0,1
875,-0.25,1644591863.546875,P04,D05,1,0,1
876,-0.25,1644591863.5625,P04,D05,1,0,1
877,-0.37,1644591863.578125,P04,D05,1,0,1
878,-0.64,1644591863.59375,P04,D05,1,0,1
879,-1.03,1644591863.609375,P04,D05,1,0,1
880,-1.43,1644591863.625,P04,D05,1,0,1
881,-1.73,1644591863.640625,P04,D05,1,0,1
882,-1.82,1644591863.65625,P04,D05,1,0,1
883,-1.69,1644591863.671875,P04,D05,1,0,1
884,-1.37,1644591863.6875,P04,D05,1,0,1
885,-0.94,1644591863.703125,P04,D05,1,0,1
886,-0.5,1644591863.71875,P04,D05,1,0,1
887,-0.12,1644591863.734375,P04,D05,1,0,1
888,0.16,1644591863.75,P04,D05,1,0,1
889,0.32,1644591863.765625,P04,D05,1,0,1
890,0.37,1644591863.78125,P04,D05,1,0,1
891,0.35,1644591863.796875,P04,D05,1,0,1
892,0.33,1644591863.8125,P04,D05,1,0,1
893,0.36,1644591863.828125,P04,D05,1,0,1
894,0.49,1644591863.84375,P04,D05,1,0,1
895,0.7,1644591863.859375,P04,D05,1,0,1
896,0.91,1644591863.875,P04,D05,1,0,1
897,1.05,1644591863.890625,P04,D05,1,0,1
898,1.07,1644591863.90625,P04,D05,1,0,1
899,0.99,1644591863.921875,P04,D05,1,0,1
900,0.89,1644591863.9375,P04,D05,1,0,1
901,0.84,1644591863.953125,P04,D05,1,0,1
902,0.88,1644591863.96875,P04,D05,1,0,1
903,0.96,1644591863.984375,P04,D05,1,0,1
904,1.03,1644591864.0,P04,D05,1,0,1
905,1.07,1644591864.015625,P04,D05,1,0,1
906,1.07,1644591864.03125,P04,D05,1,0,1
907,1.07,1644591864.046875,P04,D05,1,0,1
908,1.05,1644591864.0625,P04,D05,1,0,1
909,1.02,1644591864.078125,P04,D05,1,0,1
910,0.95,1644591864.09375,P04,D05,1,0,1
911,0.83,1644591864.109375,P04,D05,1,0,1
912,0.71,1644591864.125,P04,D05,1,0,1
913,0.64,1644591864.140625,P04,D05,1,0,1
914,0.65,1644591864.15625,P04,D05,1,0,1
915,0.71,1644591864.171875,P04,D05,1,0,1
916,0.74,1644591864.1875,P04,D05,1,0,1
917,0.68,1644591864.203125,P04,D05,1,0,1
918,0.52,1644591864.21875,P04,D05,1,0,1
919,0.31,1644591864.234375,P04,D05,1,0,1
920,0.12,1644591864.25,P04,D05,1,0,1
921,0.03,1644591864.265625,P04,D05,1,0,1
922,0.03,1644591864.28125,P04,D05,1,0,1
923,0.1,1644591864.296875,P04,D05,1,0,1
924,0.17,1644591864.3125,P04,D05,1,0,1
925,0.2,1644591864.328125,P04,D05,1,0,1
926,0.16,1644591864.34375,P04,D05,1,0,1
927,0.06,1644591864.359375,P04,D05,1,0,1
928,-0.07,1644591864.375,P04,D05,1,0,1
929,-0.15,1644591864.390625,P04,D05,1,0,1
930,-0.13,1644591864.40625,P04,D05,1,0,1
931,0.02,1644591864.421875,P04,D05,1,0,1
932,0.24,1644591864.4375,P04,D05,1,0,1
933,0.44,1644591864.453125,P04,D05,1,0,1
934,0.5,1644591864.46875,P04,D05,1,0,1
935,0.35,1644591864.484375,P04,D05,1,0,1
936,0.04,1644591864.5,P04,D05,1,0,1
937,-0.31,1644591864.515625,P04,D05,1,0,1
938,-0.56,1644591864.53125,P04,D05,1,0,1
939,-0.62,1644591864.546875,P04,D05,1,0,1
940,-0.47,1644591864.5625,P04,D05,1,0,1
941,-0.22,1644591864.578125,P04,D05,1,0,1
942,0.0,1644591864.59375,P04,D05,1,0,1
943,0.1,1644591864.609375,P04,D05,1,0,1
944,0.01,1644591864.625,P04,D05,1,0,1
945,-0.25,1644591864.640625,P04,D05,1,0,1
946,-0.6,1644591864.65625,P04,D05,1,0,1
947,-0.96,1644591864.671875,P04,D05,1,0,1
948,-1.22,1644591864.6875,P04,D05,1,0,1
949,-1.33,1644591864.703125,P04,D05,1,0,1
950,-1.27,1644591864.71875,P04,D05,1,0,1
951,-1.06,1644591864.734375,P04,D05,1,0,1
952,-0.78,1644591864.75,P04,D05,1,0,1
953,-0.49,1644591864.765625,P04,D05,1,0,1
954,-0.28,1644591864.78125,P04,D05,1,0,1
955,-0.19,1644591864.796875,P04,D05,1,0,1
956,-0.22,1644591864.8125,P04,D05,1,0,1
957,-0.33,1644591864.828125,P04,D05,1,0,1
958,-0.44,1644591864.84375,P04,D05,1,0,1
959,-0.49,1644591864.859375,P04,D05,1,0,1
960,-0.45,1644591864.875,P04,D05,1,0,1
961,-0.34,1644591864.890625,P04,D05,1,0,1
962,-0.21,1644591864.90625,P04,D05,1,0,1
963,-0.1,1644591864.921875,P04,D05,1,0,1
964,-0.03,1644591864.9375,P04,D05,1,0,1
965,0.02,1644591864.953125,P04,D05,1,0,1
966,0.11,1644591864.96875,P04,D05,1,0,1
967,0.26,1644591864.984375,P04,D05,1,0,1
968,0.44,1644591865.0,P04,D05,1,0,1
969,0.59,1644591865.015625,P04,D05,1,0,1
970,0.61,1644591865.03125,P04,D05,1,0,1
971,0.48,1644591865.046875,P04,D05,1,0,1
972,0.22,1644591865.0625,P04,D05,1,0,1
973,-0.04,1644591865.078125,P04,D05,1,0,1
974,-0.19,1644591865.09375,P04,D05,1,0,1
975,-0.18,1644591865.109375,P04,D05,1,0,1
976,-0.04,1644591865.125,P04,D05,1,0,1
977,0.11,1644591865.140625,P04,D05,1,0,1
978,0.14,1644591865.15625,P04,D05,1,0,1
979,-0.02,1644591865.171875,P04,D05,1,0,1
980,-0.32,1644591865.1875,P04,D05,1,0,1
981,-0.64,1644591865.203125,P04,D05,1,0,1
982,-0.81,1644591865.21875,P04,D05,1,0,1
983,-0.74,1644591865.234375,P04,D05,1,0,1
984,-0.45,1644591865.25,P04,D05,1,0,1
985,-0.06,1644591865.265625,P04,D05,1,0,1
986,0.27,1644591865.28125,P04,D05,1,0,1
987,0.44,1644591865.296875,P04,D05,1,0,1
988,0.43,1644591865.3125,P04,D05,1,0,1
989,0.27,1644591865.328125,P04,D05,1,0,1
990,0.04,1644591865.34375,P04,D05,1,0,1
991,-0.21,1644591865.359375,P04,D05,1,0,1
992,-0.44,1644591865.375,P04,D05,1,0,1
993,-0.64,1644591865.390625,P04,D05,1,0,1
994,-0.8,1644591865.40625,P04,D05,1,0,1
995,-0.89,1644591865.421875,P04,D05,1,0,1
996,-0.89,1644591865.4375,P04,D05,1,0,1
997,-0.79,1644591865.453125,P04,D05,1,0,1
998,-0.62,1644591865.46875,P04,D05,1,0,1
999,-0.46,1644591865.484375,P04,D05,1,0,1
1000,-0.38,1644591865.5,P04,D05,1,0,1
1001,-0.39,1644591865.515625,P04,D05,1,0,1
1002,-0.46,1644591865.53125,P04,D05,1,0,1
1003,-0.48,1644591865.546875,P04,D05,1,0,1
1004,-0.38,1644591865.5625,P04,D05,1,0,1
1005,-0.14,1644591865.578125,P04,D05,1,0,1
1006,0.15,1644591865.59375,P04,D05,1,0,1
1007,0.37,1644591865.609375,P04,D05,1,0,1
1008,0.44,1644591865.625,P04,D05,1,0,1
1009,0.36,1644591865.640625,P04,D05,1,0,1
1010,0.22,1644591865.65625,P04,D05,1,0,1
1011,0.17,1644591865.671875,P04,D05,1,0,1
1012,0.31,1644591865.6875,P04,D05,1,0,1
1013,0.63,1644591865.703125,P04,D05,1,0,1
1014,1.04,1644591865.71875,P04,D05,1,0,1
1015,1.38,1644591865.734375,P04,D05,1,0,1
1016,1.55,1644591865.75,P04,D05,1,0,1
1017,1.51,1644591865.765625,P04,D05,1,0,1
1018,1.29,1644591865.78125,P04,D05,1,0,1
1019,0.96,1644591865.796875,P04,D05,1,0,1
1020,0.61,1644591865.8125,P04,D05,1,0,1
1021,0.28,1644591865.828125,P04,D05,1,0,1
1022,-0.0,1644591865.84375,P04,D05,1,0,1
1023,-0.19,1644591865.859375,P04,D05,1,0,1
1024,-0.25,1644591865.875,P04,D05,1,0,1
1025,-0.19,1644591865.890625,P04,D05,1,0,1
1026,-0.06,1644591865.90625,P04,D05,1,0,1
1027,0.06,1644591865.921875,P04,D05,1,0,1
1028,0.08,1644591865.9375,P04,D05,1,0,1
1029,-0.04,1644591865.953125,P04,D05,1,0,1
1030,-0.28,1644591865.96875,P04,D05,1,0,1
1031,-0.59,1644591865.984375,P04,D05,1,0,1
1032,-0.91,1644591866.0,P04,D05,1,0,1
1033,-1.17,1644591866.015625,P04,D05,1,0,1
1034,-1.35,1644591866.03125,P04,D05,1,0,1
1035,-1.44,1644591866.046875,P04,D05,1,0,1
1036,-1.41,1644591866.0625,P04,D05,1,0,1
1037,-1.26,1644591866.078125,P04,D05,1,0,1
1038,-1.01,1644591866.09375,P04,D05,1,0,1
1039,-0.68,1644591866.109375,P04,D05,1,0,1
1040,-0.33,1644591866.125,P04,D05,1,0,1
1041,0.01,1644591866.140625,P04,D05,1,0,1
1042,0.3,1644591866.15625,P04,D05,1,0,1
1043,0.52,1644591866.171875,P04,D05,1,0,1
1044,0.65,1644591866.1875,P04,D05,1,0,1
1045,0.68,1644591866.203125,P04,D05,1,0,1
1046,0.6,1644591866.21875,P04,D05,1,0,1
1047,0.47,1644591866.234375,P04,D05,1,0,1
1048,0.32,1644591866.25,P04,D05,1,0,1
1049,0.18,1644591866.265625,P04,D05,1,0,1
1050,0.03,1644591866.28125,P04,D05,1,0,1
1051,-0.14,1644591866.296875,P04,D05,1,0,1
1052,-0.36,1644591866.3125,P04,D05,1,0,1
1053,-0.54,1644591866.328125,P04,D05,1,0,1
1054,-0.62,1644591866.34375,P04,D05,1,0,1
1055,-0.52,1644591866.359375,P04,D05,1,0,1
1056,-0.26,1644591866.375,P04,D05,1,0,1
1057,0.02,1644591866.390625,P04,D05,1,0,1
1058,0.19,1644591866.40625,P04,D05,1,0,1
1059,0.14,1644591866.421875,P04,D05,1,0,1
1060,-0.1,1644591866.4375,P04,D05,1,0,1
1061,-0.38,1644591866.453125,P04,D05,1,0,1
1062,-0.59,1644591866.46875,P04,D05,1,0,1
1063,-0.64,1644591866.484375,P04,D05,1,0,1
1064,-0.57,1644591866.5,P04,D05,1,0,1
1065,-0.44,1644591866.515625,P04,D05,1,0,1
1066,-0.32,1644591866.53125,P04,D05,1,0,1
1067,-0.2,1644591866.546875,P04,D05,1,0,1
1068,-0.07,1644591866.5625,P04,D05,1,0,1
1069,0.08,1644591866.578125,P04,D05,1,0,1
1070,0.22,1644591866.59375,P04,D05,1,0,1
1071,0.32,1644591866.609375,P04,D05,1,0,1
1072,0.35,1644591866.625,P04,D05,1,0,1
1073,0.33,1644591866.640625,P04,D05,1,0,1
1074,0.31,1644591866.65625,P04,D05,1,0,1
1075,0.37,1644591866.671875,P04,D05,1,0,1
1076,0.53,1644591866.6875,P04,D05,1,0,1
1077,0.76,1644591866.703125,P04,D05,1,0,1
1078,0.99,1644591866.71875,P04,D05,1,0,1
1079,1.17,1644591866.734375,P04,D05,1,0,1
1080,1.26,1644591866.75,P04,D05,1,0,1
1081,1.26,1644591866.765625,P04,D05,1,0,1
1082,1.18,1644591866.78125,P04,D05,1,0,1
1083,1.02,1644591866.796875,P04,D05,1,0,1
1084,0.79,1644591866.8125,P04,D05,1,0,1
1085,0.53,1644591866.828125,P04,D05,1,0,1
1086,0.27,1644591866.84375,P04,D05,1,0,1
1087,0.09,1644591866.859375,P04,D05,1,0,1
1088,0.01,1644591866.875,P04,D05,1,0,1
1089,0.02,1644591866.890625,P04,D05,1,0,1
1090,0.06,1644591866.90625,P04,D05,1,0,1
1091,0.06,1644591866.921875,P04,D05,1,0,1
1092,0.0,1644591866.9375,P04,D05,1,0,1
1093,-0.09,1644591866.953125,P04,D05,1,0,1
1094,-0.15,1644591866.96875,P04,D05,1,0,1
1095,-0.11,1644591866.984375,P04,D05,1,0,1
1096,0.02,1644591867.0,P04,D05,1,0,1
1097,0.19,1644591867.015625,P04,D05,1,0,1
1098,0.29,1644591867.03125,P04,D05,1,0,1
1099,0.24,1644591867.046875,P04,D05,1,0,1
1100,0.06,1644591867.0625,P04,D05,1,0,1
1101,-0.18,1644591867.078125,P04,D05,1,0,1
1102,-0.34,1644591867.09375,P04,D05,1,0,1
1103,-0.37,1644591867.109375,P04,D05,1,0,1
1104,-0.29,1644591867.125,P04,D05,1,0,1
1105,-0.21,1644591867.140625,P04,D05,1,0,1
1106,-0.22,1644591867.15625,P04,D05,1,0,1
1107,-0.38,1644591867.171875,P04,D05,1,0,1
1108,-0.63,1644591867.1875,P04,D05,1,0,1
1109,-0.85,1644591867.203125,P04,D05,1,0,1
1110,-0.96,1644591867.21875,P04,D05,1,0,1
1111,-0.9,1644591867.234375,P04,D05,1,0,1
1112,-0.7,1644591867.25,P04,D05,1,0,1
1113,-0.43,1644591867.265625,P04,D05,1,0,1
1114,-0.14,1644591867.28125,P04,D05,1,0,1
1115,0.12,1644591867.296875,P04,D05,1,0,1
1116,0.33,1644591867.3125,P04,D05,1,0,1
1117,0.49,1644591867.328125,P04,D05,1,0,1
1118,0.57,1644591867.34375,P04,D05,1,0,1
1119,0.58,1644591867.359375,P04,D05,1,0,1
1120,0.51,1644591867.375,P04,D05,1,0,1
1121,0.4,1644591867.390625,P04,D05,1,0,1
1122,0.3,1644591867.40625,P04,D05,1,0,1
1123,0.26,1644591867.421875,P04,D05,1,0,1
1124,0.29,1644591867.4375,P04,D05,1,0,1
1125,0.36,1644591867.453125,P04,D05,1,0,1
1126,0.45,1644591867.46875,P04,D05,1,0,1
1127,0.5,1644591867.484375,P04,D05,1,0,1
1128,0.49,1644591867.5,P04,D05,1,0,1
1129,0.4,1644591867.515625,P04,D05,1,0,1
1130,0.29,1644591867.53125,P04,D05,1,0,1
1131,0.2,1644591867.546875,P04,D05,1,0,1
1132,0.21,1644591867.5625,P04,D05,1,0,1
1133,0.35,1644591867.578125,P04,D05,1,0,1
1134,0.61,1644591867.59375,P04,D05,1,0,1
1135,0.89,1644591867.609375,P04,D05,1,0,1
1136,1.05,1644591867.625,P04,D05,1,0,1
1137,0.94,1644591867.640625,P04,D05,1,0,1
1138,0.49,1644591867.65625,P04,D05,1,0,1
1139,-0.25,1644591867.671875,P04,D05,1,0,1
1140,-1.13,1644591867.6875,P04,D05,1,0,1
1141,-1.92,1644591867.703125,P04,D05,1,0,1
1142,-2.43,1644591867.71875,P04,D05,1,0,1
1143,-2.55,1644591867.734375,P04,D05,1,0,1
1144,-2.3,1644591867.75,P04,D05,1,0,1
1145,-1.82,1644591867.765625,P04,D05,1,0,1
1146,-1.29,1644591867.78125,P04,D05,1,0,1
1147,-0.83,1644591867.796875,P04,D05,1,0,1
1148,-0.51,1644591867.8125,P04,D05,1,0,1
1149,-0.29,1644591867.828125,P04,D05,1,0,1
1150,-0.14,1644591867.84375,P04,D05,1,0,1
1151,-0.03,1644591867.859375,P04,D05,1,0,1
1152,0.03,1644591867.875,P04,D05,1,0,1
1153,-0.01,1644591867.890625,P04,D05,1,0,1
1154,-0.14,1644591867.90625,P04,D05,1,0,1
1155,-0.32,1644591867.921875,P04,D05,1,0,1
1156,-0.46,1644591867.9375,P04,D05,1,0,1
1157,-0.46,1644591867.953125,P04,D05,1,0,1
1158,-0.29,1644591867.96875,P04,D05,1,0,1
1159,-0.01,1644591867.984375,P04,D05,1,0,1
1160,0.3,1644591868.0,P04,D05,1,0,1
1161,0.54,1644591868.015625,P04,D05,1,0,1
1162,0.68,1644591868.03125,P04,D05,1,0,1
1163,0.75,1644591868.046875,P04,D05,1,0,1
1164,0.84,1644591868.0625,P04,D05,1,0,1
1165,1.0,1644591868.078125,P04,D05,1,0,1
1166,1.23,1644591868.09375,P04,D05,1,0,1
1167,1.43,1644591868.109375,P04,D05,1,0,1
1168,1.47,1644591868.125,P04,D05,1,0,1
1169,1.28,1644591868.140625,P04,D05,1,0,1
1170,0.84,1644591868.15625,P04,D05,1,0,1
1171,0.27,1644591868.171875,P04,D05,1,0,1
1172,-0.28,1644591868.1875,P04,D05,1,0,1
1173,-0.63,1644591868.203125,P04,D05,1,0,1
1174,-0.71,1644591868.21875,P04,D05,1,0,1
1175,-0.55,1644591868.234375,P04,D05,1,0,1
1176,-0.25,1644591868.25,P04,D05,1,0,1
1177,0.04,1644591868.265625,P04,D05,1,0,1
1178,0.22,1644591868.28125,P04,D05,1,0,1
1179,0.25,1644591868.296875,P04,D05,1,0,1
1180,0.19,1644591868.3125,P04,D05,1,0,1
1181,0.09,1644591868.328125,P04,D05,1,0,1
1182,0.03,1644591868.34375,P04,D05,1,0,1
1183,0.04,1644591868.359375,P04,D05,1,0,1
1184,0.15,1644591868.375,P04,D05,1,0,1
1185,0.34,1644591868.390625,P04,D05,1,0,1
1186,0.58,1644591868.40625,P04,D05,1,0,1
1187,0.82,1644591868.421875,P04,D05,1,0,1
1188,0.98,1644591868.4375,P04,D05,1,0,1
1189,0.98,1644591868.453125,P04,D05,1,0,1
1190,0.81,1644591868.46875,P04,D05,1,0,1
1191,0.52,1644591868.484375,P04,D05,1,0,1
1192,0.18,1644591868.5,P04,D05,1,0,1
1193,-0.1,1644591868.515625,P04,D05,1,0,1
1194,-0.26,1644591868.53125,P04,D05,1,0,1
1195,-0.33,1644591868.546875,P04,D05,1,0,1
1196,-0.37,1644591868.5625,P04,D05,1,0,1
1197,-0.46,1644591868.578125,P04,D05,1,0,1
1198,-0.61,1644591868.59375,P04,D05,1,0,1
1199,-0.78,1644591868.609375,P04,D05,1,0,1
1200,-0.88,1644591868.625,P04,D05,1,0,1
1201,-0.85,1644591868.640625,P04,D05,1,0,1
1202,-0.68,1644591868.65625,P04,D05,1,0,1
1203,-0.45,1644591868.671875,P04,D05,1,0,1
1204,-0.27,1644591868.6875,P04,D05,1,0,1
1205,-0.19,1644591868.703125,P04,D05,1,0,1
1206,-0.23,1644591868.71875,P04,D05,1,0,1
1207,-0.34,1644591868.734375,P04,D05,1,0,1
1208,-0.43,1644591868.75,P04,D05,1,0,1
1209,-0.47,1644591868.765625,P04,D05,1,0,1
1210,-0.43,1644591868.78125,P04,D05,1,0,1
1211,-0.36,1644591868.796875,P04,D05,1,0,1
1212,-0.26,1644591868.8125,P04,D05,1,0,1
1213,-0.11,1644591868.828125,P04,D05,1,0,1
1214,0.11,1644591868.84375,P04,D05,1,0,1
1215,0.39,1644591868.859375,P04,D05,1,0,1
1216,0.69,1644591868.875,P04,D05,1,0,1
1217,0.93,1644591868.890625,P04,D05,1,0,1
1218,1.01,1644591868.90625,P04,D05,1,0,1
1219,0.9,1644591868.921875,P04,D05,1,0,1
1220,0.64,1644591868.9375,P04,D05,1,0,1
1221,0.3,1644591868.953125,P04,D05,1,0,1
1222,-0.01,1644591868.96875,P04,D05,1,0,1
1223,-0.26,1644591868.984375,P04,D05,1,0,1
1224,-0.41,1644591869.0,P04,D05,1,0,1
1225,-0.48,1644591869.015625,P04,D05,1,0,1
1226,-0.46,1644591869.03125,P04,D05,1,0,1
1227,-0.37,1644591869.046875,P04,D05,1,0,1
1228,-0.19,1644591869.0625,P04,D05,1,0,1
1229,0.04,1644591869.078125,P04,D05,1,0,1
1230,0.25,1644591869.09375,P04,D05,1,0,1
1231,0.39,1644591869.109375,P04,D05,1,0,1
1232,0.41,1644591869.125,P04,D05,1,0,1
1233,0.29,1644591869.140625,P04,D05,1,0,1
1234,0.06,1644591869.15625,P04,D05,1,0,1
1235,-0.18,1644591869.171875,P04,D05,1,0,1
1236,-0.39,1644591869.1875,P04,D05,1,0,1
1237,-0.49,1644591869.203125,P04,D05,1,0,1
1238,-0.47,1644591869.21875,P04,D05,1,0,1
1239,-0.35,1644591869.234375,P04,D05,1,0,1
1240,-0.2,1644591869.25,P04,D05,1,0,1
1241,-0.1,1644591869.265625,P04,D05,1,0,1
1242,-0.07,1644591869.28125,P04,D05,1,0,1
1243,-0.13,1644591869.296875,P04,D05,1,0,1
1244,-0.24,1644591869.3125,P04,D05,1,0,1
1245,-0.36,1644591869.328125,P04,D05,1,0,1
1246,-0.47,1644591869.34375,P04,D05,1,0,1
1247,-0.56,1644591869.359375,P04,D05,1,0,1
1248,-0.63,1644591869.375,P04,D05,1,0,1
1249,-0.69,1644591869.390625,P04,D05,1,0,1
1250,-0.73,1644591869.40625,P04,D05,1,0,1
1251,-0.71,1644591869.421875,P04,D05,1,0,1
1252,-0.6,1644591869.4375,P04,D05,1,0,1
1253,-0.38,1644591869.453125,P04,D05,1,0,1
1254,-0.03,1644591869.46875,P04,D05,1,0,1
1255,0.39,1644591869.484375,P04,D05,1,0,1
1256,0.8,1644591869.5,P04,D05,1,0,1
1257,1.12,1644591869.515625,P04,D05,1,0,1
1258,1.27,1644591869.53125,P04,D05,1,0,1
1259,1.21,1644591869.546875,P04,D05,1,0,1
1260,0.95,1644591869.5625,P04,D05,1,0,1
1261,0.58,1644591869.578125,P04,D05,1,0,1
1262,0.19,1644591869.59375,P04,D05,1,0,1
1263,-0.1,1644591869.609375,P04,D05,1,0,1
1264,-0.22,1644591869.625,P04,D05,1,0,1
1265,-0.18,1644591869.640625,P04,D05,1,0,1
1266,-0.02,1644591869.65625,P04,D05,1,0,1
1267,0.18,1644591869.671875,P04,D05,1,0,1
1268,0.34,1644591869.6875,P04,D05,1,0,1
1269,0.4,1644591869.703125,P04,D05,1,0,1
1270,0.34,1644591869.71875,P04,D05,1,0,1
1271,0.18,1644591869.734375,P04,D05,1,0,1
1272,-0.03,1644591869.75,P04,D05,1,0,1
1273,-0.24,1644591869.765625,P04,D05,1,0,1
1274,-0.4,1644591869.78125,P04,D05,1,0,1
1275,-0.46,1644591869.796875,P04,D05,1,0,1
1276,-0.44,1644591869.8125,P04,D05,1,0,1
1277,-0.37,1644591869.828125,P04,D05,1,0,1
1278,-0.27,1644591869.84375,P04,D05,1,0,1
1279,-0.2,1644591869.859375,P04,D05,1,0,1
1280,-0.17,1644591869.875,P04,D05,1,0,1
1281,-0.18,1644591869.890625,P04,D05,1,0,1
1282,-0.25,1644591869.90625,P04,D05,1,0,1
1283,-0.33,1644591869.921875,P04,D05,1,0,1
1284,-0.43,1644591869.9375,P04,D05,1,0,1
1285,-0.49,1644591869.953125,P04,D05,1,0,1
1286,-0.5,1644591869.96875,P04,D05,1,0,1
1287,-0.44,1644591869.984375,P04,D05,1,0,1
1288,-0.3,1644591870.0,P04,D05,1,0,1
1289,-0.14,1644591870.015625,P04,D05,1,0,1
1290,0.01,1644591870.03125,P04,D05,1,0,1
1291,0.08,1644591870.046875,P04,D05,1,0,1
1292,0.06,1644591870.0625,P04,D05,1,0,1
1293,0.04,1644591870.078125,P04,D05,1,0,1
1294,0.1,1644591870.09375,P04,D05,1,0,1
1295,0.32,1644591870.109375,P04,D05,1,0,1
1296,0.67,1644591870.125,P04,D05,1,0,1
1297,1.05,1644591870.140625,P04,D05,1,0,1
1298,1.29,1644591870.15625,P04,D05,1,0,1
1299,1.28,1644591870.171875,P04,D05,1,0,1
1300,1.03,1644591870.1875,P04,D05,1,0,1
1301,0.64,1644591870.203125,P04,D05,1,0,1
1302,0.27,1644591870.21875,P04,D05,1,0,1
1303,0.04,1644591870.234375,P04,D05,1,0,1
1304,-0.05,1644591870.25,P04,D05,1,0,1
1305,-0.08,1644591870.265625,P04,D05,1,0,1
1306,-0.14,1644591870.28125,P04,D05,1,0,1
1307,-0.3,1644591870.296875,P04,D05,1,0,1
1308,-0.53,1644591870.3125,P04,D05,1,0,1
1309,-0.73,1644591870.328125,P04,D05,1,0,1
1310,-0.81,1644591870.34375,P04,D05,1,0,1
1311,-0.72,1644591870.359375,P04,D05,1,0,1
1312,-0.5,1644591870.375,P04,D05,1,0,1
1313,-0.25,1644591870.390625,P04,D05,1,0,1
1314,-0.06,1644591870.40625,P04,D05,1,0,1
1315,0.01,1644591870.421875,P04,D05,1,0,1
1316,-0.04,1644591870.4375,P04,D05,1,0,1
1317,-0.15,1644591870.453125,P04,D05,1,0,1
1318,-0.26,1644591870.46875,P04,D05,1,0,1
1319,-0.33,1644591870.484375,P04,D05,1,0,1
1320,-0.41,1644591870.5,P04,D05,1,0,1
1321,-0.52,1644591870.515625,P04,D05,1,0,1
1322,-0.7,1644591870.53125,P04,D05,1,0,1
1323,-0.9,1644591870.546875,P04,D05,1,0,1
1324,-1.03,1644591870.5625,P04,D05,1,0,1
1325,-1.0,1644591870.578125,P04,D05,1,0,1
1326,-0.76,1644591870.59375,P04,D05,1,0,1
1327,-0.35,1644591870.609375,P04,D05,1,0,1
1328,0.13,1644591870.625,P04,D05,1,0,1
1329,0.58,1644591870.640625,P04,D05,1,0,1
1330,0.91,1644591870.65625,P04,D05,1,0,1
1331,1.1,1644591870.671875,P04,D05,1,0,1
1332,1.16,1644591870.6875,P04,D05,1,0,1
1333,1.13,1644591870.703125,P04,D05,1,0,1
1334,1.08,1644591870.71875,P04,D05,1,0,1
1335,1.05,1644591870.734375,P04,D05,1,0,1
1336,1.07,1644591870.75,P04,D05,1,0,1
1337,1.14,1644591870.765625,P04,D05,1,0,1
1338,1.21,1644591870.78125,P04,D05,1,0,1
1339,1.26,1644591870.796875,P04,D05,1,0,1
1340,1.23,1644591870.8125,P04,D05,1,0,1
1341,1.16,1644591870.828125,P04,D05,1,0,1
1342,1.07,1644591870.84375,P04,D05,1,0,1
1343,0.98,1644591870.859375,P04,D05,1,0,1
1344,0.86,1644591870.875,P04,D05,1,0,1
1345,0.64,1644591870.890625,P04,D05,1,0,1
1346,0.28,1644591870.90625,P04,D05,1,0,1
1347,-0.21,1644591870.921875,P04,D05,1,0,1
1348,-0.72,1644591870.9375,P04,D05,1,0,1
1349,-1.1,1644591870.953125,P04,D05,1,0,1
1350,-1.24,1644591870.96875,P04,D05,1,0,1
1351,-1.11,1644591870.984375,P04,D05,1,0,1
1352,-0.82,1644591871.0,P04,D05,1,0,1
1353,-0.54,1644591871.015625,P04,D05,1,0,1
1354,-0.43,1644591871.03125,P04,D05,1,0,1
1355,-0.5,1644591871.046875,P04,D05,1,0,1
1356,-0.7,1644591871.0625,P04,D05,1,0,1
1357,-0.89,1644591871.078125,P04,D05,1,0,1
1358,-0.95,1644591871.09375,P04,D05,1,0,1
1359,-0.85,1644591871.109375,P04,D05,1,0,1
1360,-0.65,1644591871.125,P04,D05,1,0,1
1361,-0.44,1644591871.140625,P04,D05,1,0,1
1362,-0.3,1644591871.15625,P04,D05,1,0,1
1363,-0.28,1644591871.171875,P04,D05,1,0,1
1364,-0.33,1644591871.1875,P04,D05,1,0,1
1365,-0.4,1644591871.203125,P04,D05,1,0,1
1366,-0.4,1644591871.21875,P04,D05,1,0,1
1367,-0.33,1644591871.234375,P04,D05,1,0,1
1368,-0.22,1644591871.25,P04,D05,1,0,1
1369,-0.12,1644591871.265625,P04,D05,1,0,1
1370,-0.08,1644591871.28125,P04,D05,1,0,1
1371,-0.12,1644591871.296875,P04,D05,1,0,1
1372,-0.17,1644591871.3125,P04,D05,1,0,1
1373,-0.19,1644591871.328125,P04,D05,1,0,1
1374,-0.12,1644591871.34375,P04,D05,1,0,1
1375,0.03,1644591871.359375,P04,D05,1,0,1
1376,0.2,1644591871.375,P04,D05,1,0,1
1377,0.33,1644591871.390625,P04,D05,1,0,1
1378,0.35,1644591871.40625,P04,D05,1,0,1
1379,0.26,1644591871.421875,P04,D05,1,0,1
1380,0.11,1644591871.4375,P04,D05,1,0,1
1381,-0.03,1644591871.453125,P04,D05,1,0,1
1382,-0.12,1644591871.46875,P04,D05,1,0,1
1383,-0.15,1644591871.484375,P04,D05,1,0,1
1384,-0.15,1644591871.5,P04,D05,1,0,1
1385,-0.15,1644591871.515625,P04,D05,1,0,1
1386,-0.13,1644591871.53125,P04,D05,1,0,1
1387,-0.09,1644591871.546875,P04,D05,1,0,1
1388,0.02,1644591871.5625,P04,D05,1,0,1
1389,0.2,1644591871.578125,P04,D05,1,0,1
1390,0.38,1644591871.59375,P04,D05,1,0,1
1391,0.51,1644591871.609375,P04,D05,1,0,1
1392,0.54,1644591871.625,P04,D05,1,0,1
1393,0.48,1644591871.640625,P04,D05,1,0,1
1394,0.38,1644591871.65625,P04,D05,1,0,1
1395,0.33,1644591871.671875,P04,D05,1,0,1
1396,0.38,1644591871.6875,P04,D05,1,0,1
1397,0.53,1644591871.703125,P04,D05,1,0,1
1398,0.73,1644591871.71875,P04,D05,1,0,1
1399,0.85,1644591871.734375,P04,D05,1,0,1
1400,0.84,1644591871.75,P04,D05,1,0,1
1401,0.66,1644591871.765625,P04,D05,1,0,1
1402,0.38,1644591871.78125,P04,D05,1,0,1
1403,0.12,1644591871.796875,P04,D05,1,0,1
1404,-0.02,1644591871.8125,P04,D05,1,0,1
1405,0.03,1644591871.828125,P04,D05,1,0,1
1406,0.24,1644591871.84375,P04,D05,1,0,1
1407,0.52,1644591871.859375,P04,D05,1,0,1
1408,0.72,1644591871.875,P04,D05,1,0,1
1409,0.73,1644591871.890625,P04,D05,1,0,1
1410,0.5,1644591871.90625,P04,D05,1,0,1
1411,0.11,1644591871.921875,P04,D05,1,0,1
1412,-0.31,1644591871.9375,P04,D05,1,0,1
1413,-0.61,1644591871.953125,P04,D05,1,0,1
1414,-0.69,1644591871.96875,P04,D05,1,0,1
1415,-0.55,1644591871.984375,P04,D05,1,0,1
1416,-0.3,1644591872.0,P04,D05,1,0,1
1417,-0.04,1644591872.015625,P04,D05,1,0,1
1418,0.11,1644591872.03125,P04,D05,1,0,1
1419,0.11,1644591872.046875,P04,D05,1,0,1
1420,-0.0,1644591872.0625,P04,D05,1,0,1
1421,-0.19,1644591872.078125,P04,D05,1,0,1
1422,-0.4,1644591872.09375,P04,D05,1,0,1
1423,-0.57,1644591872.109375,P04,D05,1,0,1
1424,-0.7,1644591872.125,P04,D05,1,0,1
1425,-0.76,1644591872.140625,P04,D05,1,0,1
1426,-0.76,1644591872.15625,P04,D05,1,0,1
1427,-0.7,1644591872.171875,P04,D05,1,0,1
1428,-0.57,1644591872.1875,P04,D05,1,0,1
1429,-0.41,1644591872.203125,P04,D05,1,0,1
1430,-0.26,1644591872.21875,P04,D05,1,0,1
1431,-0.17,1644591872.234375,P04,D05,1,0,1
1432,-0.2,1644591872.25,P04,D05,1,0,1
1433,-0.34,1644591872.265625,P04,D05,1,0,1
1434,-0.57,1644591872.28125,P04,D05,1,0,1
1435,-0.78,1644591872.296875,P04,D05,1,0,1
1436,-0.91,1644591872.3125,P04,D05,1,0,1
1437,-0.92,1644591872.328125,P04,D05,1,0,1
1438,-0.83,1644591872.34375,P04,D05,1,0,1
1439,-0.7,1644591872.359375,P04,D05,1,0,1
1440,-0.59,1644591872.375,P04,D05,1,0,1
1441,-0.54,1644591872.390625,P04,D05,1,0,1
1442,-0.54,1644591872.40625,P04,D05,1,0,1
1443,-0.55,1644591872.421875,P04,D05,1,0,1
1444,-0.57,1644591872.4375,P04,D05,1,0,1
1445,-0.57,1644591872.453125,P04,D05,1,0,1
1446,-0.55,1644591872.46875,P04,D05,1,0,1
1447,-0.51,1644591872.484375,P04,D05,1,0,1
1448,-0.41,1644591872.5,P04,D05,1,0,1
1449,-0.25,1644591872.515625,P04,D05,1,0,1
1450,-0.02,1644591872.53125,P04,D05,1,0,1
1451,0.24,1644591872.546875,P04,D05,1,0,1
1452,0.47,1644591872.5625,P04,D05,1,0,1
1453,0.61,1644591872.578125,P04,D05,1,0,1
1454,0.66,1644591872.59375,P04,D05,1,0,1
1455,0.63,1644591872.609375,P04,D05,1,0,1
1456,0.58,1644591872.625,P04,D05,1,0,1
1457,0.55,1644591872.640625,P04,D05,1,0,1
1458,0.56,1644591872.65625,P04,D05,1,0,1
1459,0.6,1644591872.671875,P04,D05,1,0,1
1460,0.66,1644591872.6875,P04,D05,1,0,1
1461,0.72,1644591872.703125,P04,D05,1,0,1
1462,0.8,1644591872.71875,P04,D05,1,0,1
1463,0.89,1644591872.734375,P04,D05,1,0,1
1464,1.02,1644591872.75,P04,D05,1,0,1
1465,1.16,1644591872.765625,P04,D05,1,0,1
1466,1.28,1644591872.78125,P04,D05,1,0,1
1467,1.32,1644591872.796875,P04,D05,1,0,1
1468,1.26,1644591872.8125,P04,D05,1,0,1
1469,1.1,1644591872.828125,P04,D05,1,0,1
1470,0.89,1644591872.84375,P04,D05,1,0,1
1471,0.69,1644591872.859375,P04,D05,1,0,1
1472,0.54,1644591872.875,P04,D05,1,0,1
1473,0.45,1644591872.890625,P04,D05,1,0,1
1474,0.36,1644591872.90625,P04,D05,1,0,1
1475,0.2,1644591872.921875,P04,D05,1,0,1
1476,-0.07,1644591872.9375,P04,D05,1,0,1
1477,-0.4,1644591872.953125,P04,D05,1,0,1
1478,-0.71,1644591872.96875,P04,D05,1,0,1
1479,-0.87,1644591872.984375,P04,D05,1,0,1
1480,-0.79,1644591873.0,P04,D05,1,0,1
1481,-0.49,1644591873.015625,P04,D05,1,0,1
1482,-0.07,1644591873.03125,P04,D05,1,0,1
1483,0.31,1644591873.046875,P04,D05,1,0,1
1484,0.51,1644591873.0625,P04,D05,1,0,1
1485,0.48,1644591873.078125,P04,D05,1,0,1
1486,0.29,1644591873.09375,P04,D05,1,0,1
1487,0.05,1644591873.109375,P04,D05,1,0,1
1488,-0.12,1644591873.125,P04,D05,1,0,1
1489,-0.17,1644591873.140625,P04,D05,1,0,1
1490,-0.12,1644591873.15625,P04,D05,1,0,1
1491,-0.05,1644591873.171875,P04,D05,1,0,1
1492,-0.01,1644591873.1875,P04,D05,1,0,1
1493,-0.07,1644591873.203125,P04,D05,1,0,1
1494,-0.22,1644591873.21875,P04,D05,1,0,1
1495,-0.41,1644591873.234375,P04,D05,1,0,1
1496,-0.59,1644591873.25,P04,D05,1,0,1
1497,-0.71,1644591873.265625,P04,D05,1,0,1
1498,-0.77,1644591873.28125,P04,D05,1,0,1
1499,-0.81,1644591873.296875,P04,D05,1,0,1
1500,-0.83,1644591873.3125,P04,D05,1,0,1
1501,-0.84,1644591873.328125,P04,D05,1,0,1
1502,-0.82,1644591873.34375,P04,D05,1,0,1
1503,-0.75,1644591873.359375,P04,D05,1,0,1
1504,-0.66,1644591873.375,P04,D05,1,0,1
1505,-0.6,1644591873.390625,P04,D05,1,0,1
1506,-0.59,1644591873.40625,P04,D05,1,0,1
1507,-0.59,1644591873.421875,P04,D05,1,0,1
1508,-0.52,1644591873.4375,P04,D05,1,0,1
1509,-0.28,1644591873.453125,P04,D05,1,0,1
1510,0.2,1644591873.46875,P04,D05,1,0,1
1511,0.82,1644591873.484375,P04,D05,1,0,1
1512,1.38,1644591873.5,P04,D05,1,0,1
1513,1.69,1644591873.515625,P04,D05,1,0,1
1514,1.62,1644591873.53125,P04,D05,1,0,1
1515,1.2,1644591873.546875,P04,D05,1,0,1
1516,0.62,1644591873.5625,P04,D05,1,0,1
1517,0.09,1644591873.578125,P04,D05,1,0,1
1518,-0.25,1644591873.59375,P04,D05,1,0,1
1519,-0.36,1644591873.609375,P04,D05,1,0,1
1520,-0.29,1644591873.625,P04,D05,1,0,1
1521,-0.13,1644591873.640625,P04,D05,1,0,1
1522,0.06,1644591873.65625,P04,D05,1,0,1
1523,0.26,1644591873.671875,P04,D05,1,0,1
1524,0.45,1644591873.6875,P04,D05,1,0,1
1525,0.64,1644591873.703125,P04,D05,1,0,1
1526,0.78,1644591873.71875,P04,D05,1,0,1
1527,0.82,1644591873.734375,P04,D05,1,0,1
1528,0.7,1644591873.75,P04,D05,1,0,1
1529,0.42,1644591873.765625,P04,D05,1,0,1
1530,0.03,1644591873.78125,P04,D05,1,0,1
1531,-0.37,1644591873.796875,P04,D05,1,0,1
1532,-0.63,1644591873.8125,P04,D05,1,0,1
1533,-0.66,1644591873.828125,P04,D05,1,0,1
1534,-0.43,1644591873.84375,P04,D05,1,0,1
1535,-0.01,1644591873.859375,P04,D05,1,0,1
1536,0.48,1644591873.875,P04,D05,1,0,1
1537,0.86,1644591873.890625,P04,D05,1,0,1
1538,1.03,1644591873.90625,P04,D05,1,0,1
1539,0.93,1644591873.921875,P04,D05,1,0,1
1540,0.58,1644591873.9375,P04,D05,1,0,1
1541,0.06,1644591873.953125,P04,D05,1,0,1
1542,-0.52,1644591873.96875,P04,D05,1,0,1
1543,-1.05,1644591873.984375,P04,D05,1,0,1
1544,-1.46,1644591874.0,P04,D05,1,0,1
1545,-1.72,1644591874.015625,P04,D05,1,0,1
1546,-1.78,1644591874.03125,P04,D05,1,0,1
1547,-1.65,1644591874.046875,P04,D05,1,0,1
1548,-1.31,1644591874.0625,P04,D05,1,0,1
1549,-0.82,1644591874.078125,P04,D05,1,0,1
1550,-0.28,1644591874.09375,P04,D05,1,0,1
1551,0.18,1644591874.109375,P04,D05,1,0,1
1552,0.46,1644591874.125,P04,D05,1,0,1
1553,0.53,1644591874.140625,P04,D05,1,0,1
1554,0.45,1644591874.15625,P04,D05,1,0,1
1555,0.32,1644591874.171875,P04,D05,1,0,1
1556,0.22,1644591874.1875,P04,D05,1,0,1
1557,0.18,1644591874.203125,P04,D05,1,0,1
1558,0.19,1644591874.21875,P04,D05,1,0,1
1559,0.2,1644591874.234375,P04,D05,1,0,1
1560,0.17,1644591874.25,P04,D05,1,0,1
1561,0.1,1644591874.265625,P04,D05,1,0,1
1562,-0.0,1644591874.28125,P04,D05,1,0,1
1563,-0.13,1644591874.296875,P04,D05,1,0,1
1564,-0.28,1644591874.3125,P04,D05,1,0,1
1565,-0.43,1644591874.328125,P04,D05,1,0,1
1566,-0.54,1644591874.34375,P04,D05,1,0,1
1567,-0.54,1644591874.359375,P04,D05,1,0,1
1568,-0.39,1644591874.375,P04,D05,1,0,1
1569,-0.11,1644591874.390625,P04,D05,1,0,1
1570,0.23,1644591874.40625,P04,D05,1,0,1
1571,0.53,1644591874.421875,P04,D05,1,0,1
1572,0.73,1644591874.4375,P04,D05,1,0,1
1573,0.83,1644591874.453125,P04,D05,1,0,1
1574,0.83,1644591874.46875,P04,D05,1,0,1
1575,0.74,1644591874.484375,P04,D05,1,0,1
1576,0.55,1644591874.5,P04,D05,1,0,1
1577,0.26,1644591874.515625,P04,D05,1,0,1
1578,-0.1,1644591874.53125,P04,D05,1,0,1
1579,-0.43,1644591874.546875,P04,D05,1,0,1
1580,-0.64,1644591874.5625,P04,D05,1,0,1
1581,-0.69,1644591874.578125,P04,D05,1,0,1
1582,-0.59,1644591874.59375,P04,D05,1,0,1
1583,-0.43,1644591874.609375,P04,D05,1,0,1
1584,-0.32,1644591874.625,P04,D05,1,0,1
1585,-0.31,1644591874.640625,P04,D05,1,0,1
1586,-0.42,1644591874.65625,P04,D05,1,0,1
1587,-0.57,1644591874.671875,P04,D05,1,0,1
1588,-0.69,1644591874.6875,P04,D05,1,0,1
1589,-0.72,1644591874.703125,P04,D05,1,0,1
1590,-0.62,1644591874.71875,P04,D05,1,0,1
1591,-0.39,1644591874.734375,P04,D05,1,0,1
1592,-0.06,1644591874.75,P04,D05,1,0,1
1593,0.31,1644591874.765625,P04,D05,1,0,1
1594,0.65,1644591874.78125,P04,D05,1,0,1
1595,0.88,1644591874.796875,P04,D05,1,0,1
1596,0.97,1644591874.8125,P04,D05,1,0,1
1597,0.89,1644591874.828125,P04,D05,1,0,1
1598,0.7,1644591874.84375,P04,D05,1,0,1
1599,0.45,1644591874.859375,P04,D05,1,0,1
1600,0.21,1644591874.875,P04,D05,1,0,1
1601,0.0,1644591874.890625,P04,D05,1,0,1
1602,-0.14,1644591874.90625,P04,D05,1,0,1
1603,-0.21,1644591874.921875,P04,D05,1,0,1
1604,-0.19,1644591874.9375,P04,D05,1,0,1
1605,-0.07,1644591874.953125,P04,D05,1,0,1
1606,0.16,1644591874.96875,P04,D05,1,0,1
1607,0.46,1644591874.984375,P04,D05,1,0,1
1608,0.77,1644591875.0,P04,D05,1,0,1
1609,1.02,1644591875.015625,P04,D05,1,0,1
1610,1.13,1644591875.03125,P04,D05,1,0,1
1611,1.04,1644591875.046875,P04,D05,1,0,1
1612,0.78,1644591875.0625,P04,D05,1,0,1
1613,0.41,1644591875.078125,P04,D05,1,0,1
1614,0.05,1644591875.09375,P04,D05,1,0,1
1615,-0.18,1644591875.109375,P04,D05,1,0,1
1616,-0.26,1644591875.125,P04,D05,1,0,1
1617,-0.25,1644591875.140625,P04,D05,1,0,1
1618,-0.25,1644591875.15625,P04,D05,1,0,1
1619,-0.37,1644591875.171875,P04,D05,1,0,1
1620,-0.6,1644591875.1875,P04,D05,1,0,1
1621,-0.83,1644591875.203125,P04,D05,1,0,1
1622,-0.91,1644591875.21875,P04,D05,1,0,1
1623,-0.72,1644591875.234375,P04,D05,1,0,1
1624,-0.28,1644591875.25,P04,D05,1,0,1
1625,0.25,1644591875.265625,P04,D05,1,0,1
1626,0.67,1644591875.28125,P04,D05,1,0,1
1627,0.82,1644591875.296875,P04,D05,1,0,1
1628,0.67,1644591875.3125,P04,D05,1,0,1
1629,0.33,1644591875.328125,P04,D05,1,0,1
1630,-0.02,1644591875.34375,P04,D05,1,0,1
1631,-0.25,1644591875.359375,P04,D05,1,0,1
1632,-0.29,1644591875.375,P04,D05,1,0,1
1633,-0.15,1644591875.390625,P04,D05,1,0,1
1634,0.1,1644591875.40625,P04,D05,1,0,1
1635,0.4,1644591875.421875,P04,D05,1,0,1
1636,0.68,1644591875.4375,P04,D05,1,0,1
1637,0.94,1644591875.453125,P04,D05,1,0,1
1638,1.15,1644591875.46875,P04,D05,1,0,1
1639,1.25,1644591875.484375,P04,D05,1,0,1
1640,1.2,1644591875.5,P04,D05,1,0,1
1641,0.98,1644591875.515625,P04,D05,1,0,1
1642,0.6,1644591875.53125,P04,D05,1,0,1
1643,0.13,1644591875.546875,P04,D05,1,0,1
1644,-0.36,1644591875.5625,P04,D05,1,0,1
1645,-0.78,1644591875.578125,P04,D05,1,0,1
1646,-1.06,1644591875.59375,P04,D05,1,0,1
1647,-1.21,1644591875.609375,P04,D05,1,0,1
1648,-1.3,1644591875.625,P04,D05,1,0,1
1649,-1.4,1644591875.640625,P04,D05,1,0,1
1650,-1.55,1644591875.65625,P04,D05,1,0,1
1651,-1.73,1644591875.671875,P04,D05,1,0,1
1652,-1.83,1644591875.6875,P04,D05,1,0,1
1653,-1.77,1644591875.703125,P04,D05,1,0,1
1654,-1.51,1644591875.71875,P04,D05,1,0,1
1655,-1.12,1644591875.734375,P04,D05,1,0,1
1656,-0.73,1644591875.75,P04,D05,1,0,1
1657,-0.46,1644591875.765625,P04,D05,1,0,1
1658,-0.37,1644591875.78125,P04,D05,1,0,1
1659,-0.38,1644591875.796875,P04,D05,1,0,1
1660,-0.37,1644591875.8125,P04,D05,1,0,1
1661,-0.23,1644591875.828125,P04,D05,1,0,1
1662,0.09,1644591875.84375,P04,D05,1,0,1
1663,0.53,1644591875.859375,P04,D05,1,0,1
1664,1.02,1644591875.875,P04,D05,1,0,1
1665,1.43,1644591875.890625,P04,D05,1,0,1
1666,1.72,1644591875.90625,P04,D05,1,0,1
1667,1.83,1644591875.921875,P04,D05,1,0,1
1668,1.74,1644591875.9375,P04,D05,1,0,1
1669,1.44,1644591875.953125,P04,D05,1,0,1
1670,0.97,1644591875.96875,P04,D05,1,0,1
1671,0.43,1644591875.984375,P04,D05,1,0,1
1672,-0.06,1644591876.0,P04,D05,1,0,1
1673,-0.38,1644591876.015625,P04,D05,1,0,1
1674,-0.5,1644591876.03125,P04,D05,1,0,1
1675,-0.44,1644591876.046875,P04,D05,1,0,1
1676,-0.3,1644591876.0625,P04,D05,1,0,1
1677,-0.18,1644591876.078125,P04,D05,1,0,1
1678,-0.14,1644591876.09375,P04,D05,1,0,1
1679,-0.17,1644591876.109375,P04,D05,1,0,1
1680,-0.24,1644591876.125,P04,D05,1,0,1
1681,-0.32,1644591876.140625,P04,D05,1,0,1
1682,-0.37,1644591876.15625,P04,D05,1,0,1
1683,-0.39,1644591876.171875,P04,D05,1,0,1
1684,-0.4,1644591876.1875,P04,D05,1,0,1
1685,-0.41,1644591876.203125,P04,D05,1,0,1
1686,-0.41,1644591876.21875,P04,D05,1,0,1
1687,-0.4,1644591876.234375,P04,D05,1,0,1
1688,-0.41,1644591876.25,P04,D05,1,0,1
1689,-0.42,1644591876.265625,P04,D05,1,0,1
1690,-0.44,1644591876.28125,P04,D05,1,0,1
1691,-0.46,1644591876.296875,P04,D05,1,0,1
1692,-0.45,1644591876.3125,P04,D05,1,0,1
1693,-0.4,1644591876.328125,P04,D05,1,0,1
1694,-0.3,1644591876.34375,P04,D05,1,0,1
1695,-0.17,1644591876.359375,P04,D05,1,0,1
1696,-0.02,1644591876.375,P04,D05,1,0,1
1697,0.14,1644591876.390625,P04,D05,1,0,1
1698,0.3,1644591876.40625,P04,D05,1,0,1
1699,0.45,1644591876.421875,P04,D05,1,0,1
1700,0.59,1644591876.4375,P04,D05,1,0,1
1701,0.73,1644591876.453125,P04,D05,1,0,1
1702,0.85,1644591876.46875,P04,D05,1,0,1
1703,0.93,1644591876.484375,P04,D05,1,0,1
1704,0.91,1644591876.5,P04,D05,1,0,1
1705,0.77,1644591876.515625,P04,D05,1,0,1
1706,0.54,1644591876.53125,P04,D05,1,0,1
1707,0.27,1644591876.546875,P04,D05,1,0,1
1708,0.08,1644591876.5625,P04,D05,1,0,1
1709,0.04,1644591876.578125,P04,D05,1,0,1
1710,0.15,1644591876.59375,P04,D05,1,0,1
1711,0.38,1644591876.609375,P04,D05,1,0,1
1712,0.62,1644591876.625,P04,D05,1,0,1
1713,0.81,1644591876.640625,P04,D05,1,0,1
1714,0.89,1644591876.65625,P04,D05,1,0,1
1715,0.88,1644591876.671875,P04,D05,1,0,1
1716,0.8,1644591876.6875,P04,D05,1,0,1
1717,0.69,1644591876.703125,P04,D05,1,0,1
1718,0.58,1644591876.71875,P04,D05,1,0,1
1719,0.47,1644591876.734375,P04,D05,1,0,1
1720,0.38,1644591876.75,P04,D05,1,0,1
1721,0.29,1644591876.765625,P04,D05,1,0,1
1722,0.17,1644591876.78125,P04,D05,1,0,1
1723,-0.01,1644591876.796875,P04,D05,1,0,1
1724,-0.25,1644591876.8125,P04,D05,1,0,1
1725,-0.53,1644591876.828125,P04,D05,1,0,1
1726,-0.8,1644591876.84375,P04,D05,1,0,1
1727,-0.97,1644591876.859375,P04,D05,1,0,1
1728,-1.0,1644591876.875,P04,D05,1,0,1
1729,-0.88,1644591876.890625,P04,D05,1,0,1
1730,-0.67,1644591876.90625,P04,D05,1,0,1
1731,-0.42,1644591876.921875,P04,D05,1,0,1
1732,-0.2,1644591876.9375,P04,D05,1,0,1
1733,-0.06,1644591876.953125,P04,D05,1,0,1
1734,-0.0,1644591876.96875,P04,D05,1,0,1
1735,-0.02,1644591876.984375,P04,D05,1,0,1
1736,-0.1,1644591877.0,P04,D05,1,0,1
1737,-0.19,1644591877.015625,P04,D05,1,0,1
1738,-0.27,1644591877.03125,P04,D05,1,0,1
1739,-0.32,1644591877.046875,P04,D05,1,0,1
1740,-0.37,1644591877.0625,P04,D05,1,0,1
1741,-0.42,1644591877.078125,P04,D05,1,0,1
1742,-0.48,1644591877.09375,P04,D05,1,0,1
1743,-0.52,1644591877.109375,P04,D05,1,0,1
1744,-0.53,1644591877.125,P04,D05,1,0,1
1745,-0.52,1644591877.140625,P04,D05,1,0,1
1746,-0.52,1644591877.15625,P04,D05,1,0,1
1747,-0.57,1644591877.171875,P04,D05,1,0,1
1748,-0.68,1644591877.1875,P04,D05,1,0,1
1749,-0.8,1644591877.203125,P04,D05,1,0,1
1750,-0.81,1644591877.21875,P04,D05,1,0,1
1751,-0.62,1644591877.234375,P04,D05,1,0,1
1752,-0.22,1644591877.25,P04,D05,1,0,1
1753,0.29,1644591877.265625,P04,D05,1,0,1
1754,0.74,1644591877.28125,P04,D05,1,0,1
1755,0.94,1644591877.296875,P04,D05,1,0,1
1756,0.82,1644591877.3125,P04,D05,1,0,1
1757,0.44,1644591877.328125,P04,D05,1,0,1
1758,-0.05,1644591877.34375,P04,D05,1,0,1
1759,-0.45,1644591877.359375,P04,D05,1,0,1
1760,-0.64,1644591877.375,P04,D05,1,0,1
1761,-0.6,1644591877.390625,P04,D05,1,0,1
1762,-0.4,1644591877.40625,P04,D05,1,0,1
1763,-0.12,1644591877.421875,P04,D05,1,0,1
1764,0.13,1644591877.4375,P04,D05,1,0,1
1765,0.32,1644591877.453125,P04,D05,1,0,1
1766,0.44,1644591877.46875,P04,D05,1,0,1
1767,0.54,1644591877.484375,P04,D05,1,0,1
1768,0.65,1644591877.5,P04,D05,1,0,1
1769,0.78,1644591877.515625,P04,D05,1,0,1
1770,0.91,1644591877.53125,P04,D05,1,0,1
1771,0.99,1644591877.546875,P04,D05,1,0,1
1772,0.96,1644591877.5625,P04,D05,1,0,1
1773,0.79,1644591877.578125,P04,D05,1,0,1
1774,0.47,1644591877.59375,P04,D05,1,0,1
1775,0.06,1644591877.609375,P04,D05,1,0,1
1776,-0.35,1644591877.625,P04,D05,1,0,1
1777,-0.66,1644591877.640625,P04,D05,1,0,1
1778,-0.81,1644591877.65625,P04,D05,1,0,1
1779,-0.8,1644591877.671875,P04,D05,1,0,1
1780,-0.65,1644591877.6875,P04,D05,1,0,1
1781,-0.43,1644591877.703125,P04,D05,1,0,1
1782,-0.23,1644591877.71875,P04,D05,1,0,1
1783,-0.06,1644591877.734375,P04,D05,1,0,1
1784,0.07,1644591877.75,P04,D05,1,0,1
1785,0.18,1644591877.765625,P04,D05,1,0,1
1786,0.27,1644591877.78125,P04,D05,1,0,1
1787,0.33,1644591877.796875,P04,D05,1,0,1
1788,0.32,1644591877.8125,P04,D05,1,0,1
1789,0.26,1644591877.828125,P04,D05,1,0,1
1790,0.19,1644591877.84375,P04,D05,1,0,1
1791,0.19,1644591877.859375,P04,D05,1,0,1
1792,0.31,1644591877.875,P04,D05,1,0,1
1793,0.5,1644591877.890625,P04,D05,1,0,1
1794,0.66,1644591877.90625,P04,D05,1,0,1
1795,0.67,1644591877.921875,P04,D05,1,0,1
1796,0.5,1644591877.9375,P04,D05,1,0,1
1797,0.21,1644591877.953125,P04,D05,1,0,1
1798,-0.07,1644591877.96875,P04,D05,1,0,1
1799,-0.21,1644591877.984375,P04,D05,1,0,1
1800,-0.16,1644591878.0,P04,D05,1,0,1
1801,0.02,1644591878.015625,P04,D05,1,0,1
1802,0.22,1644591878.03125,P04,D05,1,0,1
1803,0.32,1644591878.046875,P04,D05,1,0,1
1804,0.31,1644591878.0625,P04,D05,1,0,1
1805,0.21,1644591878.078125,P04,D05,1,0,1
1806,0.1,1644591878.09375,P04,D05,1,0,1
1807,0.03,1644591878.109375,P04,D05,1,0,1
1808,-0.0,1644591878.125,P04,D05,1,0,1
1809,-0.03,1644591878.140625,P04,D05,1,0,1
1810,-0.05,1644591878.15625,P04,D05,1,0,1
1811,-0.08,1644591878.171875,P04,D05,1,0,1
1812,-0.09,1644591878.1875,P04,D05,1,0,1
1813,-0.04,1644591878.203125,P04,D05,1,0,1
1814,0.04,1644591878.21875,P04,D05,1,0,1
1815,0.11,1644591878.234375,P04,D05,1,0,1
1816,0.1,1644591878.25,P04,D05,1,0,1
1817,-0.04,1644591878.265625,P04,D05,1,0,1
1818,-0.33,1644591878.28125,P04,D05,1,0,1
1819,-0.72,1644591878.296875,P04,D05,1,0,1
1820,-1.12,1644591878.3125,P04,D05,1,0,1
1821,-1.42,1644591878.328125,P04,D05,1,0,1
1822,-1.55,1644591878.34375,P04,D05,1,0,1
1823,-1.49,1644591878.359375,P04,D05,1,0,1
1824,-1.29,1644591878.375,P04,D05,1,0,1
1825,-1.03,1644591878.390625,P04,D05,1,0,1
1826,-0.8,1644591878.40625,P04,D05,1,0,1
1827,-0.65,1644591878.421875,P04,D05,1,0,1
1828,-0.56,1644591878.4375,P04,D05,1,0,1
1829,-0.5,1644591878.453125,P04,D05,1,0,1
1830,-0.41,1644591878.46875,P04,D05,1,0,1
1831,-0.28,1644591878.484375,P04,D05,1,0,1
1832,-0.09,1644591878.5,P04,D05,1,0,1
1833,0.14,1644591878.515625,P04,D05,1,0,1
1834,0.36,1644591878.53125,P04,D05,1,0,1
1835,0.52,1644591878.546875,P04,D05,1,0,1
1836,0.59,1644591878.5625,P04,D05,1,0,1
1837,0.55,1644591878.578125,P04,D05,1,0,1
1838,0.45,1644591878.59375,P04,D05,1,0,1
1839,0.36,1644591878.609375,P04,D05,1,0,1
1840,0.38,1644591878.625,P04,D05,1,0,1
1841,0.52,1644591878.640625,P04,D05,1,0,1
1842,0.77,1644591878.65625,P04,D05,1,0,1
1843,1.01,1644591878.671875,P04,D05,1,0,1
1844,1.16,1644591878.6875,P04,D05,1,0,1
1845,1.16,1644591878.703125,P04,D05,1,0,1
1846,1.03,1644591878.71875,P04,D05,1,0,1
1847,0.89,1644591878.734375,P04,D05,1,0,1
1848,0.81,1644591878.75,P04,D05,1,0,1
1849,0.83,1644591878.765625,P04,D05,1,0,1
1850,0.93,1644591878.78125,P04,D05,1,0,1
1851,1.01,1644591878.796875,P04,D05,1,0,1
1852,0.99,1644591878.8125,P04,D05,1,0,1
1853,0.85,1644591878.828125,P04,D05,1,0,1
1854,0.63,1644591878.84375,P04,D05,1,0,1
1855,0.42,1644591878.859375,P04,D05,1,0,1
1856,0.29,1644591878.875,P04,D05,1,0,1
1857,0.29,1644591878.890625,P04,D05,1,0,1
1858,0.39,1644591878.90625,P04,D05,1,0,1
1859,0.53,1644591878.921875,P04,D05,1,0,1
1860,0.59,1644591878.9375,P04,D05,1,0,1
1861,0.51,1644591878.953125,P04,D05,1,0,1
1862,0.26,1644591878.96875,P04,D05,1,0,1
1863,-0.09,1644591878.984375,P04,D05,1,0,1
1864,-0.46,1644591879.0,P04,D05,1,0,1
1865,-0.76,1644591879.015625,P04,D05,1,0,1
1866,-0.92,1644591879.03125,P04,D05,1,0,1
1867,-0.94,1644591879.046875,P04,D05,1,0,1
1868,-0.84,1644591879.0625,P04,D05,1,0,1
1869,-0.67,1644591879.078125,P04,D05,1,0,1
1870,-0.48,1644591879.09375,P04,D05,1,0,1
1871,-0.31,1644591879.109375,P04,D05,1,0,1
1872,-0.19,1644591879.125,P04,D05,1,0,1
1873,-0.13,1644591879.140625,P04,D05,1,0,1
1874,-0.15,1644591879.15625,P04,D05,1,0,1
1875,-0.26,1644591879.171875,P04,D05,1,0,1
1876,-0.43,1644591879.1875,P04,D05,1,0,1
1877,-0.64,1644591879.203125,P04,D05,1,0,1
1878,-0.85,1644591879.21875,P04,D05,1,0,1
1879,-0.97,1644591879.234375,P04,D05,1,0,1
1880,-0.97,1644591879.25,P04,D05,1,0,1
1881,-0.84,1644591879.265625,P04,D05,1,0,1
1882,-0.63,1644591879.28125,P04,D05,1,0,1
1883,-0.39,1644591879.296875,P04,D05,1,0,1
1884,-0.19,1644591879.3125,P04,D05,1,0,1
1885,-0.06,1644591879.328125,P04,D05,1,0,1
1886,0.04,1644591879.34375,P04,D05,1,0,1
1887,0.16,1644591879.359375,P04,D05,1,0,1
1888,0.32,1644591879.375,P04,D05,1,0,1
1889,0.49,1644591879.390625,P04,D05,1,0,1
1890,0.61,1644591879.40625,P04,D05,1,0,1
1891,0.59,1644591879.421875,P04,D05,1,0,1
1892,0.46,1644591879.4375,P04,D05,1,0,1
1893,0.26,1644591879.453125,P04,D05,1,0,1
1894,0.1,1644591879.46875,P04,D05,1,0,1
1895,0.05,1644591879.484375,P04,D05,1,0,1
1896,0.13,1644591879.5,P04,D05,1,0,1
1897,0.27,1644591879.515625,P04,D05,1,0,1
1898,0.39,1644591879.53125,P04,D05,1,0,1
1899,0.43,1644591879.546875,P04,D05,1,0,1
1900,0.38,1644591879.5625,P04,D05,1,0,1
1901,0.29,1644591879.578125,P04,D05,1,0,1
1902,0.19,1644591879.59375,P04,D05,1,0,1
1903,0.12,1644591879.609375,P04,D05,1,0,1
1904,0.03,1644591879.625,P04,D05,1,0,1
1905,-0.12,1644591879.640625,P04,D05,1,0,1
1906,-0.35,1644591879.65625,P04,D05,1,0,1
1907,-0.65,1644591879.671875,P04,D05,1,0,1
1908,-0.94,1644591879.6875,P04,D05,1,0,1
1909,-1.11,1644591879.703125,P04,D05,1,0,1
1910,-1.12,1644591879.71875,P04,D05,1,0,1
1911,-0.98,1644591879.734375,P04,D05,1,0,1
1912,-0.75,1644591879.75,P04,D05,1,0,1
1913,-0.52,1644591879.765625,P04,D05,1,0,1
1914,-0.38,1644591879.78125,P04,D05,1,0,1
1915,-0.31,1644591879.796875,P04,D05,1,0,1
1916,-0.28,1644591879.8125,P04,D05,1,0,1
1917,-0.2,1644591879.828125,P04,D05,1,0,1
1918,-0.05,1644591879.84375,P04,D05,1,0,1
1919,0.16,1644591879.859375,P04,D05,1,0,1
1920,0.37,1644591879.875,P04,D05,1,0,1
1921,0.49,1644591879.890625,P04,D05,1,0,1
1922,0.5,1644591879.90625,P04,D05,1,0,1
1923,0.43,1644591879.921875,P04,D05,1,0,1
1924,0.33,1644591879.9375,P04,D05,1,0,1
1925,0.28,1644591879.953125,P04,D05,1,0,1
1926,0.29,1644591879.96875,P04,D05,1,0,1
1927,0.34,1644591879.984375,P04,D05,1,0,1
1928,0.4,1644591880.0,P04,D05,1,0,1
1929,0.45,1644591880.015625,P04,D05,1,0,1
1930,0.52,1644591880.03125,P04,D05,1,0,1
1931,0.63,1644591880.046875,P04,D05,1,0,1
1932,0.79,1644591880.0625,P04,D05,1,0,1
1933,0.94,1644591880.078125,P04,D05,1,0,1
1934,0.98,1644591880.09375,P04,D05,1,0,1
1935,0.86,1644591880.109375,P04,D05,1,0,1
1936,0.56,1644591880.125,P04,D05,1,0,1
1937,0.17,1644591880.140625,P04,D05,1,0,1
1938,-0.19,1644591880.15625,P04,D05,1,0,1
1939,-0.38,1644591880.171875,P04,D05,1,0,1
1940,-0.34,1644591880.1875,P04,D05,1,0,1
1941,-0.08,1644591880.203125,P04,D05,1,0,1
1942,0.3,1644591880.21875,P04,D05,1,0,1
1943,0.67,1644591880.234375,P04,D05,1,0,1
1944,0.9,1644591880.25,P04,D05,1,0,1
1945,0.94,1644591880.265625,P04,D05,1,0,1
1946,0.79,1644591880.28125,P04,D05,1,0,1
1947,0.51,1644591880.296875,P04,D05,1,0,1
1948,0.2,1644591880.3125,P04,D05,1,0,1
1949,-0.07,1644591880.328125,P04,D05,1,0,1
1950,-0.24,1644591880.34375,P04,D05,1,0,1
1951,-0.34,1644591880.359375,P04,D05,1,0,1
1952,-0.37,1644591880.375,P04,D05,1,0,1
1953,-0.4,1644591880.390625,P04,D05,1,0,1
1954,-0.45,1644591880.40625,P04,D05,1,0,1
1955,-0.53,1644591880.421875,P04,D05,1,0,1
1956,-0.64,1644591880.4375,P04,D05,1,0,1
1957,-0.76,1644591880.453125,P04,D05,1,0,1
1958,-0.88,1644591880.46875,P04,D05,1,0,1
1959,-0.97,1644591880.484375,P04,D05,1,0,1
1960,-1.04,1644591880.5,P04,D05,1,0,1
1961,-1.12,1644591880.515625,P04,D05,1,0,1
1962,-1.23,1644591880.53125,P04,D05,1,0,1
1963,-1.37,1644591880.546875,P04,D05,1,0,1
1964,-1.51,1644591880.5625,P04,D05,1,0,1
1965,-1.59,1644591880.578125,P04,D05,1,0,1
1966,-1.55,1644591880.59375,P04,D05,1,0,1
1967,-1.33,1644591880.609375,P04,D05,1,0,1
1968,-0.95,1644591880.625,P04,D05,1,0,1
1969,-0.48,1644591880.640625,P04,D05,1,0,1
1970,-0.03,1644591880.65625,P04,D05,1,0,1
1971,0.31,1644591880.671875,P04,D05,1,0,1
1972,0.49,1644591880.6875,P04,D05,1,0,1
1973,0.56,1644591880.703125,P04,D05,1,0,1
1974,0.6,1644591880.71875,P04,D05,1,0,1
1975,0.68,1644591880.734375,P04,D05,1,0,1
1976,0.8,1644591880.75,P04,D05,1,0,1
1977,0.89,1644591880.765625,P04,D05,1,0,1
1978,0.85,1644591880.78125,P04,D05,1,0,1
1979,0.66,1644591880.796875,P04,D05,1,0,1
1980,0.34,1644591880.8125,P04,D05,1,0,1
1981,0.03,1644591880.828125,P04,D05,1,0,1
1982,-0.16,1644591880.84375,P04,D05,1,0,1
1983,-0.18,1644591880.859375,P04,D05,1,0,1
1984,-0.05,1644591880.875,P04,D05,1,0,1
1985,0.15,1644591880.890625,P04,D05,1,0,1
1986,0.33,1644591880.90625,P04,D05,1,0,1
1987,0.46,1644591880.921875,P04,D05,1,0,1
1988,0.53,1644591880.9375,P04,D05,1,0,1
1989,0.53,1644591880.953125,P04,D05,1,0,1
1990,0.43,1644591880.96875,P04,D05,1,0,1
1991,0.25,1644591880.984375,P04,D05,1,0,1
1992,0.01,1644591881.0,P04,D05,1,0,1
1993,-0.19,1644591881.015625,P04,D05,1,0,1
1994,-0.22,1644591881.03125,P04,D05,1,0,1
1995,-0.04,1644591881.046875,P04,D05,1,0,1
1996,0.32,1644591881.0625,P04,D05,1,0,1
1997,0.69,1644591881.078125,P04,D05,1,0,1
1998,0.88,1644591881.09375,P04,D05,1,0,1
1999,0.78,1644591881.109375,P04,D05,1,0,1
2000,0.42,1644591881.125,P04,D05,1,0,1
2001,-0.07,1644591881.140625,P04,D05,1,0,1
2002,-0.5,1644591881.15625,P04,D05,1,0,1
2003,-0.73,1644591881.171875,P04,D05,1,0,1
2004,-0.73,1644591881.1875,P04,D05,1,0,1
2005,-0.56,1644591881.203125,P04,D05,1,0,1
2006,-0.36,1644591881.21875,P04,D05,1,0,1
2007,-0.2,1644591881.234375,P04,D05,1,0,1
2008,-0.1,1644591881.25,P04,D05,1,0,1
2009,-0.05,1644591881.265625,P04,D05,1,0,1
2010,0.01,1644591881.28125,P04,D05,1,0,1
2011,0.08,1644591881.296875,P04,D05,1,0,1
2012,0.15,1644591881.3125,P04,D05,1,0,1
2013,0.21,1644591881.328125,P04,D05,1,0,1
2014,0.24,1644591881.34375,P04,D05,1,0,1
2015,0.29,1644591881.359375,P04,D05,1,0,1
2016,0.36,1644591881.375,P04,D05,1,0,1
2017,0.5,1644591881.390625,P04,D05,1,0,1
2018,0.67,1644591881.40625,P04,D05,1,0,1
2019,0.82,1644591881.421875,P04,D05,1,0,1
2020,0.89,1644591881.4375,P04,D05,1,0,1
2021,0.83,1644591881.453125,P04,D05,1,0,1
2022,0.63,1644591881.46875,P04,D05,1,0,1
2023,0.37,1644591881.484375,P04,D05,1,0,1
2024,0.12,1644591881.5,P04,D05,1,0,1
2025,-0.07,1644591881.515625,P04,D05,1,0,1
2026,-0.15,1644591881.53125,P04,D05,1,0,1
2027,-0.17,1644591881.546875,P04,D05,1,0,1
2028,-0.16,1644591881.5625,P04,D05,1,0,1
2029,-0.17,1644591881.578125,P04,D05,1,0,1
2030,-0.23,1644591881.59375,P04,D05,1,0,1
2031,-0.33,1644591881.609375,P04,D05,1,0,1
2032,-0.47,1644591881.625,P04,D05,1,0,1
2033,-0.62,1644591881.640625,P04,D05,1,0,1
2034,-0.78,1644591881.65625,P04,D05,1,0,1
2035,-0.95,1644591881.671875,P04,D05,1,0,1
2036,-1.12,1644591881.6875,P04,D05,1,0,1
2037,-1.26,1644591881.703125,P04,D05,1,0,1
2038,-1.29,1644591881.71875,P04,D05,1,0,1
2039,-1.17,1644591881.734375,P04,D05,1,0,1
2040,-0.87,1644591881.75,P04,D05,1,0,1
2041,-0.43,1644591881.765625,P04,D05,1,0,1
2042,0.06,1644591881.78125,P04,D05,1,0,1
2043,0.5,1644591881.796875,P04,D05,1,0,1
2044,0.78,1644591881.8125,P04,D05,1,0,1
2045,0.88,1644591881.828125,P04,D05,1,0,1
2046,0.8,1644591881.84375,P04,D05,1,0,1
2047,0.63,1644591881.859375,P04,D05,1,0,1
2048,0.43,1644591881.875,P04,D05,1,0,1
2049,0.29,1644591881.890625,P04,D05,1,0,1
2050,0.25,1644591881.90625,P04,D05,1,0,1
2051,0.31,1644591881.921875,P04,D05,1,0,1
2052,0.45,1644591881.9375,P04,D05,1,0,1
2053,0.62,1644591881.953125,P04,D05,1,0,1
2054,0.78,1644591881.96875,P04,D05,1,0,1
2055,0.9,1644591881.984375,P04,D05,1,0,1
2056,0.97,1644591882.0,P04,D05,1,0,1
2057,0.96,1644591882.015625,P04,D05,1,0,1
2058,0.87,1644591882.03125,P04,D05,1,0,1
2059,0.7,1644591882.046875,P04,D05,1,0,1
2060,0.44,1644591882.0625,P04,D05,1,0,1
2061,0.13,1644591882.078125,P04,D05,1,0,1
2062,-0.2,1644591882.09375,P04,D05,1,0,1
2063,-0.48,1644591882.109375,P04,D05,1,0,1
2064,-0.68,1644591882.125,P04,D05,1,0,1
2065,-0.78,1644591882.140625,P04,D05,1,0,1
2066,-0.75,1644591882.15625,P04,D05,1,0,1
2067,-0.58,1644591882.171875,P04,D05,1,0,1
2068,-0.3,1644591882.1875,P04,D05,1,0,1
2069,0.04,1644591882.203125,P04,D05,1,0,1
2070,0.31,1644591882.21875,P04,D05,1,0,1
2071,0.37,1644591882.234375,P04,D05,1,0,1
2072,0.16,1644591882.25,P04,D05,1,0,1
2073,-0.28,1644591882.265625,P04,D05,1,0,1
2074,-0.77,1644591882.28125,P04,D05,1,0,1
2075,-1.1,1644591882.296875,P04,D05,1,0,1
2076,-1.12,1644591882.3125,P04,D05,1,0,1
2077,-0.85,1644591882.328125,P04,D05,1,0,1
2078,-0.45,1644591882.34375,P04,D05,1,0,1
2079,-0.13,1644591882.359375,P04,D05,1,0,1
2080,-0.05,1644591882.375,P04,D05,1,0,1
2081,-0.19,1644591882.390625,P04,D05,1,0,1
2082,-0.43,1644591882.40625,P04,D05,1,0,1
2083,-0.61,1644591882.421875,P04,D05,1,0,1
2084,-0.67,1644591882.4375,P04,D05,1,0,1
2085,-0.64,1644591882.453125,P04,D05,1,0,1
2086,-0.61,1644591882.46875,P04,D05,1,0,1
2087,-0.61,1644591882.484375,P04,D05,1,0,1
2088,-0.6,1644591882.5,P04,D05,1,0,1
2089,-0.47,1644591882.515625,P04,D05,1,0,1
2090,-0.15,1644591882.53125,P04,D05,1,0,1
2091,0.31,1644591882.546875,P04,D05,1,0,1
2092,0.77,1644591882.5625,P04,D05,1,0,1
2093,1.06,1644591882.578125,P04,D05,1,0,1
2094,1.06,1644591882.59375,P04,D05,1,0,1
2095,0.77,1644591882.609375,P04,D05,1,0,1
2096,0.3,1644591882.625,P04,D05,1,0,1
2097,-0.19,1644591882.640625,P04,D05,1,0,1
2098,-0.56,1644591882.65625,P04,D05,1,0,1
2099,-0.76,1644591882.671875,P04,D05,1,0,1
2100,-0.77,1644591882.6875,P04,D05,1,0,1
2101,-0.62,1644591882.703125,P04,D05,1,0,1
2102,-0.36,1644591882.71875,P04,D05,1,0,1
2103,-0.04,1644591882.734375,P04,D05,1,0,1
2104,0.29,1644591882.75,P04,D05,1,0,1
2105,0.56,1644591882.765625,P04,D05,1,0,1
2106,0.74,1644591882.78125,P04,D05,1,0,1
2107,0.79,1644591882.796875,P04,D05,1,0,1
2108,0.72,1644591882.8125,P04,D05,1,0,1
2109,0.54,1644591882.828125,P04,D05,1,0,1
2110,0.3,1644591882.84375,P04,D05,1,0,1
2111,0.05,1644591882.859375,P04,D05,1,0,1
2112,-0.16,1644591882.875,P04,D05,1,0,1
2113,-0.27,1644591882.890625,P04,D05,1,0,1
2114,-0.26,1644591882.90625,P04,D05,1,0,1
2115,-0.13,1644591882.921875,P04,D05,1,0,1
2116,0.09,1644591882.9375,P04,D05,1,0,1
2117,0.34,1644591882.953125,P04,D05,1,0,1
2118,0.54,1644591882.96875,P04,D05,1,0,1
2119,0.67,1644591882.984375,P04,D05,1,0,1
2120,0.72,1644591883.0,P04,D05,1,0,1
2121,0.71,1644591883.015625,P04,D05,1,0,1
2122,0.68,1644591883.03125,P04,D05,1,0,1
2123,0.65,1644591883.046875,P04,D05,1,0,1
2124,0.61,1644591883.0625,P04,D05,1,0,1
2125,0.54,1644591883.078125,P04,D05,1,0,1
2126,0.39,1644591883.09375,P04,D05,1,0,1
2127,0.19,1644591883.109375,P04,D05,1,0,1
2128,-0.04,1644591883.125,P04,D05,1,0,1
2129,-0.23,1644591883.140625,P04,D05,1,0,1
2130,-0.31,1644591883.15625,P04,D05,1,0,1
2131,-0.27,1644591883.171875,P04,D05,1,0,1
2132,-0.12,1644591883.1875,P04,D05,1,0,1
2133,0.06,1644591883.203125,P04,D05,1,0,1
2134,0.19,1644591883.21875,P04,D05,1,0,1
2135,0.21,1644591883.234375,P04,D05,1,0,1
2136,0.13,1644591883.25,P04,D05,1,0,1
2137,0.01,1644591883.265625,P04,D05,1,0,1
2138,-0.06,1644591883.28125,P04,D05,1,0,1
2139,-0.02,1644591883.296875,P04,D05,1,0,1
2140,0.15,1644591883.3125,P04,D05,1,0,1
2141,0.35,1644591883.328125,P04,D05,1,0,1
2142,0.5,1644591883.34375,P04,D05,1,0,1
2143,0.51,1644591883.359375,P04,D05,1,0,1
2144,0.38,1644591883.375,P04,D05,1,0,1
2145,0.18,1644591883.390625,P04,D05,1,0,1
2146,-0.01,1644591883.40625,P04,D05,1,0,1
2147,-0.11,1644591883.421875,P04,D05,1,0,1
2148,-0.13,1644591883.4375,P04,D05,1,0,1
2149,-0.1,1644591883.453125,P04,D05,1,0,1
2150,-0.06,1644591883.46875,P04,D05,1,0,1
2151,-0.05,1644591883.484375,P04,D05,1,0,1
2152,-0.06,1644591883.5,P04,D05,1,0,1
2153,-0.09,1644591883.515625,P04,D05,1,0,1
2154,-0.12,1644591883.53125,P04,D05,1,0,1
2155,-0.17,1644591883.546875,P04,D05,1,0,1
2156,-0.27,1644591883.5625,P04,D05,1,0,1
2157,-0.41,1644591883.578125,P04,D05,1,0,1
2158,-0.56,1644591883.59375,P04,D05,1,0,1
2159,-0.68,1644591883.609375,P04,D05,1,0,1
2160,-0.72,1644591883.625,P04,D05,1,0,1
2161,-0.7,1644591883.640625,P04,D05,1,0,1
2162,-0.63,1644591883.65625,P04,D05,1,0,1
2163,-0.57,1644591883.671875,P04,D05,1,0,1
2164,-0.55,1644591883.6875,P04,D05,1,0,1
2165,-0.54,1644591883.703125,P04,D05,1,0,1
2166,-0.53,1644591883.71875,P04,D05,1,0,1
2167,-0.47,1644591883.734375,P04,D05,1,0,1
2168,-0.37,1644591883.75,P04,D05,1,0,1
2169,-0.23,1644591883.765625,P04,D05,1,0,1
2170,-0.12,1644591883.78125,P04,D05,1,0,1
2171,-0.06,1644591883.796875,P04,D05,1,0,1
2172,-0.03,1644591883.8125,P04,D05,1,0,1
2173,-0.02,1644591883.828125,P04,D05,1,0,1
2174,-0.0,1644591883.84375,P04,D05,1,0,1
2175,0.02,1644591883.859375,P04,D05,1,0,1
2176,0.01,1644591883.875,P04,D05,1,0,1
2177,-0.07,1644591883.890625,P04,D05,1,0,1
2178,-0.21,1644591883.90625,P04,D05,1,0,1
2179,-0.36,1644591883.921875,P04,D05,1,0,1
2180,-0.44,1644591883.9375,P04,D05,1,0,1
2181,-0.44,1644591883.953125,P04,D05,1,0,1
2182,-0.39,1644591883.96875,P04,D05,1,0,1
2183,-0.34,1644591883.984375,P04,D05,1,0,1
2184,-0.35,1644591884.0,P04,D05,1,0,1
2185,-0.39,1644591884.015625,P04,D05,1,0,1
2186,-0.42,1644591884.03125,P04,D05,1,0,1
2187,-0.37,1644591884.046875,P04,D05,1,0,1
2188,-0.21,1644591884.0625,P04,D05,1,0,1
2189,0.0,1644591884.078125,P04,D05,1,0,1
2190,0.19,1644591884.09375,P04,D05,1,0,1
2191,0.31,1644591884.109375,P04,D05,1,0,1
2192,0.36,1644591884.125,P04,D05,1,0,1
2193,0.37,1644591884.140625,P04,D05,1,0,1
2194,0.41,1644591884.15625,P04,D05,1,0,1
2195,0.49,1644591884.171875,P04,D05,1,0,1
2196,0.6,1644591884.1875,P04,D05,1,0,1
2197,0.67,1644591884.203125,P04,D05,1,0,1
2198,0.68,1644591884.21875,P04,D05,1,0,1
2199,0.61,1644591884.234375,P04,D05,1,0,1
2200,0.53,1644591884.25,P04,D05,1,0,1
2201,0.5,1644591884.265625,P04,D05,1,0,1
2202,0.56,1644591884.28125,P04,D05,1,0,1
2203,0.69,1644591884.296875,P04,D05,1,0,1
2204,0.83,1644591884.3125,P04,D05,1,0,1
2205,0.91,1644591884.328125,P04,D05,1,0,1
2206,0.87,1644591884.34375,P04,D05,1,0,1
2207,0.71,1644591884.359375,P04,D05,1,0,1
2208,0.5,1644591884.375,P04,D05,1,0,1
2209,0.32,1644591884.390625,P04,D05,1,0,1
2210,0.22,1644591884.40625,P04,D05,1,0,1
2211,0.2,1644591884.421875,P04,D05,1,0,1
2212,0.2,1644591884.4375,P04,D05,1,0,1
2213,0.15,1644591884.453125,P04,D05,1,0,1
2214,0.01,1644591884.46875,P04,D05,1,0,1
2215,-0.23,1644591884.484375,P04,D05,1,0,1
2216,-0.49,1644591884.5,P04,D05,1,0,1
2217,-0.68,1644591884.515625,P04,D05,1,0,1
2218,-0.72,1644591884.53125,P04,D05,1,0,1
2219,-0.53,1644591884.546875,P04,D05,1,0,1
2220,-0.17,1644591884.5625,P04,D05,1,0,1
2221,0.27,1644591884.578125,P04,D05,1,0,1
2222,0.65,1644591884.59375,P04,D05,1,0,1
2223,0.83,1644591884.609375,P04,D05,1,0,1
2224,0.78,1644591884.625,P04,D05,1,0,1
2225,0.55,1644591884.640625,P04,D05,1,0,1
2226,0.27,1644591884.65625,P04,D05,1,0,1
2227,0.08,1644591884.671875,P04,D05,1,0,1
2228,0.01,1644591884.6875,P04,D05,1,0,1
2229,0.02,1644591884.703125,P04,D05,1,0,1
2230,0.0,1644591884.71875,P04,D05,1,0,1
2231,-0.16,1644591884.734375,P04,D05,1,0,1
2232,-0.46,1644591884.75,P04,D05,1,0,1
2233,-0.84,1644591884.765625,P04,D05,1,0,1
2234,-1.17,1644591884.78125,P04,D05,1,0,1
2235,-1.36,1644591884.796875,P04,D05,1,0,1
2236,-1.4,1644591884.8125,P04,D05,1,0,1
2237,-1.32,1644591884.828125,P04,D05,1,0,1
2238,-1.2,1644591884.84375,P04,D05,1,0,1
2239,-1.08,1644591884.859375,P04,D05,1,0,1
2240,-0.94,1644591884.875,P04,D05,1,0,1
2241,-0.73,1644591884.890625,P04,D05,1,0,1
2242,-0.38,1644591884.90625,P04,D05,1,0,1
2243,0.07,1644591884.921875,P04,D05,1,0,1
2244,0.53,1644591884.9375,P04,D05,1,0,1
2245,0.86,1644591884.953125,P04,D05,1,0,1
2246,0.94,1644591884.96875,P04,D05,1,0,1
2247,0.72,1644591884.984375,P04,D05,1,0,1
2248,0.29,1644591885.0,P04,D05,1,0,1
2249,-0.22,1644591885.015625,P04,D05,1,0,1
2250,-0.66,1644591885.03125,P04,D05,1,0,1
2251,-0.94,1644591885.046875,P04,D05,1,0,1
2252,-1.07,1644591885.0625,P04,D05,1,0,1
2253,-1.05,1644591885.078125,P04,D05,1,0,1
2254,-0.94,1644591885.09375,P04,D05,1,0,1
2255,-0.71,1644591885.109375,P04,D05,1,0,1
2256,-0.37,1644591885.125,P04,D05,1,0,1
2257,0.09,1644591885.140625,P04,D05,1,0,1
2258,0.57,1644591885.15625,P04,D05,1,0,1
2259,0.96,1644591885.171875,P04,D05,1,0,1
2260,1.15,1644591885.1875,P04,D05,1,0,1
2261,1.1,1644591885.203125,P04,D05,1,0,1
2262,0.87,1644591885.21875,P04,D05,1,0,1
2263,0.55,1644591885.234375,P04,D05,1,0,1
2264,0.24,1644591885.25,P04,D05,1,0,1
2265,-0.0,1644591885.265625,P04,D05,1,0,1
2266,-0.18,1644591885.28125,P04,D05,1,0,1
2267,-0.29,1644591885.296875,P04,D05,1,0,1
2268,-0.34,1644591885.3125,P04,D05,1,0,1
2269,-0.31,1644591885.328125,P04,D05,1,0,1
2270,-0.2,1644591885.34375,P04,D05,1,0,1
2271,-0.0,1644591885.359375,P04,D05,1,0,1
2272,0.21,1644591885.375,P04,D05,1,0,1
2273,0.35,1644591885.390625,P04,D05,1,0,1
2274,0.35,1644591885.40625,P04,D05,1,0,1
2275,0.18,1644591885.421875,P04,D05,1,0,1
2276,-0.11,1644591885.4375,P04,D05,1,0,1
2277,-0.4,1644591885.453125,P04,D05,1,0,1
2278,-0.58,1644591885.46875,P04,D05,1,0,1
2279,-0.56,1644591885.484375,P04,D05,1,0,1
2280,-0.35,1644591885.5,P04,D05,1,0,1
2281,-0.02,1644591885.515625,P04,D05,1,0,1
2282,0.29,1644591885.53125,P04,D05,1,0,1
2283,0.47,1644591885.546875,P04,D05,1,0,1
2284,0.47,1644591885.5625,P04,D05,1,0,1
2285,0.32,1644591885.578125,P04,D05,1,0,1
2286,0.1,1644591885.59375,P04,D05,1,0,1
2287,-0.1,1644591885.609375,P04,D05,1,0,1
2288,-0.23,1644591885.625,P04,D05,1,0,1
2289,-0.29,1644591885.640625,P04,D05,1,0,1
2290,-0.31,1644591885.65625,P04,D05,1,0,1
2291,-0.34,1644591885.671875,P04,D05,1,0,1
2292,-0.38,1644591885.6875,P04,D05,1,0,1
2293,-0.4,1644591885.703125,P04,D05,1,0,1
2294,-0.36,1644591885.71875,P04,D05,1,0,1
2295,-0.23,1644591885.734375,P04,D05,1,0,1
2296,-0.0,1644591885.75,P04,D05,1,0,1
2297,0.28,1644591885.765625,P04,D05,1,0,1
2298,0.57,1644591885.78125,P04,D05,1,0,1
2299,0.78,1644591885.796875,P04,D05,1,0,1
2300,0.88,1644591885.8125,P04,D05,1,0,1
2301,0.86,1644591885.828125,P04,D05,1,0,1
2302,0.78,1644591885.84375,P04,D05,1,0,1
2303,0.68,1644591885.859375,P04,D05,1,0,1
2304,0.59,1644591885.875,P04,D05,1,0,1
2305,0.52,1644591885.890625,P04,D05,1,0,1
2306,0.46,1644591885.90625,P04,D05,1,0,1
2307,0.37,1644591885.921875,P04,D05,1,0,1
2308,0.22,1644591885.9375,P04,D05,1,0,1
2309,0.05,1644591885.953125,P04,D05,1,0,1
2310,-0.11,1644591885.96875,P04,D05,1,0,1
2311,-0.2,1644591885.984375,P04,D05,1,0,1
2312,-0.21,1644591886.0,P04,D05,1,0,1
2313,-0.15,1644591886.015625,P04,D05,1,0,1
2314,-0.07,1644591886.03125,P04,D05,1,0,1
2315,-0.01,1644591886.046875,P04,D05,1,0,1
2316,0.03,1644591886.0625,P04,D05,1,0,1
2317,0.11,1644591886.078125,P04,D05,1,0,1
2318,0.26,1644591886.09375,P04,D05,1,0,1
2319,0.5,1644591886.109375,P04,D05,1,0,1
2320,0.77,1644591886.125,P04,D05,1,0,1
2321,0.95,1644591886.140625,P04,D05,1,0,1
2322,0.95,1644591886.15625,P04,D05,1,0,1
2323,0.73,1644591886.171875,P04,D05,1,0,1
2324,0.34,1644591886.1875,P04,D05,1,0,1
2325,-0.09,1644591886.203125,P04,D05,1,0,1
2326,-0.46,1644591886.21875,P04,D05,1,0,1
2327,-0.67,1644591886.234375,P04,D05,1,0,1
2328,-0.71,1644591886.25,P04,D05,1,0,1
2329,-0.61,1644591886.265625,P04,D05,1,0,1
2330,-0.43,1644591886.28125,P04,D05,1,0,1
2331,-0.23,1644591886.296875,P04,D05,1,0,1
2332,-0.07,1644591886.3125,P04,D05,1,0,1
2333,-0.02,1644591886.328125,P04,D05,1,0,1
2334,-0.1,1644591886.34375,P04,D05,1,0,1
2335,-0.31,1644591886.359375,P04,D05,1,0,1
2336,-0.58,1644591886.375,P04,D05,1,0,1
2337,-0.79,1644591886.390625,P04,D05,1,0,1
2338,-0.82,1644591886.40625,P04,D05,1,0,1
2339,-0.61,1644591886.421875,P04,D05,1,0,1
2340,-0.2,1644591886.4375,P04,D05,1,0,1
2341,0.27,1644591886.453125,P04,D05,1,0,1
2342,0.63,1644591886.46875,P04,D05,1,0,1
2343,0.74,1644591886.484375,P04,D05,1,0,1
2344,0.59,1644591886.5,P04,D05,1,0,1
2345,0.26,1644591886.515625,P04,D05,1,0,1
2346,-0.11,1644591886.53125,P04,D05,1,0,1
2347,-0.39,1644591886.546875,P04,D05,1,0,1
2348,-0.56,1644591886.5625,P04,D05,1,0,1
2349,-0.62,1644591886.578125,P04,D05,1,0,1
2350,-0.63,1644591886.59375,P04,D05,1,0,1
2351,-0.63,1644591886.609375,P04,D05,1,0,1
2352,-0.6,1644591886.625,P04,D05,1,0,1
2353,-0.5,1644591886.640625,P04,D05,1,0,1
2354,-0.31,1644591886.65625,P04,D05,1,0,1
2355,-0.07,1644591886.671875,P04,D05,1,0,1
2356,0.13,1644591886.6875,P04,D05,1,0,1
2357,0.22,1644591886.703125,P04,D05,1,0,1
2358,0.17,1644591886.71875,P04,D05,1,0,1
2359,0.03,1644591886.734375,P04,D05,1,0,1
2360,-0.13,1644591886.75,P04,D05,1,0,1
2361,-0.22,1644591886.765625,P04,D05,1,0,1
2362,-0.21,1644591886.78125,P04,D05,1,0,1
2363,-0.15,1644591886.796875,P04,D05,1,0,1
2364,-0.1,1644591886.8125,P04,D05,1,0,1
2365,-0.13,1644591886.828125,P04,D05,1,0,1
2366,-0.26,1644591886.84375,P04,D05,1,0,1
2367,-0.42,1644591886.859375,P04,D05,1,0,1
2368,-0.52,1644591886.875,P04,D05,1,0,1
2369,-0.52,1644591886.890625,P04,D05,1,0,1
2370,-0.38,1644591886.90625,P04,D05,1,0,1
2371,-0.14,1644591886.921875,P04,D05,1,0,1
2372,0.16,1644591886.9375,P04,D05,1,0,1
2373,0.43,1644591886.953125,P04,D05,1,0,1
2374,0.65,1644591886.96875,P04,D05,1,0,1
2375,0.76,1644591886.984375,P04,D05,1,0,1
2376,0.73,1644591887.0,P04,D05,1,0,1
2377,0.57,1644591887.015625,P04,D05,1,0,1
2378,0.3,1644591887.03125,P04,D05,1,0,1
2379,0.0,1644591887.046875,P04,D05,1,0,1
2380,-0.25,1644591887.0625,P04,D05,1,0,1
2381,-0.37,1644591887.078125,P04,D05,1,0,1
2382,-0.34,1644591887.09375,P04,D05,1,0,1
2383,-0.18,1644591887.109375,P04,D05,1,0,1
2384,0.05,1644591887.125,P04,D05,1,0,1
2385,0.32,1644591887.140625,P04,D05,1,0,1
2386,0.6,1644591887.15625,P04,D05,1,0,1
2387,0.86,1644591887.171875,P04,D05,1,0,1
2388,1.08,1644591887.1875,P04,D05,1,0,1
2389,1.22,1644591887.203125,P04,D05,1,0,1
2390,1.25,1644591887.21875,P04,D05,1,0,1
2391,1.15,1644591887.234375,P04,D05,1,0,1
2392,0.95,1644591887.25,P04,D05,1,0,1
2393,0.7,1644591887.265625,P04,D05,1,0,1
2394,0.47,1644591887.28125,P04,D05,1,0,1
2395,0.28,1644591887.296875,P04,D05,1,0,1
2396,0.15,1644591887.3125,P04,D05,1,0,1
2397,0.06,1644591887.328125,P04,D05,1,0,1
2398,0.01,1644591887.34375,P04,D05,1,0,1
2399,-0.03,1644591887.359375,P04,D05,1,0,1
2400,-0.1,1644591887.375,P04,D05,1,0,1
2401,-0.21,1644591887.390625,P04,D05,1,0,1
2402,-0.37,1644591887.40625,P04,D05,1,0,1
2403,-0.57,1644591887.421875,P04,D05,1,0,1
2404,-0.74,1644591887.4375,P04,D05,1,0,1
2405,-0.8,1644591887.453125,P04,D05,1,0,1
2406,-0.7,1644591887.46875,P04,D05,1,0,1
2407,-0.43,1644591887.484375,P04,D05,1,0,1
2408,-0.09,1644591887.5,P04,D05,1,0,1
2409,0.22,1644591887.515625,P04,D05,1,0,1
2410,0.4,1644591887.53125,P04,D05,1,0,1
2411,0.43,1644591887.546875,P04,D05,1,0,1
2412,0.34,1644591887.5625,P04,D05,1,0,1
2413,0.21,1644591887.578125,P04,D05,1,0,1
2414,0.1,1644591887.59375,P04,D05,1,0,1
2415,0.03,1644591887.609375,P04,D05,1,0,1
2416,-0.03,1644591887.625,P04,D05,1,0,1
2417,-0.11,1644591887.640625,P04,D05,1,0,1
2418,-0.21,1644591887.65625,P04,D05,1,0,1
2419,-0.29,1644591887.671875,P04,D05,1,0,1
2420,-0.34,1644591887.6875,P04,D05,1,0,1
2421,-0.34,1644591887.703125,P04,D05,1,0,1
2422,-0.33,1644591887.71875,P04,D05,1,0,1
2423,-0.34,1644591887.734375,P04,D05,1,0,1
2424,-0.4,1644591887.75,P04,D05,1,0,1
2425,-0.51,1644591887.765625,P04,D05,1,0,1
2426,-0.64,1644591887.78125,P04,D05,1,0,1
2427,-0.75,1644591887.796875,P04,D05,1,0,1
2428,-0.79,1644591887.8125,P04,D05,1,0,1
2429,-0.77,1644591887.828125,P04,D05,1,0,1
2430,-0.66,1644591887.84375,P04,D05,1,0,1
2431,-0.48,1644591887.859375,P04,D05,1,0,1
2432,-0.22,1644591887.875,P04,D05,1,0,1
2433,0.07,1644591887.890625,P04,D05,1,0,1
2434,0.32,1644591887.90625,P04,D05,1,0,1
2435,0.44,1644591887.921875,P04,D05,1,0,1
2436,0.4,1644591887.9375,P04,D05,1,0,1
2437,0.23,1644591887.953125,P04,D05,1,0,1
2438,0.05,1644591887.96875,P04,D05,1,0,1
2439,-0.02,1644591887.984375,P04,D05,1,0,1
2440,0.09,1644591888.0,P04,D05,1,0,1
2441,0.33,1644591888.015625,P04,D05,1,0,1
2442,0.55,1644591888.03125,P04,D05,1,0,1
2443,0.58,1644591888.046875,P04,D05,1,0,1
2444,0.35,1644591888.0625,P04,D05,1,0,1
2445,-0.07,1644591888.078125,P04,D05,1,0,1
2446,-0.5,1644591888.09375,P04,D05,1,0,1
2447,-0.76,1644591888.109375,P04,D05,1,0,1
2448,-0.78,1644591888.125,P04,D05,1,0,1
2449,-0.59,1644591888.140625,P04,D05,1,0,1
2450,-0.3,1644591888.15625,P04,D05,1,0,1
2451,-0.03,1644591888.171875,P04,D05,1,0,1
2452,0.18,1644591888.1875,P04,D05,1,0,1
2453,0.36,1644591888.203125,P04,D05,1,0,1
2454,0.52,1644591888.21875,P04,D05,1,0,1
2455,0.67,1644591888.234375,P04,D05,1,0,1
2456,0.74,1644591888.25,P04,D05,1,0,1
2457,0.68,1644591888.265625,P04,D05,1,0,1
2458,0.46,1644591888.28125,P04,D05,1,0,1
2459,0.14,1644591888.296875,P04,D05,1,0,1
2460,-0.19,1644591888.3125,P04,D05,1,0,1
2461,-0.42,1644591888.328125,P04,D05,1,0,1
2462,-0.5,1644591888.34375,P04,D05,1,0,1
2463,-0.45,1644591888.359375,P04,D05,1,0,1
2464,-0.35,1644591888.375,P04,D05,1,0,1
2465,-0.28,1644591888.390625,P04,D05,1,0,1
2466,-0.27,1644591888.40625,P04,D05,1,0,1
2467,-0.32,1644591888.421875,P04,D05,1,0,1
2468,-0.35,1644591888.4375,P04,D05,1,0,1
2469,-0.29,1644591888.453125,P04,D05,1,0,1
2470,-0.11,1644591888.46875,P04,D05,1,0,1
2471,0.14,1644591888.484375,P04,D05,1,0,1
2472,0.35,1644591888.5,P04,D05,1,0,1
2473,0.47,1644591888.515625,P04,D05,1,0,1
2474,0.47,1644591888.53125,P04,D05,1,0,1
2475,0.43,1644591888.546875,P04,D05,1,0,1
2476,0.4,1644591888.5625,P04,D05,1,0,1
2477,0.41,1644591888.578125,P04,D05,1,0,1
2478,0.43,1644591888.59375,P04,D05,1,0,1
2479,0.41,1644591888.609375,P04,D05,1,0,1
2480,0.32,1644591888.625,P04,D05,1,0,1
2481,0.19,1644591888.640625,P04,D05,1,0,1
2482,0.1,1644591888.65625,P04,D05,1,0,1
2483,0.08,1644591888.671875,P04,D05,1,0,1
2484,0.12,1644591888.6875,P04,D05,1,0,1
2485,0.12,1644591888.703125,P04,D05,1,0,1
2486,0.04,1644591888.71875,P04,D05,1,0,1
2487,-0.14,1644591888.734375,P04,D05,1,0,1
2488,-0.34,1644591888.75,P04,D05,1,0,1
2489,-0.48,1644591888.765625,P04,D05,1,0,1
2490,-0.53,1644591888.78125,P04,D05,1,0,1
2491,-0.5,1644591888.796875,P04,D05,1,0,1
2492,-0.43,1644591888.8125,P04,D05,1,0,1
2493,-0.34,1644591888.828125,P04,D05,1,0,1
2494,-0.22,1644591888.84375,P04,D05,1,0,1
2495,-0.04,1644591888.859375,P04,D05,1,0,1
2496,0.21,1644591888.875,P04,D05,1,0,1
2497,0.51,1644591888.890625,P04,D05,1,0,1
2498,0.8,1644591888.90625,P04,D05,1,0,1
2499,1.0,1644591888.921875,P04,D05,1,0,1
2500,1.05,1644591888.9375,P04,D05,1,0,1
2501,0.94,1644591888.953125,P04,D05,1,0,1
2502,0.68,1644591888.96875,P04,D05,1,0,1
2503,0.3,1644591888.984375,P04,D05,1,0,1
2504,-0.16,1644591889.0,P04,D05,1,0,1
2505,-0.61,1644591889.015625,P04,D05,1,0,1
2506,-0.95,1644591889.03125,P04,D05,1,0,1
2507,-1.09,1644591889.046875,P04,D05,1,0,1
2508,-0.96,1644591889.0625,P04,D05,1,0,1
2509,-0.58,1644591889.078125,P04,D05,1,0,1
2510,-0.07,1644591889.09375,P04,D05,1,0,1
2511,0.4,1644591889.109375,P04,D05,1,0,1
2512,0.68,1644591889.125,P04,D05,1,0,1
2513,0.66,1644591889.140625,P04,D05,1,0,1
2514,0.39,1644591889.15625,P04,D05,1,0,1
2515,-0.02,1644591889.171875,P04,D05,1,0,1
2516,-0.37,1644591889.1875,P04,D05,1,0,1
2517,-0.53,1644591889.203125,P04,D05,1,0,1
2518,-0.46,1644591889.21875,P04,D05,1,0,1
2519,-0.22,1644591889.234375,P04,D05,1,0,1
2520,0.06,1644591889.25,P04,D05,1,0,1
2521,0.23,1644591889.265625,P04,D05,1,0,1
2522,0.2,1644591889.28125,P04,D05,1,0,1
2523,-0.02,1644591889.296875,P04,D05,1,0,1
2524,-0.39,1644591889.3125,P04,D05,1,0,1
2525,-0.8,1644591889.328125,P04,D05,1,0,1
2526,-1.17,1644591889.34375,P04,D05,1,0,1
2527,-1.42,1644591889.359375,P04,D05,1,0,1
2528,-1.52,1644591889.375,P04,D05,1,0,1
2529,-1.45,1644591889.390625,P04,D05,1,0,1
2530,-1.23,1644591889.40625,P04,D05,1,0,1
2531,-0.88,1644591889.421875,P04,D05,1,0,1
2532,-0.48,1644591889.4375,P04,D05,1,0,1
2533,-0.1,1644591889.453125,P04,D05,1,0,1
2534,0.2,1644591889.46875,P04,D05,1,0,1
2535,0.36,1644591889.484375,P04,D05,1,0,1
2536,0.38,1644591889.5,P04,D05,1,0,1
2537,0.27,1644591889.515625,P04,D05,1,0,1
2538,0.11,1644591889.53125,P04,D05,1,0,1
2539,-0.01,1644591889.546875,P04,D05,1,0,1
2540,-0.04,1644591889.5625,P04,D05,1,0,1
2541,0.05,1644591889.578125,P04,D05,1,0,1
2542,0.27,1644591889.59375,P04,D05,1,0,1
2543,0.59,1644591889.609375,P04,D05,1,0,1
2544,0.95,1644591889.625,P04,D05,1,0,1
2545,1.3,1644591889.640625,P04,D05,1,0,1
2546,1.56,1644591889.65625,P04,D05,1,0,1
2547,1.65,1644591889.671875,P04,D05,1,0,1
2548,1.54,1644591889.6875,P04,D05,1,0,1
2549,1.28,1644591889.703125,P04,D05,1,0,1
2550,0.96,1644591889.71875,P04,D05,1,0,1
2551,0.73,1644591889.734375,P04,D05,1,0,1
2552,0.65,1644591889.75,P04,D05,1,0,1
2553,0.68,1644591889.765625,P04,D05,1,0,1
2554,0.72,1644591889.78125,P04,D05,1,0,1
2555,0.63,1644591889.796875,P04,D05,1,0,1
2556,0.35,1644591889.8125,P04,D05,1,0,1
2557,-0.0,1644591889.828125,P04,D05,1,0,1
2558,-0.28,1644591889.84375,P04,D05,1,0,1
2559,-0.34,1644591889.859375,P04,D05,1,0,1
2560,-0.17,1644591889.875,P04,D05,1,0,1
2561,0.09,1644591889.890625,P04,D05,1,0,1
2562,0.26,1644591889.90625,P04,D05,1,0,1
2563,0.22,1644591889.921875,P04,D05,1,0,1
2564,-0.03,1644591889.9375,P04,D05,1,0,1
2565,-0.33,1644591889.953125,P04,D05,1,0,1
2566,-0.51,1644591889.96875,P04,D05,1,0,1
2567,-0.49,1644591889.984375,P04,D05,1,0,1
2568,-0.29,1644591890.0,P04,D05,1,0,1
2569,-0.04,1644591890.015625,P04,D05,1,0,1
2570,0.13,1644591890.03125,P04,D05,1,0,1
2571,0.16,1644591890.046875,P04,D05,1,0,1
2572,0.05,1644591890.0625,P04,D05,1,0,1
2573,-0.12,1644591890.078125,P04,D05,1,0,1
2574,-0.3,1644591890.09375,P04,D05,1,0,1
2575,-0.43,1644591890.109375,P04,D05,1,0,1
2576,-0.52,1644591890.125,P04,D05,1,0,1
2577,-0.56,1644591890.140625,P04,D05,1,0,1
2578,-0.58,1644591890.15625,P04,D05,1,0,1
2579,-0.6,1644591890.171875,P04,D05,1,0,1
2580,-0.6,1644591890.1875,P04,D05,1,0,1
2581,-0.6,1644591890.203125,P04,D05,1,0,1
2582,-0.56,1644591890.21875,P04,D05,1,0,1
2583,-0.44,1644591890.234375,P04,D05,1,0,1
2584,-0.22,1644591890.25,P04,D05,1,0,1
2585,0.06,1644591890.265625,P04,D05,1,0,1
2586,0.35,1644591890.28125,P04,D05,1,0,1
2587,0.54,1644591890.296875,P04,D05,1,0,1
2588,0.58,1644591890.3125,P04,D05,1,0,1
2589,0.44,1644591890.328125,P04,D05,1,0,1
2590,0.19,1644591890.34375,P04,D05,1,0,1
2591,-0.06,1644591890.359375,P04,D05,1,0,1
2592,-0.2,1644591890.375,P04,D05,1,0,1
2593,-0.18,1644591890.390625,P04,D05,1,0,1
2594,-0.01,1644591890.40625,P04,D05,1,0,1
2595,0.19,1644591890.421875,P04,D05,1,0,1
2596,0.3,1644591890.4375,P04,D05,1,0,1
2597,0.17,1644591890.453125,P04,D05,1,0,1
2598,-0.2,1644591890.46875,P04,D05,1,0,1
2599,-0.7,1644591890.484375,P04,D05,1,0,1
2600,-1.13,1644591890.5,P04,D05,1,0,1
2601,-1.32,1644591890.515625,P04,D05,1,0,1
2602,-1.19,1644591890.53125,P04,D05,1,0,1
2603,-0.84,1644591890.546875,P04,D05,1,0,1
2604,-0.46,1644591890.5625,P04,D05,1,0,1
2605,-0.22,1644591890.578125,P04,D05,1,0,1
2606,-0.17,1644591890.59375,P04,D05,1,0,1
2607,-0.22,1644591890.609375,P04,D05,1,0,1
2608,-0.22,1644591890.625,P04,D05,1,0,1
2609,-0.07,1644591890.640625,P04,D05,1,0,1
2610,0.2,1644591890.65625,P04,D05,1,0,1
2611,0.45,1644591890.671875,P04,D05,1,0,1
2612,0.53,1644591890.6875,P04,D05,1,0,1
2613,0.38,1644591890.703125,P04,D05,1,0,1
2614,0.06,1644591890.71875,P04,D05,1,0,1
2615,-0.28,1644591890.734375,P04,D05,1,0,1
2616,-0.47,1644591890.75,P04,D05,1,0,1
2617,-0.41,1644591890.765625,P04,D05,1,0,1
2618,-0.12,1644591890.78125,P04,D05,1,0,1
2619,0.29,1644591890.796875,P04,D05,1,0,1
2620,0.68,1644591890.8125,P04,D05,1,0,1
2621,0.97,1644591890.828125,P04,D05,1,0,1
2622,1.12,1644591890.84375,P04,D05,1,0,1
2623,1.19,1644591890.859375,P04,D05,1,0,1
2624,1.25,1644591890.875,P04,D05,1,0,1
2625,1.33,1644591890.890625,P04,D05,1,0,1
2626,1.41,1644591890.90625,P04,D05,1,0,1
2627,1.43,1644591890.921875,P04,D05,1,0,1
2628,1.34,1644591890.9375,P04,D05,1,0,1
2629,1.13,1644591890.953125,P04,D05,1,0,1
2630,0.86,1644591890.96875,P04,D05,1,0,1
2631,0.56,1644591890.984375,P04,D05,1,0,1
2632,0.24,1644591891.0,P04,D05,1,0,1
2633,-0.12,1644591891.015625,P04,D05,1,0,1
2634,-0.55,1644591891.03125,P04,D05,1,0,1
2635,-1.03,1644591891.046875,P04,D05,1,0,1
2636,-1.43,1644591891.0625,P04,D05,1,0,1
2637,-1.6,1644591891.078125,P04,D05,1,0,1
2638,-1.47,1644591891.09375,P04,D05,1,0,1
2639,-1.09,1644591891.109375,P04,D05,1,0,1
2640,-0.64,1644591891.125,P04,D05,1,0,1
2641,-0.34,1644591891.140625,P04,D05,1,0,1
2642,-0.35,1644591891.15625,P04,D05,1,0,1
2643,-0.65,1644591891.171875,P04,D05,1,0,1
2644,-1.09,1644591891.1875,P04,D05,1,0,1
2645,-1.45,1644591891.203125,P04,D05,1,0,1
2646,-1.56,1644591891.21875,P04,D05,1,0,1
2647,-1.38,1644591891.234375,P04,D05,1,0,1
2648,-0.96,1644591891.25,P04,D05,1,0,1
2649,-0.47,1644591891.265625,P04,D05,1,0,1
2650,-0.04,1644591891.28125,P04,D05,1,0,1
2651,0.24,1644591891.296875,P04,D05,1,0,1
2652,0.38,1644591891.3125,P04,D05,1,0,1
2653,0.41,1644591891.328125,P04,D05,1,0,1
2654,0.42,1644591891.34375,P04,D05,1,0,1
2655,0.46,1644591891.359375,P04,D05,1,0,1
2656,0.51,1644591891.375,P04,D05,1,0,1
2657,0.55,1644591891.390625,P04,D05,1,0,1
2658,0.55,1644591891.40625,P04,D05,1,0,1
2659,0.53,1644591891.421875,P04,D05,1,0,1
2660,0.54,1644591891.4375,P04,D05,1,0,1
2661,0.58,1644591891.453125,P04,D05,1,0,1
2662,0.65,1644591891.46875,P04,D05,1,0,1
2663,0.69,1644591891.484375,P04,D05,1,0,1
2664,0.66,1644591891.5,P04,D05,1,0,1
2665,0.56,1644591891.515625,P04,D05,1,0,1
2666,0.45,1644591891.53125,P04,D05,1,0,1
2667,0.41,1644591891.546875,P04,D05,1,0,1
2668,0.43,1644591891.5625,P04,D05,1,0,1
2669,0.45,1644591891.578125,P04,D05,1,0,1
2670,0.39,1644591891.59375,P04,D05,1,0,1
2671,0.17,1644591891.609375,P04,D05,1,0,1
2672,-0.15,1644591891.625,P04,D05,1,0,1
2673,-0.46,1644591891.640625,P04,D05,1,0,1
2674,-0.62,1644591891.65625,P04,D05,1,0,1
2675,-0.58,1644591891.671875,P04,D05,1,0,1
2676,-0.39,1644591891.6875,P04,D05,1,0,1
2677,-0.17,1644591891.703125,P04,D05,1,0,1
2678,-0.04,1644591891.71875,P04,D05,1,0,1
2679,-0.01,1644591891.734375,P04,D05,1,0,1
2680,-0.05,1644591891.75,P04,D05,1,0,1
2681,-0.07,1644591891.765625,P04,D05,1,0,1
2682,-0.02,1644591891.78125,P04,D05,1,0,1
2683,0.08,1644591891.796875,P04,D05,1,0,1
2684,0.16,1644591891.8125,P04,D05,1,0,1
2685,0.2,1644591891.828125,P04,D05,1,0,1
2686,0.16,1644591891.84375,P04,D05,1,0,1
2687,0.07,1644591891.859375,P04,D05,1,0,1
2688,-0.01,1644591891.875,P04,D05,1,0,1
2689,-0.06,1644591891.890625,P04,D05,1,0,1
2690,-0.06,1644591891.90625,P04,D05,1,0,1
2691,-0.03,1644591891.921875,P04,D05,1,0,1
2692,-0.04,1644591891.9375,P04,D05,1,0,1
2693,-0.11,1644591891.953125,P04,D05,1,0,1
2694,-0.22,1644591891.96875,P04,D05,1,0,1
2695,-0.32,1644591891.984375,P04,D05,1,0,1
2696,-0.34,1644591892.0,P04,D05,1,0,1
2697,-0.23,1644591892.015625,P04,D05,1,0,1
2698,-0.02,1644591892.03125,P04,D05,1,0,1
2699,0.23,1644591892.046875,P04,D05,1,0,1
2700,0.43,1644591892.0625,P04,D05,1,0,1
2701,0.51,1644591892.078125,P04,D05,1,0,1
2702,0.46,1644591892.09375,P04,D05,1,0,1
2703,0.34,1644591892.109375,P04,D05,1,0,1
2704,0.21,1644591892.125,P04,D05,1,0,1
2705,0.15,1644591892.140625,P04,D05,1,0,1
2706,0.18,1644591892.15625,P04,D05,1,0,1
2707,0.27,1644591892.171875,P04,D05,1,0,1
2708,0.38,1644591892.1875,P04,D05,1,0,1
2709,0.43,1644591892.203125,P04,D05,1,0,1
2710,0.41,1644591892.21875,P04,D05,1,0,1
2711,0.32,1644591892.234375,P04,D05,1,0,1
2712,0.21,1644591892.25,P04,D05,1,0,1
2713,0.14,1644591892.265625,P04,D05,1,0,1
2714,0.17,1644591892.28125,P04,D05,1,0,1
2715,0.32,1644591892.296875,P04,D05,1,0,1
2716,0.54,1644591892.3125,P04,D05,1,0,1
2717,0.75,1644591892.328125,P04,D05,1,0,1
2718,0.88,1644591892.34375,P04,D05,1,0,1
2719,0.87,1644591892.359375,P04,D05,1,0,1
2720,0.73,1644591892.375,P04,D05,1,0,1
2721,0.49,1644591892.390625,P04,D05,1,0,1
2722,0.24,1644591892.40625,P04,D05,1,0,1
2723,0.01,1644591892.421875,P04,D05,1,0,1
2724,-0.15,1644591892.4375,P04,D05,1,0,1
2725,-0.24,1644591892.453125,P04,D05,1,0,1
2726,-0.28,1644591892.46875,P04,D05,1,0,1
2727,-0.29,1644591892.484375,P04,D05,1,0,1
2728,-0.33,1644591892.5,P04,D05,1,0,1
2729,-0.4,1644591892.515625,P04,D05,1,0,1
2730,-0.51,1644591892.53125,P04,D05,1,0,1
2731,-0.62,1644591892.546875,P04,D05,1,0,1
2732,-0.69,1644591892.5625,P04,D05,1,0,1
2733,-0.68,1644591892.578125,P04,D05,1,0,1
2734,-0.59,1644591892.59375,P04,D05,1,0,1
2735,-0.43,1644591892.609375,P04,D05,1,0,1
2736,-0.25,1644591892.625,P04,D05,1,0,1
2737,-0.08,1644591892.640625,P04,D05,1,0,1
2738,0.07,1644591892.65625,P04,D05,1,0,1
2739,0.2,1644591892.671875,P04,D05,1,0,1
2740,0.26,1644591892.6875,P04,D05,1,0,1
2741,0.21,1644591892.703125,P04,D05,1,0,1
2742,0.03,1644591892.71875,P04,D05,1,0,1
2743,-0.26,1644591892.734375,P04,D05,1,0,1
2744,-0.56,1644591892.75,P04,D05,1,0,1
2745,-0.75,1644591892.765625,P04,D05,1,0,1
2746,-0.76,1644591892.78125,P04,D05,1,0,1
2747,-0.6,1644591892.796875,P04,D05,1,0,1
2748,-0.34,1644591892.8125,P04,D05,1,0,1
2749,-0.13,1644591892.828125,P04,D05,1,0,1
2750,-0.06,1644591892.84375,P04,D05,1,0,1
2751,-0.16,1644591892.859375,P04,D05,1,0,1
2752,-0.38,1644591892.875,P04,D05,1,0,1
2753,-0.68,1644591892.890625,P04,D05,1,0,1
2754,-0.97,1644591892.90625,P04,D05,1,0,1
2755,-1.23,1644591892.921875,P04,D05,1,0,1
2756,-1.39,1644591892.9375,P04,D05,1,0,1
2757,-1.41,1644591892.953125,P04,D05,1,0,1
2758,-1.26,1644591892.96875,P04,D05,1,0,1
2759,-0.92,1644591892.984375,P04,D05,1,0,1
2760,-0.46,1644591893.0,P04,D05,1,0,1
2761,0.0,1644591893.015625,P04,D05,1,0,1
2762,0.38,1644591893.03125,P04,D05,1,0,1
2763,0.6,1644591893.046875,P04,D05,1,0,1
2764,0.67,1644591893.0625,P04,D05,1,0,1
2765,0.64,1644591893.078125,P04,D05,1,0,1
2766,0.57,1644591893.09375,P04,D05,1,0,1
2767,0.49,1644591893.109375,P04,D05,1,0,1
2768,0.42,1644591893.125,P04,D05,1,0,1
2769,0.36,1644591893.140625,P04,D05,1,0,1
2770,0.33,1644591893.15625,P04,D05,1,0,1
2771,0.36,1644591893.171875,P04,D05,1,0,1
2772,0.47,1644591893.1875,P04,D05,1,0,1
2773,0.63,1644591893.203125,P04,D05,1,0,1
2774,0.81,1644591893.21875,P04,D05,1,0,1
2775,0.93,1644591893.234375,P04,D05,1,0,1
2776,0.97,1644591893.25,P04,D05,1,0,1
2777,0.88,1644591893.265625,P04,D05,1,0,1
2778,0.68,1644591893.28125,P04,D05,1,0,1
2779,0.4,1644591893.296875,P04,D05,1,0,1
2780,0.1,1644591893.3125,P04,D05,1,0,1
2781,-0.17,1644591893.328125,P04,D05,1,0,1
2782,-0.38,1644591893.34375,P04,D05,1,0,1
2783,-0.5,1644591893.359375,P04,D05,1,0,1
2784,-0.54,1644591893.375,P04,D05,1,0,1
2785,-0.49,1644591893.390625,P04,D05,1,0,1
2786,-0.39,1644591893.40625,P04,D05,1,0,1
2787,-0.27,1644591893.421875,P04,D05,1,0,1
2788,-0.16,1644591893.4375,P04,D05,1,0,1
2789,-0.1,1644591893.453125,P04,D05,1,0,1
2790,-0.1,1644591893.46875,P04,D05,1,0,1
2791,-0.17,1644591893.484375,P04,D05,1,0,1
2792,-0.25,1644591893.5,P04,D05,1,0,1
2793,-0.31,1644591893.515625,P04,D05,1,0,1
2794,-0.25,1644591893.53125,P04,D05,1,0,1
2795,-0.05,1644591893.546875,P04,D05,1,0,1
2796,0.27,1644591893.5625,P04,D05,1,0,1
2797,0.64,1644591893.578125,P04,D05,1,0,1
2798,0.95,1644591893.59375,P04,D05,1,0,1
2799,1.12,1644591893.609375,P04,D05,1,0,1
2800,1.12,1644591893.625,P04,D05,1,0,1
2801,0.95,1644591893.640625,P04,D05,1,0,1
2802,0.67,1644591893.65625,P04,D05,1,0,1
2803,0.32,1644591893.671875,P04,D05,1,0,1
2804,-0.04,1644591893.6875,P04,D05,1,0,1
2805,-0.38,1644591893.703125,P04,D05,1,0,1
2806,-0.66,1644591893.71875,P04,D05,1,0,1
2807,-0.87,1644591893.734375,P04,D05,1,0,1
2808,-1.0,1644591893.75,P04,D05,1,0,1
2809,-1.02,1644591893.765625,P04,D05,1,0,1
2810,-0.94,1644591893.78125,P04,D05,1,0,1
2811,-0.77,1644591893.796875,P04,D05,1,0,1
2812,-0.51,1644591893.8125,P04,D05,1,0,1
2813,-0.21,1644591893.828125,P04,D05,1,0,1
2814,0.09,1644591893.84375,P04,D05,1,0,1
2815,0.33,1644591893.859375,P04,D05,1,0,1
2816,0.45,1644591893.875,P04,D05,1,0,1
2817,0.45,1644591893.890625,P04,D05,1,0,1
2818,0.38,1644591893.90625,P04,D05,1,0,1
2819,0.26,1644591893.921875,P04,D05,1,0,1
2820,0.15,1644591893.9375,P04,D05,1,0,1
2821,0.06,1644591893.953125,P04,D05,1,0,1
2822,-0.02,1644591893.96875,P04,D05,1,0,1
2823,-0.09,1644591893.984375,P04,D05,1,0,1
2824,-0.14,1644591894.0,P04,D05,1,0,1
2825,-0.14,1644591894.015625,P04,D05,1,0,1
2826,-0.07,1644591894.03125,P04,D05,1,0,1
2827,0.06,1644591894.046875,P04,D05,1,0,1
2828,0.2,1644591894.0625,P04,D05,1,0,1
2829,0.31,1644591894.078125,P04,D05,1,0,1
2830,0.36,1644591894.09375,P04,D05,1,0,1
2831,0.33,1644591894.109375,P04,D05,1,0,1
2832,0.24,1644591894.125,P04,D05,1,0,1
2833,0.09,1644591894.140625,P04,D05,1,0,1
2834,-0.12,1644591894.15625,P04,D05,1,0,1
2835,-0.4,1644591894.171875,P04,D05,1,0,1
2836,-0.73,1644591894.1875,P04,D05,1,0,1
2837,-1.03,1644591894.203125,P04,D05,1,0,1
2838,-1.2,1644591894.21875,P04,D05,1,0,1
2839,-1.2,1644591894.234375,P04,D05,1,0,1
2840,-1.02,1644591894.25,P04,D05,1,0,1
2841,-0.71,1644591894.265625,P04,D05,1,0,1
2842,-0.36,1644591894.28125,P04,D05,1,0,1
2843,-0.02,1644591894.296875,P04,D05,1,0,1
2844,0.28,1644591894.3125,P04,D05,1,0,1
2845,0.52,1644591894.328125,P04,D05,1,0,1
2846,0.65,1644591894.34375,P04,D05,1,0,1
2847,0.62,1644591894.359375,P04,D05,1,0,1
2848,0.43,1644591894.375,P04,D05,1,0,1
2849,0.12,1644591894.390625,P04,D05,1,0,1
2850,-0.15,1644591894.40625,P04,D05,1,0,1
2851,-0.25,1644591894.421875,P04,D05,1,0,1
2852,-0.08,1644591894.4375,P04,D05,1,0,1
2853,0.28,1644591894.453125,P04,D05,1,0,1
2854,0.68,1644591894.46875,P04,D05,1,0,1
2855,0.91,1644591894.484375,P04,D05,1,0,1
2856,0.85,1644591894.5,P04,D05,1,0,1
2857,0.54,1644591894.515625,P04,D05,1,0,1
2858,0.11,1644591894.53125,P04,D05,1,0,1
2859,-0.25,1644591894.546875,P04,D05,1,0,1
2860,-0.46,1644591894.5625,P04,D05,1,0,1
2861,-0.54,1644591894.578125,P04,D05,1,0,1
2862,-0.59,1644591894.59375,P04,D05,1,0,1
2863,-0.69,1644591894.609375,P04,D05,1,0,1
2864,-0.79,1644591894.625,P04,D05,1,0,1
2865,-0.8,1644591894.640625,P04,D05,1,0,1
2866,-0.57,1644591894.65625,P04,D05,1,0,1
2867,-0.09,1644591894.671875,P04,D05,1,0,1
2868,0.47,1644591894.6875,P04,D05,1,0,1
2869,0.89,1644591894.703125,P04,D05,1,0,1
2870,0.97,1644591894.71875,P04,D05,1,0,1
2871,0.7,1644591894.734375,P04,D05,1,0,1
2872,0.26,1644591894.75,P04,D05,1,0,1
2873,-0.05,1644591894.765625,P04,D05,1,0,1
2874,0.0,1644591894.78125,P04,D05,1,0,1
2875,0.43,1644591894.796875,P04,D05,1,0,1
2876,1.04,1644591894.8125,P04,D05,1,0,1
2877,1.55,1644591894.828125,P04,D05,1,0,1
2878,1.72,1644591894.84375,P04,D05,1,0,1
2879,1.48,1644591894.859375,P04,D05,1,0,1
2880,0.95,1644591894.875,P04,D05,1,0,1
2881,0.35,1644591894.890625,P04,D05,1,0,1
2882,-0.14,1644591894.90625,P04,D05,1,0,1
2883,-0.43,1644591894.921875,P04,D05,1,0,1
2884,-0.52,1644591894.9375,P04,D05,1,0,1
2885,-0.5,1644591894.953125,P04,D05,1,0,1
2886,-0.42,1644591894.96875,P04,D05,1,0,1
2887,-0.3,1644591894.984375,P04,D05,1,0,1
2888,-0.14,1644591895.0,P04,D05,1,0,1
2889,0.02,1644591895.015625,P04,D05,1,0,1
2890,0.16,1644591895.03125,P04,D05,1,0,1
2891,0.22,1644591895.046875,P04,D05,1,0,1
2892,0.17,1644591895.0625,P04,D05,1,0,1
2893,0.0,1644591895.078125,P04,D05,1,0,1
2894,-0.23,1644591895.09375,P04,D05,1,0,1
2895,-0.44,1644591895.109375,P04,D05,1,0,1
2896,-0.55,1644591895.125,P04,D05,1,0,1
2897,-0.52,1644591895.140625,P04,D05,1,0,1
2898,-0.38,1644591895.15625,P04,D05,1,0,1
2899,-0.21,1644591895.171875,P04,D05,1,0,1
2900,-0.15,1644591895.1875,P04,D05,1,0,1
2901,-0.29,1644591895.203125,P04,D05,1,0,1
2902,-0.65,1644591895.21875,P04,D05,1,0,1
2903,-1.13,1644591895.234375,P04,D05,1,0,1
2904,-1.56,1644591895.25,P04,D05,1,0,1
2905,-1.75,1644591895.265625,P04,D05,1,0,1
2906,-1.58,1644591895.28125,P04,D05,1,0,1
2907,-1.09,1644591895.296875,P04,D05,1,0,1
2908,-0.45,1644591895.3125,P04,D05,1,0,1
2909,0.14,1644591895.328125,P04,D05,1,0,1
2910,0.5,1644591895.34375,P04,D05,1,0,1
2911,0.56,1644591895.359375,P04,D05,1,0,1
2912,0.41,1644591895.375,P04,D05,1,0,1
2913,0.19,1644591895.390625,P04,D05,1,0,1
2914,0.02,1644591895.40625,P04,D05,1,0,1
2915,-0.01,1644591895.421875,P04,D05,1,0,1
2916,0.06,1644591895.4375,P04,D05,1,0,1
2917,0.21,1644591895.453125,P04,D05,1,0,1
2918,0.37,1644591895.46875,P04,D05,1,0,1
2919,0.53,1644591895.484375,P04,D05,1,0,1
2920,0.68,1644591895.5,P04,D05,1,0,1
