,data,timestamp,participant,document,val,arou,eng
0,0.67,1645443012.484375,P18,D02,1,0,0
1,0.43,1645443012.5,P18,D02,1,0,0
2,0.03,1645443012.515625,P18,D02,1,0,0
3,-0.34,1645443012.53125,P18,D02,1,0,0
4,-0.52,1645443012.546875,P18,D02,1,0,0
5,-0.41,1645443012.5625,P18,D02,1,0,0
6,-0.08,1645443012.578125,P18,D02,1,0,0
7,0.31,1645443012.59375,P18,D02,1,0,0
8,0.55,1645443012.609375,P18,D02,1,0,0
9,0.54,1645443012.625,P18,D02,1,0,0
10,0.31,1645443012.640625,P18,D02,1,0,0
11,-0.0,1645443012.65625,P18,D02,1,0,0
12,-0.24,1645443012.671875,P18,D02,1,0,0
13,-0.29,1645443012.6875,P18,D02,1,0,0
14,-0.19,1645443012.703125,P18,D02,1,0,0
15,-0.0,1645443012.71875,P18,D02,1,0,0
16,0.15,1645443012.734375,P18,D02,1,0,0
17,0.24,1645443012.75,P18,D02,1,0,0
18,0.28,1645443012.765625,P18,D02,1,0,0
19,0.33,1645443012.78125,P18,D02,1,0,0
20,0.41,1645443012.796875,P18,D02,1,0,0
21,0.48,1645443012.8125,P18,D02,1,0,0
22,0.43,1645443012.828125,P18,D02,1,0,0
23,0.2,1645443012.84375,P18,D02,1,0,0
24,-0.14,1645443012.859375,P18,D02,1,0,0
25,-0.48,1645443012.875,P18,D02,1,0,0
26,-0.65,1645443012.890625,P18,D02,1,0,0
27,-0.58,1645443012.90625,P18,D02,1,0,0
28,-0.31,1645443012.921875,P18,D02,1,0,0
29,0.01,1645443012.9375,P18,D02,1,0,0
30,0.21,1645443012.953125,P18,D02,1,0,0
31,0.22,1645443012.96875,P18,D02,1,0,0
32,0.08,1645443012.984375,P18,D02,1,0,0
33,-0.1,1645443013.0,P18,D02,1,0,0
34,-0.2,1645443013.015625,P18,D02,1,0,0
35,-0.2,1645443013.03125,P18,D02,1,0,0
36,-0.13,1645443013.046875,P18,D02,1,0,0
37,-0.08,1645443013.0625,P18,D02,1,0,0
38,-0.12,1645443013.078125,P18,D02,1,0,0
39,-0.21,1645443013.09375,P18,D02,1,0,0
40,-0.32,1645443013.109375,P18,D02,1,0,0
41,-0.36,1645443013.125,P18,D02,1,0,0
42,-0.31,1645443013.140625,P18,D02,1,0,0
43,-0.21,1645443013.15625,P18,D02,1,0,0
44,-0.15,1645443013.171875,P18,D02,1,0,0
45,-0.17,1645443013.1875,P18,D02,1,0,0
46,-0.29,1645443013.203125,P18,D02,1,0,0
47,-0.45,1645443013.21875,P18,D02,1,0,0
48,-0.57,1645443013.234375,P18,D02,1,0,0
49,-0.57,1645443013.25,P18,D02,1,0,0
50,-0.45,1645443013.265625,P18,D02,1,0,0
51,-0.25,1645443013.28125,P18,D02,1,0,0
52,-0.01,1645443013.296875,P18,D02,1,0,0
53,0.25,1645443013.3125,P18,D02,1,0,0
54,0.55,1645443013.328125,P18,D02,1,0,0
55,0.91,1645443013.34375,P18,D02,1,0,0
56,1.28,1645443013.359375,P18,D02,1,0,0
57,1.57,1645443013.375,P18,D02,1,0,0
58,1.67,1645443013.390625,P18,D02,1,0,0
59,1.51,1645443013.40625,P18,D02,1,0,0
60,1.13,1645443013.421875,P18,D02,1,0,0
61,0.67,1645443013.4375,P18,D02,1,0,0
62,0.3,1645443013.453125,P18,D02,1,0,0
63,0.11,1645443013.46875,P18,D02,1,0,0
64,0.08,1645443013.484375,P18,D02,1,0,0
65,0.1,1645443013.5,P18,D02,1,0,0
66,0.05,1645443013.515625,P18,D02,1,0,0
67,-0.06,1645443013.53125,P18,D02,1,0,0
68,-0.18,1645443013.546875,P18,D02,1,0,0
69,-0.22,1645443013.5625,P18,D02,1,0,0
70,-0.16,1645443013.578125,P18,D02,1,0,0
71,-0.08,1645443013.59375,P18,D02,1,0,0
72,-0.12,1645443013.609375,P18,D02,1,0,0
73,-0.33,1645443013.625,P18,D02,1,0,0
74,-0.66,1645443013.640625,P18,D02,1,0,0
75,-0.96,1645443013.65625,P18,D02,1,0,0
76,-1.08,1645443013.671875,P18,D02,1,0,0
77,-0.97,1645443013.6875,P18,D02,1,0,0
78,-0.73,1645443013.703125,P18,D02,1,0,0
79,-0.52,1645443013.71875,P18,D02,1,0,0
80,-0.47,1645443013.734375,P18,D02,1,0,0
81,-0.61,1645443013.75,P18,D02,1,0,0
82,-0.81,1645443013.765625,P18,D02,1,0,0
83,-0.94,1645443013.78125,P18,D02,1,0,0
84,-0.87,1645443013.796875,P18,D02,1,0,0
85,-0.63,1645443013.8125,P18,D02,1,0,0
86,-0.35,1645443013.828125,P18,D02,1,0,0
87,-0.14,1645443013.84375,P18,D02,1,0,0
88,-0.08,1645443013.859375,P18,D02,1,0,0
89,-0.12,1645443013.875,P18,D02,1,0,0
90,-0.16,1645443013.890625,P18,D02,1,0,0
91,-0.09,1645443013.90625,P18,D02,1,0,0
92,0.08,1645443013.921875,P18,D02,1,0,0
93,0.31,1645443013.9375,P18,D02,1,0,0
94,0.46,1645443013.953125,P18,D02,1,0,0
95,0.47,1645443013.96875,P18,D02,1,0,0
96,0.32,1645443013.984375,P18,D02,1,0,0
97,0.12,1645443014.0,P18,D02,1,0,0
98,-0.05,1645443014.015625,P18,D02,1,0,0
99,-0.09,1645443014.03125,P18,D02,1,0,0
100,-0.03,1645443014.046875,P18,D02,1,0,0
101,0.03,1645443014.0625,P18,D02,1,0,0
102,-0.01,1645443014.078125,P18,D02,1,0,0
103,-0.2,1645443014.09375,P18,D02,1,0,0
104,-0.5,1645443014.109375,P18,D02,1,0,0
105,-0.78,1645443014.125,P18,D02,1,0,0
106,-0.93,1645443014.140625,P18,D02,1,0,0
107,-0.9,1645443014.15625,P18,D02,1,0,0
108,-0.73,1645443014.171875,P18,D02,1,0,0
109,-0.51,1645443014.1875,P18,D02,1,0,0
110,-0.31,1645443014.203125,P18,D02,1,0,0
111,-0.13,1645443014.21875,P18,D02,1,0,0
112,0.05,1645443014.234375,P18,D02,1,0,0
113,0.27,1645443014.25,P18,D02,1,0,0
114,0.5,1645443014.265625,P18,D02,1,0,0
115,0.68,1645443014.28125,P18,D02,1,0,0
116,0.72,1645443014.296875,P18,D02,1,0,0
117,0.6,1645443014.3125,P18,D02,1,0,0
118,0.38,1645443014.328125,P18,D02,1,0,0
119,0.15,1645443014.34375,P18,D02,1,0,0
120,0.03,1645443014.359375,P18,D02,1,0,0
121,0.04,1645443014.375,P18,D02,1,0,0
122,0.16,1645443014.390625,P18,D02,1,0,0
123,0.31,1645443014.40625,P18,D02,1,0,0
124,0.43,1645443014.421875,P18,D02,1,0,0
125,0.49,1645443014.4375,P18,D02,1,0,0
126,0.47,1645443014.453125,P18,D02,1,0,0
127,0.42,1645443014.46875,P18,D02,1,0,0
128,0.38,1645443014.484375,P18,D02,1,0,0
129,0.39,1645443014.5,P18,D02,1,0,0
130,0.45,1645443014.515625,P18,D02,1,0,0
131,0.53,1645443014.53125,P18,D02,1,0,0
132,0.6,1645443014.546875,P18,D02,1,0,0
133,0.59,1645443014.5625,P18,D02,1,0,0
134,0.51,1645443014.578125,P18,D02,1,0,0
135,0.39,1645443014.59375,P18,D02,1,0,0
136,0.34,1645443014.609375,P18,D02,1,0,0
137,0.4,1645443014.625,P18,D02,1,0,0
138,0.58,1645443014.640625,P18,D02,1,0,0
139,0.76,1645443014.65625,P18,D02,1,0,0
140,0.81,1645443014.671875,P18,D02,1,0,0
141,0.64,1645443014.6875,P18,D02,1,0,0
142,0.28,1645443014.703125,P18,D02,1,0,0
143,-0.13,1645443014.71875,P18,D02,1,0,0
144,-0.43,1645443014.734375,P18,D02,1,0,0
145,-0.49,1645443014.75,P18,D02,1,0,0
146,-0.31,1645443014.765625,P18,D02,1,0,0
147,-0.02,1645443014.78125,P18,D02,1,0,0
148,0.23,1645443014.796875,P18,D02,1,0,0
149,0.31,1645443014.8125,P18,D02,1,0,0
150,0.23,1645443014.828125,P18,D02,1,0,0
151,0.05,1645443014.84375,P18,D02,1,0,0
152,-0.12,1645443014.859375,P18,D02,1,0,0
153,-0.23,1645443014.875,P18,D02,1,0,0
154,-0.31,1645443014.890625,P18,D02,1,0,0
155,-0.43,1645443014.90625,P18,D02,1,0,0
156,-0.63,1645443014.921875,P18,D02,1,0,0
157,-0.88,1645443014.9375,P18,D02,1,0,0
158,-1.06,1645443014.953125,P18,D02,1,0,0
159,-1.07,1645443014.96875,P18,D02,1,0,0
160,-0.84,1645443014.984375,P18,D02,1,0,0
161,-0.43,1645443015.0,P18,D02,1,0,0
162,0.01,1645443015.015625,P18,D02,1,0,0
163,0.32,1645443015.03125,P18,D02,1,0,0
164,0.37,1645443015.046875,P18,D02,1,0,0
165,0.18,1645443015.0625,P18,D02,1,0,0
166,-0.14,1645443015.078125,P18,D02,1,0,0
167,-0.45,1645443015.09375,P18,D02,1,0,0
168,-0.62,1645443015.109375,P18,D02,1,0,0
169,-0.59,1645443015.125,P18,D02,1,0,0
170,-0.41,1645443015.140625,P18,D02,1,0,0
171,-0.15,1645443015.15625,P18,D02,1,0,0
172,0.12,1645443015.171875,P18,D02,1,0,0
173,0.31,1645443015.1875,P18,D02,1,0,0
174,0.42,1645443015.203125,P18,D02,1,0,0
175,0.42,1645443015.21875,P18,D02,1,0,0
176,0.32,1645443015.234375,P18,D02,1,0,0
177,0.13,1645443015.25,P18,D02,1,0,0
178,-0.13,1645443015.265625,P18,D02,1,0,0
179,-0.4,1645443015.28125,P18,D02,1,0,0
180,-0.58,1645443015.296875,P18,D02,1,0,0
181,-0.59,1645443015.3125,P18,D02,1,0,0
182,-0.38,1645443015.328125,P18,D02,1,0,0
183,0.03,1645443015.34375,P18,D02,1,0,0
184,0.55,1645443015.359375,P18,D02,1,0,0
185,1.03,1645443015.375,P18,D02,1,0,0
186,1.33,1645443015.390625,P18,D02,1,0,0
187,1.39,1645443015.40625,P18,D02,1,0,0
188,1.21,1645443015.421875,P18,D02,1,0,0
189,0.88,1645443015.4375,P18,D02,1,0,0
190,0.55,1645443015.453125,P18,D02,1,0,0
191,0.35,1645443015.46875,P18,D02,1,0,0
192,0.39,1645443015.484375,P18,D02,1,0,0
193,0.64,1645443015.5,P18,D02,1,0,0
194,1.01,1645443015.515625,P18,D02,1,0,0
195,1.32,1645443015.53125,P18,D02,1,0,0
196,1.46,1645443015.546875,P18,D02,1,0,0
197,1.39,1645443015.5625,P18,D02,1,0,0
198,1.21,1645443015.578125,P18,D02,1,0,0
199,1.04,1645443015.59375,P18,D02,1,0,0
200,0.98,1645443015.609375,P18,D02,1,0,0
201,1.05,1645443015.625,P18,D02,1,0,0
202,1.15,1645443015.640625,P18,D02,1,0,0
203,1.21,1645443015.65625,P18,D02,1,0,0
204,1.2,1645443015.671875,P18,D02,1,0,0
205,1.18,1645443015.6875,P18,D02,1,0,0
206,1.25,1645443015.703125,P18,D02,1,0,0
207,1.44,1645443015.71875,P18,D02,1,0,0
208,1.69,1645443015.734375,P18,D02,1,0,0
209,1.87,1645443015.75,P18,D02,1,0,0
210,1.87,1645443015.765625,P18,D02,1,0,0
211,1.68,1645443015.78125,P18,D02,1,0,0
212,1.45,1645443015.796875,P18,D02,1,0,0
213,1.38,1645443015.8125,P18,D02,1,0,0
214,1.61,1645443015.828125,P18,D02,1,0,0
215,2.14,1645443015.84375,P18,D02,1,0,0
216,2.83,1645443015.859375,P18,D02,1,0,0
217,3.48,1645443015.875,P18,D02,1,0,0
218,3.93,1645443015.890625,P18,D02,1,0,0
219,4.15,1645443015.90625,P18,D02,1,0,0
220,4.19,1645443015.921875,P18,D02,1,0,0
221,4.14,1645443015.9375,P18,D02,1,0,0
222,4.01,1645443015.953125,P18,D02,1,0,0
223,3.72,1645443015.96875,P18,D02,1,0,0
224,3.14,1645443015.984375,P18,D02,1,0,0
225,2.19,1645443016.0,P18,D02,1,0,0
226,0.89,1645443016.015625,P18,D02,1,0,0
227,-0.58,1645443016.03125,P18,D02,1,0,0
228,-1.99,1645443016.046875,P18,D02,1,0,0
229,-3.09,1645443016.0625,P18,D02,1,0,0
230,-3.75,1645443016.078125,P18,D02,1,0,0
231,-3.98,1645443016.09375,P18,D02,1,0,0
232,-3.91,1645443016.109375,P18,D02,1,0,0
233,-3.71,1645443016.125,P18,D02,1,0,0
234,-3.54,1645443016.140625,P18,D02,1,0,0
235,-3.46,1645443016.15625,P18,D02,1,0,0
236,-3.44,1645443016.171875,P18,D02,1,0,0
237,-3.46,1645443016.1875,P18,D02,1,0,0
238,-3.45,1645443016.203125,P18,D02,1,0,0
239,-3.42,1645443016.21875,P18,D02,1,0,0
240,-3.4,1645443016.234375,P18,D02,1,0,0
241,-3.4,1645443016.25,P18,D02,1,0,0
242,-3.38,1645443016.265625,P18,D02,1,0,0
243,-3.27,1645443016.28125,P18,D02,1,0,0
244,-2.95,1645443016.296875,P18,D02,1,0,0
245,-2.42,1645443016.3125,P18,D02,1,0,0
246,-1.78,1645443016.328125,P18,D02,1,0,0
247,-1.24,1645443016.34375,P18,D02,1,0,0
248,-1.06,1645443016.359375,P18,D02,1,0,0
249,-1.43,1645443016.375,P18,D02,1,0,0
250,-2.35,1645443016.390625,P18,D02,1,0,0
251,-3.6,1645443016.40625,P18,D02,1,0,0
252,-4.81,1645443016.421875,P18,D02,1,0,0
253,-5.56,1645443016.4375,P18,D02,1,0,0
254,-5.64,1645443016.453125,P18,D02,1,0,0
255,-5.07,1645443016.46875,P18,D02,1,0,0
256,-4.15,1645443016.484375,P18,D02,1,0,0
257,-3.24,1645443016.5,P18,D02,1,0,0
258,-2.62,1645443016.515625,P18,D02,1,0,0
259,-2.33,1645443016.53125,P18,D02,1,0,0
260,-2.15,1645443016.546875,P18,D02,1,0,0
261,-1.69,1645443016.5625,P18,D02,1,0,0
262,-0.62,1645443016.578125,P18,D02,1,0,0
263,1.19,1645443016.59375,P18,D02,1,0,0
264,3.57,1645443016.609375,P18,D02,1,0,0
265,6.13,1645443016.625,P18,D02,1,0,0
266,8.34,1645443016.640625,P18,D02,1,0,0
267,9.77,1645443016.65625,P18,D02,1,0,0
268,10.26,1645443016.671875,P18,D02,1,0,0
269,10.03,1645443016.6875,P18,D02,1,0,0
270,9.63,1645443016.703125,P18,D02,1,0,0
271,9.8,1645443016.71875,P18,D02,1,0,0
272,11.22,1645443016.734375,P18,D02,1,0,0
273,14.2,1645443016.75,P18,D02,1,0,0
274,18.52,1645443016.765625,P18,D02,1,0,0
275,23.43,1645443016.78125,P18,D02,1,0,0
276,27.78,1645443016.796875,P18,D02,1,0,0
277,30.52,1645443016.8125,P18,D02,1,0,0
278,31.11,1645443016.828125,P18,D02,1,0,0
279,29.87,1645443016.84375,P18,D02,1,0,0
280,27.96,1645443016.859375,P18,D02,1,0,0
281,26.89,1645443016.875,P18,D02,1,0,0
282,27.78,1645443016.890625,P18,D02,1,0,0
283,30.79,1645443016.90625,P18,D02,1,0,0
284,34.94,1645443016.921875,P18,D02,1,0,0
285,38.61,1645443016.9375,P18,D02,1,0,0
286,40.33,1645443016.953125,P18,D02,1,0,0
287,39.64,1645443016.96875,P18,D02,1,0,0
288,37.33,1645443016.984375,P18,D02,1,0,0
289,35.07,1645443017.0,P18,D02,1,0,0
290,34.58,1645443017.015625,P18,D02,1,0,0
291,36.77,1645443017.03125,P18,D02,1,0,0
292,41.28,1645443017.046875,P18,D02,1,0,0
293,46.65,1645443017.0625,P18,D02,1,0,0
294,50.94,1645443017.078125,P18,D02,1,0,0
295,52.55,1645443017.09375,P18,D02,1,0,0
296,50.83,1645443017.109375,P18,D02,1,0,0
297,46.26,1645443017.125,P18,D02,1,0,0
298,40.38,1645443017.140625,P18,D02,1,0,0
299,35.39,1645443017.15625,P18,D02,1,0,0
300,33.25,1645443017.171875,P18,D02,1,0,0
301,34.75,1645443017.1875,P18,D02,1,0,0
302,38.58,1645443017.203125,P18,D02,1,0,0
303,40.94,1645443017.21875,P18,D02,1,0,0
304,36.02,1645443017.234375,P18,D02,1,0,0
305,17.82,1645443017.25,P18,D02,1,0,0
306,-17.37,1645443017.265625,P18,D02,1,0,0
307,-68.42,1645443017.28125,P18,D02,1,0,0
308,-128.39,1645443017.296875,P18,D02,1,0,0
309,-185.66,1645443017.3125,P18,D02,1,0,0
310,-227.09,1645443017.328125,P18,D02,1,0,0
311,-242.31,1645443017.34375,P18,D02,1,0,0
312,-227.22,1645443017.359375,P18,D02,1,0,0
313,-185.24,1645443017.375,P18,D02,1,0,0
314,-125.86,1645443017.390625,P18,D02,1,0,0
315,-61.22,1645443017.40625,P18,D02,1,0,0
316,-2.16,1645443017.421875,P18,D02,1,0,0
317,44.5,1645443017.4375,P18,D02,1,0,0
318,76.66,1645443017.453125,P18,D02,1,0,0
319,95.89,1645443017.46875,P18,D02,1,0,0
320,105.44,1645443017.484375,P18,D02,1,0,0
321,108.67,1645443017.5,P18,D02,1,0,0
322,108.2,1645443017.515625,P18,D02,1,0,0
323,106.12,1645443017.53125,P18,D02,1,0,0
324,104.31,1645443017.546875,P18,D02,1,0,0
325,104.61,1645443017.5625,P18,D02,1,0,0
326,108.51,1645443017.578125,P18,D02,1,0,0
327,116.76,1645443017.59375,P18,D02,1,0,0
328,129.17,1645443017.609375,P18,D02,1,0,0
329,144.53,1645443017.625,P18,D02,1,0,0
330,160.99,1645443017.640625,P18,D02,1,0,0
331,176.22,1645443017.65625,P18,D02,1,0,0
332,187.59,1645443017.671875,P18,D02,1,0,0
333,192.37,1645443017.6875,P18,D02,1,0,0
334,188.01,1645443017.703125,P18,D02,1,0,0
335,172.57,1645443017.71875,P18,D02,1,0,0
336,145.07,1645443017.734375,P18,D02,1,0,0
337,105.81,1645443017.75,P18,D02,1,0,0
338,56.52,1645443017.765625,P18,D02,1,0,0
339,0.56,1645443017.78125,P18,D02,1,0,0
340,-57.06,1645443017.796875,P18,D02,1,0,0
341,-109.93,1645443017.8125,P18,D02,1,0,0
342,-151.33,1645443017.828125,P18,D02,1,0,0
343,-175.77,1645443017.84375,P18,D02,1,0,0
344,-180.81,1645443017.859375,P18,D02,1,0,0
345,-168.11,1645443017.875,P18,D02,1,0,0
346,-143.15,1645443017.890625,P18,D02,1,0,0
347,-113.52,1645443017.90625,P18,D02,1,0,0
348,-86.43,1645443017.921875,P18,D02,1,0,0
349,-66.59,1645443017.9375,P18,D02,1,0,0
350,-55.31,1645443017.953125,P18,D02,1,0,0
351,-51.04,1645443017.96875,P18,D02,1,0,0
352,-50.81,1645443017.984375,P18,D02,1,0,0
353,-51.7,1645443018.0,P18,D02,1,0,0
354,-51.81,1645443018.015625,P18,D02,1,0,0
355,-50.48,1645443018.03125,P18,D02,1,0,0
356,-47.99,1645443018.046875,P18,D02,1,0,0
357,-45.14,1645443018.0625,P18,D02,1,0,0
358,-42.96,1645443018.078125,P18,D02,1,0,0
359,-42.43,1645443018.09375,P18,D02,1,0,0
360,-44.45,1645443018.109375,P18,D02,1,0,0
361,-49.78,1645443018.125,P18,D02,1,0,0
362,-58.83,1645443018.140625,P18,D02,1,0,0
363,-71.46,1645443018.15625,P18,D02,1,0,0
364,-86.74,1645443018.171875,P18,D02,1,0,0
365,-103.08,1645443018.1875,P18,D02,1,0,0
366,-118.56,1645443018.203125,P18,D02,1,0,0
367,-131.5,1645443018.21875,P18,D02,1,0,0
368,-141.04,1645443018.234375,P18,D02,1,0,0
369,-147.44,1645443018.25,P18,D02,1,0,0
370,-151.81,1645443018.265625,P18,D02,1,0,0
371,-155.58,1645443018.28125,P18,D02,1,0,0
372,-159.81,1645443018.296875,P18,D02,1,0,0
373,-164.64,1645443018.3125,P18,D02,1,0,0
374,-169.28,1645443018.328125,P18,D02,1,0,0
375,-172.34,1645443018.34375,P18,D02,1,0,0
376,-172.47,1645443018.359375,P18,D02,1,0,0
377,-168.94,1645443018.375,P18,D02,1,0,0
378,-161.92,1645443018.390625,P18,D02,1,0,0
379,-152.44,1645443018.40625,P18,D02,1,0,0
380,-141.96,1645443018.421875,P18,D02,1,0,0
381,-132.03,1645443018.4375,P18,D02,1,0,0
382,-124.08,1645443018.453125,P18,D02,1,0,0
383,-119.33,1645443018.46875,P18,D02,1,0,0
384,-118.64,1645443018.484375,P18,D02,1,0,0
385,-122.12,1645443018.5,P18,D02,1,0,0
386,-128.57,1645443018.515625,P18,D02,1,0,0
387,-135.22,1645443018.53125,P18,D02,1,0,0
388,-137.87,1645443018.546875,P18,D02,1,0,0
389,-131.87,1645443018.5625,P18,D02,1,0,0
390,-113.46,1645443018.578125,P18,D02,1,0,0
391,-81.11,1645443018.59375,P18,D02,1,0,0
392,-36.32,1645443018.609375,P18,D02,1,0,0
393,16.45,1645443018.625,P18,D02,1,0,0
394,70.79,1645443018.640625,P18,D02,1,0,0
395,119.9,1645443018.65625,P18,D02,1,0,0
396,158.31,1645443018.671875,P18,D02,1,0,0
397,183.05,1645443018.6875,P18,D02,1,0,0
398,194.08,1645443018.703125,P18,D02,1,0,0
399,193.85,1645443018.71875,P18,D02,1,0,0
400,186.11,1645443018.734375,P18,D02,1,0,0
401,174.64,1645443018.75,P18,D02,1,0,0
402,162.27,1645443018.765625,P18,D02,1,0,0
403,150.51,1645443018.78125,P18,D02,1,0,0
404,139.83,1645443018.796875,P18,D02,1,0,0
405,130.25,1645443018.8125,P18,D02,1,0,0
406,121.79,1645443018.828125,P18,D02,1,0,0
407,114.59,1645443018.84375,P18,D02,1,0,0
408,108.58,1645443018.859375,P18,D02,1,0,0
409,103.33,1645443018.875,P18,D02,1,0,0
410,98.09,1645443018.890625,P18,D02,1,0,0
411,92.1,1645443018.90625,P18,D02,1,0,0
412,85.06,1645443018.921875,P18,D02,1,0,0
413,77.3,1645443018.9375,P18,D02,1,0,0
414,69.61,1645443018.953125,P18,D02,1,0,0
415,62.92,1645443018.96875,P18,D02,1,0,0
416,57.81,1645443018.984375,P18,D02,1,0,0
417,54.21,1645443019.0,P18,D02,1,0,0
418,51.48,1645443019.015625,P18,D02,1,0,0
419,48.8,1645443019.03125,P18,D02,1,0,0
420,45.49,1645443019.046875,P18,D02,1,0,0
421,41.42,1645443019.0625,P18,D02,1,0,0
422,36.92,1645443019.078125,P18,D02,1,0,0
423,32.67,1645443019.09375,P18,D02,1,0,0
424,29.26,1645443019.109375,P18,D02,1,0,0
425,26.91,1645443019.125,P18,D02,1,0,0
426,25.41,1645443019.140625,P18,D02,1,0,0
427,24.23,1645443019.15625,P18,D02,1,0,0
428,22.85,1645443019.171875,P18,D02,1,0,0
429,20.94,1645443019.1875,P18,D02,1,0,0
430,18.54,1645443019.203125,P18,D02,1,0,0
431,15.95,1645443019.21875,P18,D02,1,0,0
432,13.58,1645443019.234375,P18,D02,1,0,0
433,11.75,1645443019.25,P18,D02,1,0,0
434,10.58,1645443019.265625,P18,D02,1,0,0
435,9.98,1645443019.28125,P18,D02,1,0,0
436,9.73,1645443019.296875,P18,D02,1,0,0
437,9.58,1645443019.3125,P18,D02,1,0,0
438,9.28,1645443019.328125,P18,D02,1,0,0
439,8.68,1645443019.34375,P18,D02,1,0,0
440,7.67,1645443019.359375,P18,D02,1,0,0
441,6.23,1645443019.375,P18,D02,1,0,0
442,4.4,1645443019.390625,P18,D02,1,0,0
443,2.31,1645443019.40625,P18,D02,1,0,0
444,0.14,1645443019.421875,P18,D02,1,0,0
445,-1.88,1645443019.4375,P18,D02,1,0,0
446,-3.53,1645443019.453125,P18,D02,1,0,0
447,-4.66,1645443019.46875,P18,D02,1,0,0
448,-5.24,1645443019.484375,P18,D02,1,0,0
449,-5.32,1645443019.5,P18,D02,1,0,0
450,-5.03,1645443019.515625,P18,D02,1,0,0
451,-4.54,1645443019.53125,P18,D02,1,0,0
452,-4.0,1645443019.546875,P18,D02,1,0,0
453,-3.5,1645443019.5625,P18,D02,1,0,0
454,-3.13,1645443019.578125,P18,D02,1,0,0
455,-2.9,1645443019.59375,P18,D02,1,0,0
456,-2.78,1645443019.609375,P18,D02,1,0,0
457,-2.72,1645443019.625,P18,D02,1,0,0
458,-2.64,1645443019.640625,P18,D02,1,0,0
459,-2.48,1645443019.65625,P18,D02,1,0,0
460,-2.22,1645443019.671875,P18,D02,1,0,0
461,-1.9,1645443019.6875,P18,D02,1,0,0
462,-1.6,1645443019.703125,P18,D02,1,0,0
463,-1.39,1645443019.71875,P18,D02,1,0,0
464,-1.3,1645443019.734375,P18,D02,1,0,0
465,-1.31,1645443019.75,P18,D02,1,0,0
466,-1.35,1645443019.765625,P18,D02,1,0,0
467,-1.41,1645443019.78125,P18,D02,1,0,0
468,-1.47,1645443019.796875,P18,D02,1,0,0
469,-1.52,1645443019.8125,P18,D02,1,0,0
470,-1.55,1645443019.828125,P18,D02,1,0,0
471,-1.53,1645443019.84375,P18,D02,1,0,0
472,-1.45,1645443019.859375,P18,D02,1,0,0
473,-1.35,1645443019.875,P18,D02,1,0,0
474,-1.25,1645443019.890625,P18,D02,1,0,0
475,-1.18,1645443019.90625,P18,D02,1,0,0
476,-1.11,1645443019.921875,P18,D02,1,0,0
477,-0.98,1645443019.9375,P18,D02,1,0,0
478,-0.7,1645443019.953125,P18,D02,1,0,0
479,-0.28,1645443019.96875,P18,D02,1,0,0
480,0.22,1645443019.984375,P18,D02,1,0,0
481,0.65,1645443020.0,P18,D02,1,0,0
482,0.89,1645443020.015625,P18,D02,1,0,0
483,0.92,1645443020.03125,P18,D02,1,0,0
484,0.81,1645443020.046875,P18,D02,1,0,0
485,0.7,1645443020.0625,P18,D02,1,0,0
486,0.74,1645443020.078125,P18,D02,1,0,0
487,0.98,1645443020.09375,P18,D02,1,0,0
488,1.42,1645443020.109375,P18,D02,1,0,0
489,1.94,1645443020.125,P18,D02,1,0,0
490,2.48,1645443020.140625,P18,D02,1,0,0
491,2.98,1645443020.15625,P18,D02,1,0,0
492,3.41,1645443020.171875,P18,D02,1,0,0
493,3.77,1645443020.1875,P18,D02,1,0,0
494,4.01,1645443020.203125,P18,D02,1,0,0
495,4.15,1645443020.21875,P18,D02,1,0,0
496,4.21,1645443020.234375,P18,D02,1,0,0
497,4.3,1645443020.25,P18,D02,1,0,0
498,4.54,1645443020.265625,P18,D02,1,0,0
499,5.04,1645443020.28125,P18,D02,1,0,0
500,5.81,1645443020.296875,P18,D02,1,0,0
501,6.71,1645443020.3125,P18,D02,1,0,0
502,7.52,1645443020.328125,P18,D02,1,0,0
503,8.09,1645443020.34375,P18,D02,1,0,0
504,8.37,1645443020.359375,P18,D02,1,0,0
505,8.52,1645443020.375,P18,D02,1,0,0
506,8.81,1645443020.390625,P18,D02,1,0,0
507,9.53,1645443020.40625,P18,D02,1,0,0
508,10.79,1645443020.421875,P18,D02,1,0,0
509,12.51,1645443020.4375,P18,D02,1,0,0
510,14.41,1645443020.453125,P18,D02,1,0,0
511,16.21,1645443020.46875,P18,D02,1,0,0
512,17.79,1645443020.484375,P18,D02,1,0,0
513,19.25,1645443020.5,P18,D02,1,0,0
514,20.89,1645443020.515625,P18,D02,1,0,0
515,23.04,1645443020.53125,P18,D02,1,0,0
516,25.87,1645443020.546875,P18,D02,1,0,0
517,29.32,1645443020.5625,P18,D02,1,0,0
518,33.08,1645443020.578125,P18,D02,1,0,0
519,36.79,1645443020.59375,P18,D02,1,0,0
520,40.21,1645443020.609375,P18,D02,1,0,0
521,43.41,1645443020.625,P18,D02,1,0,0
522,46.74,1645443020.640625,P18,D02,1,0,0
523,50.69,1645443020.65625,P18,D02,1,0,0
524,55.66,1645443020.671875,P18,D02,1,0,0
525,61.75,1645443020.6875,P18,D02,1,0,0
526,68.67,1645443020.703125,P18,D02,1,0,0
527,75.84,1645443020.71875,P18,D02,1,0,0
528,82.73,1645443020.734375,P18,D02,1,0,0
529,89.01,1645443020.75,P18,D02,1,0,0
530,94.72,1645443020.765625,P18,D02,1,0,0
531,100.2,1645443020.78125,P18,D02,1,0,0
532,105.78,1645443020.796875,P18,D02,1,0,0
533,111.71,1645443020.8125,P18,D02,1,0,0
534,118.2,1645443020.828125,P18,D02,1,0,0
535,125.58,1645443020.84375,P18,D02,1,0,0
536,134.43,1645443020.859375,P18,D02,1,0,0
537,145.19,1645443020.875,P18,D02,1,0,0
538,157.38,1645443020.890625,P18,D02,1,0,0
539,169.0,1645443020.90625,P18,D02,1,0,0
540,176.51,1645443020.921875,P18,D02,1,0,0
541,175.7,1645443020.9375,P18,D02,1,0,0
542,163.23,1645443020.953125,P18,D02,1,0,0
543,137.95,1645443020.96875,P18,D02,1,0,0
544,101.25,1645443020.984375,P18,D02,1,0,0
545,56.13,1645443021.0,P18,D02,1,0,0
546,5.74,1645443021.015625,P18,D02,1,0,0
547,-47.65,1645443021.03125,P18,D02,1,0,0
548,-102.51,1645443021.046875,P18,D02,1,0,0
549,-156.94,1645443021.0625,P18,D02,1,0,0
550,-207.75,1645443021.078125,P18,D02,1,0,0
551,-250.52,1645443021.09375,P18,D02,1,0,0
552,-280.96,1645443021.109375,P18,D02,1,0,0
553,-296.52,1645443021.125,P18,D02,1,0,0
554,-297.42,1645443021.140625,P18,D02,1,0,0
555,-286.12,1645443021.15625,P18,D02,1,0,0
556,-266.01,1645443021.171875,P18,D02,1,0,0
557,-240.12,1645443021.1875,P18,D02,1,0,0
558,-210.69,1645443021.203125,P18,D02,1,0,0
559,-179.83,1645443021.21875,P18,D02,1,0,0
560,-150.19,1645443021.234375,P18,D02,1,0,0
561,-125.11,1645443021.25,P18,D02,1,0,0
562,-107.66,1645443021.265625,P18,D02,1,0,0
563,-99.3,1645443021.28125,P18,D02,1,0,0
564,-98.99,1645443021.296875,P18,D02,1,0,0
565,-103.41,1645443021.3125,P18,D02,1,0,0
566,-107.98,1645443021.328125,P18,D02,1,0,0
567,-108.29,1645443021.34375,P18,D02,1,0,0
568,-101.27,1645443021.359375,P18,D02,1,0,0
569,-85.66,1645443021.375,P18,D02,1,0,0
570,-62.23,1645443021.390625,P18,D02,1,0,0
571,-33.61,1645443021.40625,P18,D02,1,0,0
572,-3.77,1645443021.421875,P18,D02,1,0,0
573,22.83,1645443021.4375,P18,D02,1,0,0
574,42.4,1645443021.453125,P18,D02,1,0,0
575,53.01,1645443021.46875,P18,D02,1,0,0
576,55.14,1645443021.484375,P18,D02,1,0,0
577,51.18,1645443021.5,P18,D02,1,0,0
578,44.4,1645443021.515625,P18,D02,1,0,0
579,37.6,1645443021.53125,P18,D02,1,0,0
580,32.31,1645443021.546875,P18,D02,1,0,0
581,28.79,1645443021.5625,P18,D02,1,0,0
582,26.59,1645443021.578125,P18,D02,1,0,0
583,25.22,1645443021.59375,P18,D02,1,0,0
584,24.52,1645443021.609375,P18,D02,1,0,0
585,24.5,1645443021.625,P18,D02,1,0,0
586,25.04,1645443021.640625,P18,D02,1,0,0
587,25.72,1645443021.65625,P18,D02,1,0,0
588,25.88,1645443021.671875,P18,D02,1,0,0
589,24.96,1645443021.6875,P18,D02,1,0,0
590,22.83,1645443021.703125,P18,D02,1,0,0
591,19.93,1645443021.71875,P18,D02,1,0,0
592,17.08,1645443021.734375,P18,D02,1,0,0
593,15.05,1645443021.75,P18,D02,1,0,0
594,14.22,1645443021.765625,P18,D02,1,0,0
595,14.39,1645443021.78125,P18,D02,1,0,0
596,14.95,1645443021.796875,P18,D02,1,0,0
597,15.13,1645443021.8125,P18,D02,1,0,0
598,14.35,1645443021.828125,P18,D02,1,0,0
599,12.52,1645443021.84375,P18,D02,1,0,0
600,9.96,1645443021.859375,P18,D02,1,0,0
601,7.3,1645443021.875,P18,D02,1,0,0
602,5.19,1645443021.890625,P18,D02,1,0,0
603,3.98,1645443021.90625,P18,D02,1,0,0
604,3.66,1645443021.921875,P18,D02,1,0,0
605,3.9,1645443021.9375,P18,D02,1,0,0
606,4.23,1645443021.953125,P18,D02,1,0,0
607,4.28,1645443021.96875,P18,D02,1,0,0
608,3.92,1645443021.984375,P18,D02,1,0,0
609,3.25,1645443022.0,P18,D02,1,0,0
610,2.51,1645443022.015625,P18,D02,1,0,0
611,1.92,1645443022.03125,P18,D02,1,0,0
612,1.6,1645443022.046875,P18,D02,1,0,0
613,1.54,1645443022.0625,P18,D02,1,0,0
614,1.66,1645443022.078125,P18,D02,1,0,0
615,1.85,1645443022.09375,P18,D02,1,0,0
616,2.03,1645443022.109375,P18,D02,1,0,0
617,2.16,1645443022.125,P18,D02,1,0,0
618,2.21,1645443022.140625,P18,D02,1,0,0
619,2.18,1645443022.15625,P18,D02,1,0,0
620,2.05,1645443022.171875,P18,D02,1,0,0
621,1.84,1645443022.1875,P18,D02,1,0,0
622,1.6,1645443022.203125,P18,D02,1,0,0
623,1.41,1645443022.21875,P18,D02,1,0,0
624,1.37,1645443022.234375,P18,D02,1,0,0
625,1.53,1645443022.25,P18,D02,1,0,0
626,1.88,1645443022.265625,P18,D02,1,0,0
627,2.35,1645443022.28125,P18,D02,1,0,0
628,2.8,1645443022.296875,P18,D02,1,0,0
629,3.15,1645443022.3125,P18,D02,1,0,0
630,3.34,1645443022.328125,P18,D02,1,0,0
631,3.42,1645443022.34375,P18,D02,1,0,0
632,3.42,1645443022.359375,P18,D02,1,0,0
633,3.39,1645443022.375,P18,D02,1,0,0
634,3.31,1645443022.390625,P18,D02,1,0,0
635,3.13,1645443022.40625,P18,D02,1,0,0
636,2.77,1645443022.421875,P18,D02,1,0,0
637,2.24,1645443022.4375,P18,D02,1,0,0
638,1.59,1645443022.453125,P18,D02,1,0,0
639,0.97,1645443022.46875,P18,D02,1,0,0
640,0.5,1645443022.484375,P18,D02,1,0,0
641,0.25,1645443022.5,P18,D02,1,0,0
642,0.22,1645443022.515625,P18,D02,1,0,0
643,0.31,1645443022.53125,P18,D02,1,0,0
644,0.36,1645443022.546875,P18,D02,1,0,0
645,0.27,1645443022.5625,P18,D02,1,0,0
646,-0.01,1645443022.578125,P18,D02,1,0,0
647,-0.42,1645443022.59375,P18,D02,1,0,0
648,-0.79,1645443022.609375,P18,D02,1,0,0
649,-0.96,1645443022.625,P18,D02,1,0,0
650,-0.83,1645443022.640625,P18,D02,1,0,0
651,-0.45,1645443022.65625,P18,D02,1,0,0
652,0.05,1645443022.671875,P18,D02,1,0,0
653,0.45,1645443022.6875,P18,D02,1,0,0
654,0.61,1645443022.703125,P18,D02,1,0,0
655,0.51,1645443022.71875,P18,D02,1,0,0
656,0.25,1645443022.734375,P18,D02,1,0,0
657,-0.02,1645443022.75,P18,D02,1,0,0
658,-0.16,1645443022.765625,P18,D02,1,0,0
659,-0.16,1645443022.78125,P18,D02,1,0,0
660,-0.08,1645443022.796875,P18,D02,1,0,0
661,-0.01,1645443022.8125,P18,D02,1,0,0
662,-0.02,1645443022.828125,P18,D02,1,0,0
663,-0.13,1645443022.84375,P18,D02,1,0,0
664,-0.32,1645443022.859375,P18,D02,1,0,0
665,-0.55,1645443022.875,P18,D02,1,0,0
666,-0.77,1645443022.890625,P18,D02,1,0,0
667,-0.96,1645443022.90625,P18,D02,1,0,0
668,-1.09,1645443022.921875,P18,D02,1,0,0
669,-1.14,1645443022.9375,P18,D02,1,0,0
670,-1.08,1645443022.953125,P18,D02,1,0,0
671,-0.93,1645443022.96875,P18,D02,1,0,0
672,-0.7,1645443022.984375,P18,D02,1,0,0
673,-0.48,1645443023.0,P18,D02,1,0,0
674,-0.32,1645443023.015625,P18,D02,1,0,0
675,-0.29,1645443023.03125,P18,D02,1,0,0
676,-0.39,1645443023.046875,P18,D02,1,0,0
677,-0.6,1645443023.0625,P18,D02,1,0,0
678,-0.85,1645443023.078125,P18,D02,1,0,0
679,-1.05,1645443023.09375,P18,D02,1,0,0
680,-1.13,1645443023.109375,P18,D02,1,0,0
681,-1.07,1645443023.125,P18,D02,1,0,0
682,-0.91,1645443023.140625,P18,D02,1,0,0
683,-0.72,1645443023.15625,P18,D02,1,0,0
684,-0.6,1645443023.171875,P18,D02,1,0,0
685,-0.6,1645443023.1875,P18,D02,1,0,0
686,-0.7,1645443023.203125,P18,D02,1,0,0
687,-0.84,1645443023.21875,P18,D02,1,0,0
688,-0.94,1645443023.234375,P18,D02,1,0,0
689,-0.97,1645443023.25,P18,D02,1,0,0
690,-0.91,1645443023.265625,P18,D02,1,0,0
691,-0.81,1645443023.28125,P18,D02,1,0,0
692,-0.71,1645443023.296875,P18,D02,1,0,0
693,-0.6,1645443023.3125,P18,D02,1,0,0
694,-0.45,1645443023.328125,P18,D02,1,0,0
695,-0.24,1645443023.34375,P18,D02,1,0,0
696,0.02,1645443023.359375,P18,D02,1,0,0
697,0.27,1645443023.375,P18,D02,1,0,0
698,0.4,1645443023.390625,P18,D02,1,0,0
699,0.35,1645443023.40625,P18,D02,1,0,0
700,0.1,1645443023.421875,P18,D02,1,0,0
701,-0.27,1645443023.4375,P18,D02,1,0,0
702,-0.6,1645443023.453125,P18,D02,1,0,0
703,-0.78,1645443023.46875,P18,D02,1,0,0
704,-0.72,1645443023.484375,P18,D02,1,0,0
705,-0.47,1645443023.5,P18,D02,1,0,0
706,-0.11,1645443023.515625,P18,D02,1,0,0
707,0.22,1645443023.53125,P18,D02,1,0,0
708,0.42,1645443023.546875,P18,D02,1,0,0
709,0.46,1645443023.5625,P18,D02,1,0,0
710,0.38,1645443023.578125,P18,D02,1,0,0
711,0.25,1645443023.59375,P18,D02,1,0,0
712,0.17,1645443023.609375,P18,D02,1,0,0
713,0.17,1645443023.625,P18,D02,1,0,0
714,0.27,1645443023.640625,P18,D02,1,0,0
715,0.44,1645443023.65625,P18,D02,1,0,0
716,0.6,1645443023.671875,P18,D02,1,0,0
717,0.73,1645443023.6875,P18,D02,1,0,0
718,0.8,1645443023.703125,P18,D02,1,0,0
719,0.79,1645443023.71875,P18,D02,1,0,0
720,0.73,1645443023.734375,P18,D02,1,0,0
721,0.62,1645443023.75,P18,D02,1,0,0
722,0.49,1645443023.765625,P18,D02,1,0,0
723,0.34,1645443023.78125,P18,D02,1,0,0
724,0.22,1645443023.796875,P18,D02,1,0,0
725,0.15,1645443023.8125,P18,D02,1,0,0
726,0.12,1645443023.828125,P18,D02,1,0,0
727,0.12,1645443023.84375,P18,D02,1,0,0
728,0.1,1645443023.859375,P18,D02,1,0,0
729,0.02,1645443023.875,P18,D02,1,0,0
730,-0.1,1645443023.890625,P18,D02,1,0,0
731,-0.2,1645443023.90625,P18,D02,1,0,0
732,-0.18,1645443023.921875,P18,D02,1,0,0
733,-0.01,1645443023.9375,P18,D02,1,0,0
734,0.28,1645443023.953125,P18,D02,1,0,0
735,0.59,1645443023.96875,P18,D02,1,0,0
736,0.79,1645443023.984375,P18,D02,1,0,0
737,0.81,1645443024.0,P18,D02,1,0,0
738,0.67,1645443024.015625,P18,D02,1,0,0
739,0.46,1645443024.03125,P18,D02,1,0,0
740,0.26,1645443024.046875,P18,D02,1,0,0
741,0.15,1645443024.0625,P18,D02,1,0,0
742,0.12,1645443024.078125,P18,D02,1,0,0
743,0.12,1645443024.09375,P18,D02,1,0,0
744,0.09,1645443024.109375,P18,D02,1,0,0
745,0.03,1645443024.125,P18,D02,1,0,0
746,-0.09,1645443024.140625,P18,D02,1,0,0
747,-0.24,1645443024.15625,P18,D02,1,0,0
748,-0.4,1645443024.171875,P18,D02,1,0,0
749,-0.53,1645443024.1875,P18,D02,1,0,0
750,-0.61,1645443024.203125,P18,D02,1,0,0
751,-0.59,1645443024.21875,P18,D02,1,0,0
752,-0.45,1645443024.234375,P18,D02,1,0,0
753,-0.17,1645443024.25,P18,D02,1,0,0
754,0.21,1645443024.265625,P18,D02,1,0,0
755,0.62,1645443024.28125,P18,D02,1,0,0
756,1.02,1645443024.296875,P18,D02,1,0,0
757,1.33,1645443024.3125,P18,D02,1,0,0
758,1.5,1645443024.328125,P18,D02,1,0,0
759,1.49,1645443024.34375,P18,D02,1,0,0
760,1.32,1645443024.359375,P18,D02,1,0,0
761,1.05,1645443024.375,P18,D02,1,0,0
762,0.76,1645443024.390625,P18,D02,1,0,0
763,0.52,1645443024.40625,P18,D02,1,0,0
764,0.36,1645443024.421875,P18,D02,1,0,0
765,0.25,1645443024.4375,P18,D02,1,0,0
766,0.16,1645443024.453125,P18,D02,1,0,0
767,0.07,1645443024.46875,P18,D02,1,0,0
768,-0.01,1645443024.484375,P18,D02,1,0,0
769,-0.05,1645443024.5,P18,D02,1,0,0
770,-0.04,1645443024.515625,P18,D02,1,0,0
771,0.04,1645443024.53125,P18,D02,1,0,0
772,0.16,1645443024.546875,P18,D02,1,0,0
773,0.33,1645443024.5625,P18,D02,1,0,0
774,0.54,1645443024.578125,P18,D02,1,0,0
775,0.76,1645443024.59375,P18,D02,1,0,0
776,0.96,1645443024.609375,P18,D02,1,0,0
777,1.08,1645443024.625,P18,D02,1,0,0
778,1.06,1645443024.640625,P18,D02,1,0,0
779,0.91,1645443024.65625,P18,D02,1,0,0
780,0.68,1645443024.671875,P18,D02,1,0,0
781,0.45,1645443024.6875,P18,D02,1,0,0
782,0.27,1645443024.703125,P18,D02,1,0,0
783,0.16,1645443024.71875,P18,D02,1,0,0
784,0.08,1645443024.734375,P18,D02,1,0,0
785,-0.02,1645443024.75,P18,D02,1,0,0
786,-0.16,1645443024.765625,P18,D02,1,0,0
787,-0.3,1645443024.78125,P18,D02,1,0,0
788,-0.4,1645443024.796875,P18,D02,1,0,0
789,-0.39,1645443024.8125,P18,D02,1,0,0
790,-0.25,1645443024.828125,P18,D02,1,0,0
791,-0.0,1645443024.84375,P18,D02,1,0,0
792,0.26,1645443024.859375,P18,D02,1,0,0
793,0.45,1645443024.875,P18,D02,1,0,0
794,0.51,1645443024.890625,P18,D02,1,0,0
795,0.44,1645443024.90625,P18,D02,1,0,0
796,0.32,1645443024.921875,P18,D02,1,0,0
797,0.23,1645443024.9375,P18,D02,1,0,0
798,0.23,1645443024.953125,P18,D02,1,0,0
799,0.27,1645443024.96875,P18,D02,1,0,0
800,0.23,1645443024.984375,P18,D02,1,0,0
801,0.04,1645443025.0,P18,D02,1,0,0
802,-0.32,1645443025.015625,P18,D02,1,0,0
803,-0.74,1645443025.03125,P18,D02,1,0,0
804,-1.04,1645443025.046875,P18,D02,1,0,0
805,-1.1,1645443025.0625,P18,D02,1,0,0
806,-0.94,1645443025.078125,P18,D02,1,0,0
807,-0.67,1645443025.09375,P18,D02,1,0,0
808,-0.47,1645443025.109375,P18,D02,1,0,0
809,-0.41,1645443025.125,P18,D02,1,0,0
810,-0.48,1645443025.140625,P18,D02,1,0,0
811,-0.59,1645443025.15625,P18,D02,1,0,0
812,-0.65,1645443025.171875,P18,D02,1,0,0
813,-0.62,1645443025.1875,P18,D02,1,0,0
814,-0.53,1645443025.203125,P18,D02,1,0,0
815,-0.41,1645443025.21875,P18,D02,1,0,0
816,-0.27,1645443025.234375,P18,D02,1,0,0
817,-0.09,1645443025.25,P18,D02,1,0,0
818,0.14,1645443025.265625,P18,D02,1,0,0
819,0.34,1645443025.28125,P18,D02,1,0,0
820,0.43,1645443025.296875,P18,D02,1,0,0
821,0.33,1645443025.3125,P18,D02,1,0,0
822,0.04,1645443025.328125,P18,D02,1,0,0
823,-0.33,1645443025.34375,P18,D02,1,0,0
824,-0.64,1645443025.359375,P18,D02,1,0,0
825,-0.75,1645443025.375,P18,D02,1,0,0
826,-0.64,1645443025.390625,P18,D02,1,0,0
827,-0.38,1645443025.40625,P18,D02,1,0,0
828,-0.08,1645443025.421875,P18,D02,1,0,0
829,0.16,1645443025.4375,P18,D02,1,0,0
830,0.31,1645443025.453125,P18,D02,1,0,0
831,0.33,1645443025.46875,P18,D02,1,0,0
832,0.24,1645443025.484375,P18,D02,1,0,0
833,0.03,1645443025.5,P18,D02,1,0,0
834,-0.24,1645443025.515625,P18,D02,1,0,0
835,-0.52,1645443025.53125,P18,D02,1,0,0
836,-0.72,1645443025.546875,P18,D02,1,0,0
837,-0.76,1645443025.5625,P18,D02,1,0,0
838,-0.59,1645443025.578125,P18,D02,1,0,0
839,-0.22,1645443025.59375,P18,D02,1,0,0
840,0.28,1645443025.609375,P18,D02,1,0,0
841,0.78,1645443025.625,P18,D02,1,0,0
842,1.17,1645443025.640625,P18,D02,1,0,0
843,1.38,1645443025.65625,P18,D02,1,0,0
844,1.39,1645443025.671875,P18,D02,1,0,0
845,1.25,1645443025.6875,P18,D02,1,0,0
846,1.04,1645443025.703125,P18,D02,1,0,0
847,0.84,1645443025.71875,P18,D02,1,0,0
848,0.72,1645443025.734375,P18,D02,1,0,0
849,0.65,1645443025.75,P18,D02,1,0,0
850,0.63,1645443025.765625,P18,D02,1,0,0
851,0.6,1645443025.78125,P18,D02,1,0,0
852,0.57,1645443025.796875,P18,D02,1,0,0
853,0.53,1645443025.8125,P18,D02,1,0,0
854,0.51,1645443025.828125,P18,D02,1,0,0
855,0.48,1645443025.84375,P18,D02,1,0,0
856,0.44,1645443025.859375,P18,D02,1,0,0
857,0.36,1645443025.875,P18,D02,1,0,0
858,0.28,1645443025.890625,P18,D02,1,0,0
859,0.22,1645443025.90625,P18,D02,1,0,0
860,0.22,1645443025.921875,P18,D02,1,0,0
861,0.25,1645443025.9375,P18,D02,1,0,0
862,0.27,1645443025.953125,P18,D02,1,0,0
863,0.21,1645443025.96875,P18,D02,1,0,0
864,0.04,1645443025.984375,P18,D02,1,0,0
865,-0.2,1645443026.0,P18,D02,1,0,0
866,-0.44,1645443026.015625,P18,D02,1,0,0
867,-0.59,1645443026.03125,P18,D02,1,0,0
868,-0.59,1645443026.046875,P18,D02,1,0,0
869,-0.45,1645443026.0625,P18,D02,1,0,0
870,-0.21,1645443026.078125,P18,D02,1,0,0
871,0.03,1645443026.09375,P18,D02,1,0,0
872,0.19,1645443026.109375,P18,D02,1,0,0
873,0.23,1645443026.125,P18,D02,1,0,0
874,0.14,1645443026.140625,P18,D02,1,0,0
875,-0.01,1645443026.15625,P18,D02,1,0,0
876,-0.15,1645443026.171875,P18,D02,1,0,0
877,-0.18,1645443026.1875,P18,D02,1,0,0
878,-0.08,1645443026.203125,P18,D02,1,0,0
879,0.14,1645443026.21875,P18,D02,1,0,0
880,0.42,1645443026.234375,P18,D02,1,0,0
881,0.68,1645443026.25,P18,D02,1,0,0
882,0.84,1645443026.265625,P18,D02,1,0,0
883,0.9,1645443026.28125,P18,D02,1,0,0
884,0.89,1645443026.296875,P18,D02,1,0,0
885,0.88,1645443026.3125,P18,D02,1,0,0
886,0.92,1645443026.328125,P18,D02,1,0,0
887,0.98,1645443026.34375,P18,D02,1,0,0
888,0.97,1645443026.359375,P18,D02,1,0,0
889,0.81,1645443026.375,P18,D02,1,0,0
890,0.45,1645443026.390625,P18,D02,1,0,0
891,-0.02,1645443026.40625,P18,D02,1,0,0
892,-0.46,1645443026.421875,P18,D02,1,0,0
893,-0.72,1645443026.4375,P18,D02,1,0,0
894,-0.76,1645443026.453125,P18,D02,1,0,0
895,-0.63,1645443026.46875,P18,D02,1,0,0
896,-0.46,1645443026.484375,P18,D02,1,0,0
897,-0.38,1645443026.5,P18,D02,1,0,0
898,-0.42,1645443026.515625,P18,D02,1,0,0
899,-0.56,1645443026.53125,P18,D02,1,0,0
900,-0.72,1645443026.546875,P18,D02,1,0,0
901,-0.87,1645443026.5625,P18,D02,1,0,0
902,-1.02,1645443026.578125,P18,D02,1,0,0
903,-1.19,1645443026.59375,P18,D02,1,0,0
904,-1.36,1645443026.609375,P18,D02,1,0,0
905,-1.5,1645443026.625,P18,D02,1,0,0
906,-1.54,1645443026.640625,P18,D02,1,0,0
907,-1.48,1645443026.65625,P18,D02,1,0,0
908,-1.34,1645443026.671875,P18,D02,1,0,0
909,-1.17,1645443026.6875,P18,D02,1,0,0
910,-1.0,1645443026.703125,P18,D02,1,0,0
911,-0.8,1645443026.71875,P18,D02,1,0,0
912,-0.52,1645443026.734375,P18,D02,1,0,0
913,-0.14,1645443026.75,P18,D02,1,0,0
914,0.3,1645443026.765625,P18,D02,1,0,0
915,0.69,1645443026.78125,P18,D02,1,0,0
916,0.93,1645443026.796875,P18,D02,1,0,0
917,0.98,1645443026.8125,P18,D02,1,0,0
918,0.92,1645443026.828125,P18,D02,1,0,0
919,0.86,1645443026.84375,P18,D02,1,0,0
920,0.87,1645443026.859375,P18,D02,1,0,0
921,0.93,1645443026.875,P18,D02,1,0,0
922,0.97,1645443026.890625,P18,D02,1,0,0
923,0.88,1645443026.90625,P18,D02,1,0,0
924,0.65,1645443026.921875,P18,D02,1,0,0
925,0.34,1645443026.9375,P18,D02,1,0,0
926,0.07,1645443026.953125,P18,D02,1,0,0
927,-0.1,1645443026.96875,P18,D02,1,0,0
928,-0.2,1645443026.984375,P18,D02,1,0,0
929,-0.32,1645443027.0,P18,D02,1,0,0
930,-0.54,1645443027.015625,P18,D02,1,0,0
931,-0.85,1645443027.03125,P18,D02,1,0,0
932,-1.12,1645443027.046875,P18,D02,1,0,0
933,-1.23,1645443027.0625,P18,D02,1,0,0
934,-1.12,1645443027.078125,P18,D02,1,0,0
935,-0.86,1645443027.09375,P18,D02,1,0,0
936,-0.63,1645443027.109375,P18,D02,1,0,0
937,-0.55,1645443027.125,P18,D02,1,0,0
938,-0.64,1645443027.140625,P18,D02,1,0,0
939,-0.77,1645443027.15625,P18,D02,1,0,0
940,-0.8,1645443027.171875,P18,D02,1,0,0
941,-0.63,1645443027.1875,P18,D02,1,0,0
942,-0.31,1645443027.203125,P18,D02,1,0,0
943,0.01,1645443027.21875,P18,D02,1,0,0
944,0.17,1645443027.234375,P18,D02,1,0,0
945,0.12,1645443027.25,P18,D02,1,0,0
946,-0.09,1645443027.265625,P18,D02,1,0,0
947,-0.33,1645443027.28125,P18,D02,1,0,0
948,-0.44,1645443027.296875,P18,D02,1,0,0
949,-0.36,1645443027.3125,P18,D02,1,0,0
950,-0.11,1645443027.328125,P18,D02,1,0,0
951,0.23,1645443027.34375,P18,D02,1,0,0
952,0.54,1645443027.359375,P18,D02,1,0,0
953,0.74,1645443027.375,P18,D02,1,0,0
954,0.8,1645443027.390625,P18,D02,1,0,0
955,0.71,1645443027.40625,P18,D02,1,0,0
956,0.53,1645443027.421875,P18,D02,1,0,0
957,0.3,1645443027.4375,P18,D02,1,0,0
958,0.1,1645443027.453125,P18,D02,1,0,0
959,-0.03,1645443027.46875,P18,D02,1,0,0
960,-0.05,1645443027.484375,P18,D02,1,0,0
961,-0.01,1645443027.5,P18,D02,1,0,0
962,0.05,1645443027.515625,P18,D02,1,0,0
963,0.07,1645443027.53125,P18,D02,1,0,0
964,0.04,1645443027.546875,P18,D02,1,0,0
965,0.0,1645443027.5625,P18,D02,1,0,0
966,0.01,1645443027.578125,P18,D02,1,0,0
967,0.09,1645443027.59375,P18,D02,1,0,0
968,0.24,1645443027.609375,P18,D02,1,0,0
969,0.42,1645443027.625,P18,D02,1,0,0
970,0.57,1645443027.640625,P18,D02,1,0,0
971,0.62,1645443027.65625,P18,D02,1,0,0
972,0.55,1645443027.671875,P18,D02,1,0,0
973,0.41,1645443027.6875,P18,D02,1,0,0
974,0.27,1645443027.703125,P18,D02,1,0,0
975,0.22,1645443027.71875,P18,D02,1,0,0
976,0.29,1645443027.734375,P18,D02,1,0,0
977,0.47,1645443027.75,P18,D02,1,0,0
978,0.66,1645443027.765625,P18,D02,1,0,0
979,0.78,1645443027.78125,P18,D02,1,0,0
980,0.76,1645443027.796875,P18,D02,1,0,0
981,0.6,1645443027.8125,P18,D02,1,0,0
982,0.31,1645443027.828125,P18,D02,1,0,0
983,-0.03,1645443027.84375,P18,D02,1,0,0
984,-0.39,1645443027.859375,P18,D02,1,0,0
985,-0.71,1645443027.875,P18,D02,1,0,0
986,-0.96,1645443027.890625,P18,D02,1,0,0
987,-1.14,1645443027.90625,P18,D02,1,0,0
988,-1.21,1645443027.921875,P18,D02,1,0,0
989,-1.16,1645443027.9375,P18,D02,1,0,0
990,-1.0,1645443027.953125,P18,D02,1,0,0
991,-0.75,1645443027.96875,P18,D02,1,0,0
992,-0.46,1645443027.984375,P18,D02,1,0,0
993,-0.19,1645443028.0,P18,D02,1,0,0
994,-0.01,1645443028.015625,P18,D02,1,0,0
995,0.09,1645443028.03125,P18,D02,1,0,0
996,0.12,1645443028.046875,P18,D02,1,0,0
997,0.13,1645443028.0625,P18,D02,1,0,0
998,0.23,1645443028.078125,P18,D02,1,0,0
999,0.44,1645443028.09375,P18,D02,1,0,0
1000,0.75,1645443028.109375,P18,D02,1,0,0
1001,1.07,1645443028.125,P18,D02,1,0,0
1002,1.25,1645443028.140625,P18,D02,1,0,0
1003,1.21,1645443028.15625,P18,D02,1,0,0
1004,0.94,1645443028.171875,P18,D02,1,0,0
1005,0.54,1645443028.1875,P18,D02,1,0,0
1006,0.17,1645443028.203125,P18,D02,1,0,0
1007,-0.05,1645443028.21875,P18,D02,1,0,0
1008,-0.06,1645443028.234375,P18,D02,1,0,0
1009,0.1,1645443028.25,P18,D02,1,0,0
1010,0.34,1645443028.265625,P18,D02,1,0,0
1011,0.58,1645443028.28125,P18,D02,1,0,0
1012,0.79,1645443028.296875,P18,D02,1,0,0
1013,0.95,1645443028.3125,P18,D02,1,0,0
1014,1.08,1645443028.328125,P18,D02,1,0,0
1015,1.19,1645443028.34375,P18,D02,1,0,0
1016,1.29,1645443028.359375,P18,D02,1,0,0
1017,1.35,1645443028.375,P18,D02,1,0,0
1018,1.32,1645443028.390625,P18,D02,1,0,0
1019,1.18,1645443028.40625,P18,D02,1,0,0
1020,0.91,1645443028.421875,P18,D02,1,0,0
1021,0.49,1645443028.4375,P18,D02,1,0,0
1022,-0.02,1645443028.453125,P18,D02,1,0,0
1023,-0.58,1645443028.46875,P18,D02,1,0,0
1024,-1.11,1645443028.484375,P18,D02,1,0,0
1025,-1.56,1645443028.5,P18,D02,1,0,0
1026,-1.88,1645443028.515625,P18,D02,1,0,0
1027,-2.04,1645443028.53125,P18,D02,1,0,0
1028,-2.04,1645443028.546875,P18,D02,1,0,0
1029,-1.89,1645443028.5625,P18,D02,1,0,0
1030,-1.65,1645443028.578125,P18,D02,1,0,0
1031,-1.34,1645443028.59375,P18,D02,1,0,0
1032,-1.02,1645443028.609375,P18,D02,1,0,0
1033,-0.73,1645443028.625,P18,D02,1,0,0
1034,-0.54,1645443028.640625,P18,D02,1,0,0
1035,-0.47,1645443028.65625,P18,D02,1,0,0
1036,-0.55,1645443028.671875,P18,D02,1,0,0
1037,-0.72,1645443028.6875,P18,D02,1,0,0
1038,-0.9,1645443028.703125,P18,D02,1,0,0
1039,-0.98,1645443028.71875,P18,D02,1,0,0
1040,-0.9,1645443028.734375,P18,D02,1,0,0
1041,-0.64,1645443028.75,P18,D02,1,0,0
1042,-0.32,1645443028.765625,P18,D02,1,0,0
1043,-0.06,1645443028.78125,P18,D02,1,0,0
1044,0.0,1645443028.796875,P18,D02,1,0,0
1045,-0.13,1645443028.8125,P18,D02,1,0,0
1046,-0.36,1645443028.828125,P18,D02,1,0,0
1047,-0.53,1645443028.84375,P18,D02,1,0,0
1048,-0.52,1645443028.859375,P18,D02,1,0,0
1049,-0.3,1645443028.875,P18,D02,1,0,0
1050,0.06,1645443028.890625,P18,D02,1,0,0
1051,0.42,1645443028.90625,P18,D02,1,0,0
1052,0.66,1645443028.921875,P18,D02,1,0,0
1053,0.75,1645443028.9375,P18,D02,1,0,0
1054,0.71,1645443028.953125,P18,D02,1,0,0
1055,0.61,1645443028.96875,P18,D02,1,0,0
1056,0.52,1645443028.984375,P18,D02,1,0,0
1057,0.46,1645443029.0,P18,D02,1,0,0
1058,0.42,1645443029.015625,P18,D02,1,0,0
1059,0.36,1645443029.03125,P18,D02,1,0,0
1060,0.25,1645443029.046875,P18,D02,1,0,0
1061,0.1,1645443029.0625,P18,D02,1,0,0
1062,-0.06,1645443029.078125,P18,D02,1,0,0
1063,-0.23,1645443029.09375,P18,D02,1,0,0
1064,-0.36,1645443029.109375,P18,D02,1,0,0
1065,-0.46,1645443029.125,P18,D02,1,0,0
1066,-0.49,1645443029.140625,P18,D02,1,0,0
1067,-0.45,1645443029.15625,P18,D02,1,0,0
1068,-0.33,1645443029.171875,P18,D02,1,0,0
1069,-0.14,1645443029.1875,P18,D02,1,0,0
1070,0.02,1645443029.203125,P18,D02,1,0,0
1071,0.1,1645443029.21875,P18,D02,1,0,0
1072,0.04,1645443029.234375,P18,D02,1,0,0
1073,-0.13,1645443029.25,P18,D02,1,0,0
1074,-0.29,1645443029.265625,P18,D02,1,0,0
1075,-0.3,1645443029.28125,P18,D02,1,0,0
1076,-0.1,1645443029.296875,P18,D02,1,0,0
1077,0.31,1645443029.3125,P18,D02,1,0,0
1078,0.79,1645443029.328125,P18,D02,1,0,0
1079,1.16,1645443029.34375,P18,D02,1,0,0
1080,1.3,1645443029.359375,P18,D02,1,0,0
1081,1.22,1645443029.375,P18,D02,1,0,0
1082,1.03,1645443029.390625,P18,D02,1,0,0
1083,0.87,1645443029.40625,P18,D02,1,0,0
1084,0.84,1645443029.421875,P18,D02,1,0,0
1085,0.87,1645443029.4375,P18,D02,1,0,0
1086,0.85,1645443029.453125,P18,D02,1,0,0
1087,0.66,1645443029.46875,P18,D02,1,0,0
1088,0.27,1645443029.484375,P18,D02,1,0,0
1089,-0.18,1645443029.5,P18,D02,1,0,0
1090,-0.54,1645443029.515625,P18,D02,1,0,0
1091,-0.65,1645443029.53125,P18,D02,1,0,0
1092,-0.51,1645443029.546875,P18,D02,1,0,0
1093,-0.21,1645443029.5625,P18,D02,1,0,0
1094,0.08,1645443029.578125,P18,D02,1,0,0
1095,0.24,1645443029.59375,P18,D02,1,0,0
1096,0.22,1645443029.609375,P18,D02,1,0,0
1097,0.1,1645443029.625,P18,D02,1,0,0
1098,-0.05,1645443029.640625,P18,D02,1,0,0
1099,-0.13,1645443029.65625,P18,D02,1,0,0
1100,-0.14,1645443029.671875,P18,D02,1,0,0
1101,-0.09,1645443029.6875,P18,D02,1,0,0
1102,-0.03,1645443029.703125,P18,D02,1,0,0
1103,0.01,1645443029.71875,P18,D02,1,0,0
1104,0.0,1645443029.734375,P18,D02,1,0,0
1105,-0.04,1645443029.75,P18,D02,1,0,0
1106,-0.11,1645443029.765625,P18,D02,1,0,0
1107,-0.19,1645443029.78125,P18,D02,1,0,0
1108,-0.26,1645443029.796875,P18,D02,1,0,0
1109,-0.3,1645443029.8125,P18,D02,1,0,0
1110,-0.29,1645443029.828125,P18,D02,1,0,0
1111,-0.2,1645443029.84375,P18,D02,1,0,0
1112,-0.04,1645443029.859375,P18,D02,1,0,0
1113,0.19,1645443029.875,P18,D02,1,0,0
1114,0.45,1645443029.890625,P18,D02,1,0,0
1115,0.67,1645443029.90625,P18,D02,1,0,0
1116,0.76,1645443029.921875,P18,D02,1,0,0
1117,0.68,1645443029.9375,P18,D02,1,0,0
1118,0.48,1645443029.953125,P18,D02,1,0,0
1119,0.23,1645443029.96875,P18,D02,1,0,0
1120,0.03,1645443029.984375,P18,D02,1,0,0
1121,-0.04,1645443030.0,P18,D02,1,0,0
1122,0.01,1645443030.015625,P18,D02,1,0,0
1123,0.11,1645443030.03125,P18,D02,1,0,0
1124,0.17,1645443030.046875,P18,D02,1,0,0
1125,0.15,1645443030.0625,P18,D02,1,0,0
1126,0.03,1645443030.078125,P18,D02,1,0,0
1127,-0.15,1645443030.09375,P18,D02,1,0,0
1128,-0.39,1645443030.109375,P18,D02,1,0,0
1129,-0.65,1645443030.125,P18,D02,1,0,0
1130,-0.93,1645443030.140625,P18,D02,1,0,0
1131,-1.2,1645443030.15625,P18,D02,1,0,0
1132,-1.39,1645443030.171875,P18,D02,1,0,0
1133,-1.46,1645443030.1875,P18,D02,1,0,0
1134,-1.37,1645443030.203125,P18,D02,1,0,0
1135,-1.13,1645443030.21875,P18,D02,1,0,0
1136,-0.85,1645443030.234375,P18,D02,1,0,0
1137,-0.62,1645443030.25,P18,D02,1,0,0
1138,-0.58,1645443030.265625,P18,D02,1,0,0
1139,-0.77,1645443030.28125,P18,D02,1,0,0
1140,-1.2,1645443030.296875,P18,D02,1,0,0
1141,-1.77,1645443030.3125,P18,D02,1,0,0
1142,-2.37,1645443030.328125,P18,D02,1,0,0
1143,-2.83,1645443030.34375,P18,D02,1,0,0
1144,-3.03,1645443030.359375,P18,D02,1,0,0
1145,-2.88,1645443030.375,P18,D02,1,0,0
1146,-2.37,1645443030.390625,P18,D02,1,0,0
1147,-1.58,1645443030.40625,P18,D02,1,0,0
1148,-0.66,1645443030.421875,P18,D02,1,0,0
1149,0.22,1645443030.4375,P18,D02,1,0,0
1150,0.89,1645443030.453125,P18,D02,1,0,0
1151,1.26,1645443030.46875,P18,D02,1,0,0
1152,1.36,1645443030.484375,P18,D02,1,0,0
1153,1.3,1645443030.5,P18,D02,1,0,0
1154,1.2,1645443030.515625,P18,D02,1,0,0
1155,1.17,1645443030.53125,P18,D02,1,0,0
1156,1.21,1645443030.546875,P18,D02,1,0,0
1157,1.3,1645443030.5625,P18,D02,1,0,0
1158,1.37,1645443030.578125,P18,D02,1,0,0
1159,1.38,1645443030.59375,P18,D02,1,0,0
1160,1.34,1645443030.609375,P18,D02,1,0,0
1161,1.31,1645443030.625,P18,D02,1,0,0
1162,1.3,1645443030.640625,P18,D02,1,0,0
1163,1.33,1645443030.65625,P18,D02,1,0,0
1164,1.37,1645443030.671875,P18,D02,1,0,0
1165,1.39,1645443030.6875,P18,D02,1,0,0
1166,1.38,1645443030.703125,P18,D02,1,0,0
1167,1.36,1645443030.71875,P18,D02,1,0,0
1168,1.36,1645443030.734375,P18,D02,1,0,0
1169,1.38,1645443030.75,P18,D02,1,0,0
1170,1.41,1645443030.765625,P18,D02,1,0,0
1171,1.41,1645443030.78125,P18,D02,1,0,0
1172,1.32,1645443030.796875,P18,D02,1,0,0
1173,1.13,1645443030.8125,P18,D02,1,0,0
1174,0.87,1645443030.828125,P18,D02,1,0,0
1175,0.62,1645443030.84375,P18,D02,1,0,0
1176,0.44,1645443030.859375,P18,D02,1,0,0
1177,0.38,1645443030.875,P18,D02,1,0,0
1178,0.4,1645443030.890625,P18,D02,1,0,0
1179,0.46,1645443030.90625,P18,D02,1,0,0
1180,0.46,1645443030.921875,P18,D02,1,0,0
1181,0.39,1645443030.9375,P18,D02,1,0,0
1182,0.25,1645443030.953125,P18,D02,1,0,0
1183,0.08,1645443030.96875,P18,D02,1,0,0
1184,-0.07,1645443030.984375,P18,D02,1,0,0
1185,-0.2,1645443031.0,P18,D02,1,0,0
1186,-0.3,1645443031.015625,P18,D02,1,0,0
1187,-0.36,1645443031.03125,P18,D02,1,0,0
1188,-0.39,1645443031.046875,P18,D02,1,0,0
1189,-0.36,1645443031.0625,P18,D02,1,0,0
1190,-0.25,1645443031.078125,P18,D02,1,0,0
1191,-0.08,1645443031.09375,P18,D02,1,0,0
1192,0.11,1645443031.109375,P18,D02,1,0,0
1193,0.25,1645443031.125,P18,D02,1,0,0
1194,0.32,1645443031.140625,P18,D02,1,0,0
1195,0.32,1645443031.15625,P18,D02,1,0,0
1196,0.28,1645443031.171875,P18,D02,1,0,0
1197,0.22,1645443031.1875,P18,D02,1,0,0
1198,0.15,1645443031.203125,P18,D02,1,0,0
1199,0.07,1645443031.21875,P18,D02,1,0,0
1200,-0.01,1645443031.234375,P18,D02,1,0,0
1201,-0.09,1645443031.25,P18,D02,1,0,0
1202,-0.12,1645443031.265625,P18,D02,1,0,0
1203,-0.06,1645443031.28125,P18,D02,1,0,0
1204,0.09,1645443031.296875,P18,D02,1,0,0
1205,0.26,1645443031.3125,P18,D02,1,0,0
1206,0.38,1645443031.328125,P18,D02,1,0,0
1207,0.35,1645443031.34375,P18,D02,1,0,0
1208,0.14,1645443031.359375,P18,D02,1,0,0
1209,-0.2,1645443031.375,P18,D02,1,0,0
1210,-0.55,1645443031.390625,P18,D02,1,0,0
1211,-0.8,1645443031.40625,P18,D02,1,0,0
1212,-0.88,1645443031.421875,P18,D02,1,0,0
1213,-0.81,1645443031.4375,P18,D02,1,0,0
1214,-0.64,1645443031.453125,P18,D02,1,0,0
1215,-0.43,1645443031.46875,P18,D02,1,0,0
1216,-0.18,1645443031.484375,P18,D02,1,0,0
1217,0.11,1645443031.5,P18,D02,1,0,0
1218,0.42,1645443031.515625,P18,D02,1,0,0
1219,0.68,1645443031.53125,P18,D02,1,0,0
1220,0.8,1645443031.546875,P18,D02,1,0,0
1221,0.71,1645443031.5625,P18,D02,1,0,0
1222,0.4,1645443031.578125,P18,D02,1,0,0
1223,-0.02,1645443031.59375,P18,D02,1,0,0
1224,-0.39,1645443031.609375,P18,D02,1,0,0
1225,-0.6,1645443031.625,P18,D02,1,0,0
1226,-0.58,1645443031.640625,P18,D02,1,0,0
1227,-0.38,1645443031.65625,P18,D02,1,0,0
1228,-0.12,1645443031.671875,P18,D02,1,0,0
1229,0.1,1645443031.6875,P18,D02,1,0,0
1230,0.18,1645443031.703125,P18,D02,1,0,0
1231,0.13,1645443031.71875,P18,D02,1,0,0
1232,-0.04,1645443031.734375,P18,D02,1,0,0
1233,-0.26,1645443031.75,P18,D02,1,0,0
1234,-0.49,1645443031.765625,P18,D02,1,0,0
1235,-0.7,1645443031.78125,P18,D02,1,0,0
1236,-0.87,1645443031.796875,P18,D02,1,0,0
1237,-0.97,1645443031.8125,P18,D02,1,0,0
1238,-0.98,1645443031.828125,P18,D02,1,0,0
1239,-0.88,1645443031.84375,P18,D02,1,0,0
1240,-0.65,1645443031.859375,P18,D02,1,0,0
1241,-0.33,1645443031.875,P18,D02,1,0,0
1242,0.03,1645443031.890625,P18,D02,1,0,0
1243,0.36,1645443031.90625,P18,D02,1,0,0
1244,0.62,1645443031.921875,P18,D02,1,0,0
1245,0.76,1645443031.9375,P18,D02,1,0,0
1246,0.78,1645443031.953125,P18,D02,1,0,0
1247,0.69,1645443031.96875,P18,D02,1,0,0
1248,0.52,1645443031.984375,P18,D02,1,0,0
1249,0.31,1645443032.0,P18,D02,1,0,0
1250,0.13,1645443032.015625,P18,D02,1,0,0
1251,0.02,1645443032.03125,P18,D02,1,0,0
1252,0.02,1645443032.046875,P18,D02,1,0,0
1253,0.07,1645443032.0625,P18,D02,1,0,0
1254,0.12,1645443032.078125,P18,D02,1,0,0
1255,0.09,1645443032.09375,P18,D02,1,0,0
1256,-0.05,1645443032.109375,P18,D02,1,0,0
1257,-0.25,1645443032.125,P18,D02,1,0,0
1258,-0.41,1645443032.140625,P18,D02,1,0,0
1259,-0.43,1645443032.15625,P18,D02,1,0,0
1260,-0.28,1645443032.171875,P18,D02,1,0,0
1261,-0.01,1645443032.1875,P18,D02,1,0,0
1262,0.29,1645443032.203125,P18,D02,1,0,0
1263,0.51,1645443032.21875,P18,D02,1,0,0
1264,0.61,1645443032.234375,P18,D02,1,0,0
1265,0.59,1645443032.25,P18,D02,1,0,0
1266,0.49,1645443032.265625,P18,D02,1,0,0
1267,0.35,1645443032.28125,P18,D02,1,0,0
1268,0.19,1645443032.296875,P18,D02,1,0,0
1269,0.02,1645443032.3125,P18,D02,1,0,0
1270,-0.12,1645443032.328125,P18,D02,1,0,0
1271,-0.21,1645443032.34375,P18,D02,1,0,0
1272,-0.22,1645443032.359375,P18,D02,1,0,0
1273,-0.16,1645443032.375,P18,D02,1,0,0
1274,-0.05,1645443032.390625,P18,D02,1,0,0
1275,0.06,1645443032.40625,P18,D02,1,0,0
1276,0.12,1645443032.421875,P18,D02,1,0,0
1277,0.08,1645443032.4375,P18,D02,1,0,0
1278,-0.09,1645443032.453125,P18,D02,1,0,0
1279,-0.36,1645443032.46875,P18,D02,1,0,0
1280,-0.67,1645443032.484375,P18,D02,1,0,0
1281,-0.96,1645443032.5,P18,D02,1,0,0
1282,-1.14,1645443032.515625,P18,D02,1,0,0
1283,-1.17,1645443032.53125,P18,D02,1,0,0
1284,-1.07,1645443032.546875,P18,D02,1,0,0
1285,-0.92,1645443032.5625,P18,D02,1,0,0
1286,-0.82,1645443032.578125,P18,D02,1,0,0
1287,-0.84,1645443032.59375,P18,D02,1,0,0
1288,-0.92,1645443032.609375,P18,D02,1,0,0
1289,-0.98,1645443032.625,P18,D02,1,0,0
1290,-0.89,1645443032.640625,P18,D02,1,0,0
1291,-0.61,1645443032.65625,P18,D02,1,0,0
1292,-0.24,1645443032.671875,P18,D02,1,0,0
1293,0.12,1645443032.6875,P18,D02,1,0,0
1294,0.35,1645443032.703125,P18,D02,1,0,0
1295,0.43,1645443032.71875,P18,D02,1,0,0
1296,0.41,1645443032.734375,P18,D02,1,0,0
1297,0.39,1645443032.75,P18,D02,1,0,0
1298,0.41,1645443032.765625,P18,D02,1,0,0
1299,0.44,1645443032.78125,P18,D02,1,0,0
1300,0.42,1645443032.796875,P18,D02,1,0,0
1301,0.28,1645443032.8125,P18,D02,1,0,0
1302,0.05,1645443032.828125,P18,D02,1,0,0
1303,-0.19,1645443032.84375,P18,D02,1,0,0
1304,-0.32,1645443032.859375,P18,D02,1,0,0
1305,-0.29,1645443032.875,P18,D02,1,0,0
1306,-0.14,1645443032.890625,P18,D02,1,0,0
1307,0.07,1645443032.90625,P18,D02,1,0,0
1308,0.28,1645443032.921875,P18,D02,1,0,0
1309,0.5,1645443032.9375,P18,D02,1,0,0
1310,0.77,1645443032.953125,P18,D02,1,0,0
1311,1.09,1645443032.96875,P18,D02,1,0,0
1312,1.41,1645443032.984375,P18,D02,1,0,0
1313,1.63,1645443033.0,P18,D02,1,0,0
1314,1.63,1645443033.015625,P18,D02,1,0,0
1315,1.4,1645443033.03125,P18,D02,1,0,0
1316,1.01,1645443033.046875,P18,D02,1,0,0
1317,0.61,1645443033.0625,P18,D02,1,0,0
1318,0.32,1645443033.078125,P18,D02,1,0,0
1319,0.2,1645443033.09375,P18,D02,1,0,0
1320,0.19,1645443033.109375,P18,D02,1,0,0
1321,0.2,1645443033.125,P18,D02,1,0,0
1322,0.15,1645443033.140625,P18,D02,1,0,0
1323,0.05,1645443033.15625,P18,D02,1,0,0
1324,-0.09,1645443033.171875,P18,D02,1,0,0
1325,-0.21,1645443033.1875,P18,D02,1,0,0
1326,-0.31,1645443033.203125,P18,D02,1,0,0
1327,-0.38,1645443033.21875,P18,D02,1,0,0
1328,-0.44,1645443033.234375,P18,D02,1,0,0
1329,-0.5,1645443033.25,P18,D02,1,0,0
1330,-0.55,1645443033.265625,P18,D02,1,0,0
1331,-0.57,1645443033.28125,P18,D02,1,0,0
1332,-0.56,1645443033.296875,P18,D02,1,0,0
1333,-0.5,1645443033.3125,P18,D02,1,0,0
1334,-0.38,1645443033.328125,P18,D02,1,0,0
1335,-0.2,1645443033.34375,P18,D02,1,0,0
1336,0.0,1645443033.359375,P18,D02,1,0,0
1337,0.15,1645443033.375,P18,D02,1,0,0
1338,0.16,1645443033.390625,P18,D02,1,0,0
1339,0.03,1645443033.40625,P18,D02,1,0,0
1340,-0.17,1645443033.421875,P18,D02,1,0,0
1341,-0.3,1645443033.4375,P18,D02,1,0,0
1342,-0.29,1645443033.453125,P18,D02,1,0,0
1343,-0.14,1645443033.46875,P18,D02,1,0,0
1344,0.03,1645443033.484375,P18,D02,1,0,0
1345,0.07,1645443033.5,P18,D02,1,0,0
1346,-0.13,1645443033.515625,P18,D02,1,0,0
1347,-0.52,1645443033.53125,P18,D02,1,0,0
1348,-1.01,1645443033.546875,P18,D02,1,0,0
1349,-1.45,1645443033.5625,P18,D02,1,0,0
1350,-1.79,1645443033.578125,P18,D02,1,0,0
1351,-2.02,1645443033.59375,P18,D02,1,0,0
1352,-2.15,1645443033.609375,P18,D02,1,0,0
1353,-2.16,1645443033.625,P18,D02,1,0,0
1354,-1.98,1645443033.640625,P18,D02,1,0,0
1355,-1.58,1645443033.65625,P18,D02,1,0,0
1356,-0.98,1645443033.671875,P18,D02,1,0,0
1357,-0.3,1645443033.6875,P18,D02,1,0,0
1358,0.29,1645443033.703125,P18,D02,1,0,0
1359,0.67,1645443033.71875,P18,D02,1,0,0
1360,0.83,1645443033.734375,P18,D02,1,0,0
1361,0.82,1645443033.75,P18,D02,1,0,0
1362,0.73,1645443033.765625,P18,D02,1,0,0
1363,0.62,1645443033.78125,P18,D02,1,0,0
1364,0.52,1645443033.796875,P18,D02,1,0,0
1365,0.41,1645443033.8125,P18,D02,1,0,0
1366,0.28,1645443033.828125,P18,D02,1,0,0
1367,0.15,1645443033.84375,P18,D02,1,0,0
1368,0.06,1645443033.859375,P18,D02,1,0,0
1369,0.04,1645443033.875,P18,D02,1,0,0
1370,0.13,1645443033.890625,P18,D02,1,0,0
1371,0.33,1645443033.90625,P18,D02,1,0,0
1372,0.63,1645443033.921875,P18,D02,1,0,0
1373,0.98,1645443033.9375,P18,D02,1,0,0
1374,1.28,1645443033.953125,P18,D02,1,0,0
1375,1.47,1645443033.96875,P18,D02,1,0,0
1376,1.49,1645443033.984375,P18,D02,1,0,0
1377,1.37,1645443034.0,P18,D02,1,0,0
1378,1.2,1645443034.015625,P18,D02,1,0,0
1379,1.08,1645443034.03125,P18,D02,1,0,0
1380,1.06,1645443034.046875,P18,D02,1,0,0
1381,1.08,1645443034.0625,P18,D02,1,0,0
1382,1.05,1645443034.078125,P18,D02,1,0,0
1383,0.86,1645443034.09375,P18,D02,1,0,0
1384,0.52,1645443034.109375,P18,D02,1,0,0
1385,0.13,1645443034.125,P18,D02,1,0,0
1386,-0.15,1645443034.140625,P18,D02,1,0,0
1387,-0.2,1645443034.15625,P18,D02,1,0,0
1388,-0.02,1645443034.171875,P18,D02,1,0,0
1389,0.26,1645443034.1875,P18,D02,1,0,0
1390,0.47,1645443034.203125,P18,D02,1,0,0
1391,0.5,1645443034.21875,P18,D02,1,0,0
1392,0.34,1645443034.234375,P18,D02,1,0,0
1393,0.11,1645443034.25,P18,D02,1,0,0
1394,-0.05,1645443034.265625,P18,D02,1,0,0
1395,-0.06,1645443034.28125,P18,D02,1,0,0
1396,0.06,1645443034.296875,P18,D02,1,0,0
1397,0.19,1645443034.3125,P18,D02,1,0,0
1398,0.2,1645443034.328125,P18,D02,1,0,0
1399,0.04,1645443034.34375,P18,D02,1,0,0
1400,-0.25,1645443034.359375,P18,D02,1,0,0
1401,-0.55,1645443034.375,P18,D02,1,0,0
1402,-0.76,1645443034.390625,P18,D02,1,0,0
1403,-0.8,1645443034.40625,P18,D02,1,0,0
1404,-0.68,1645443034.421875,P18,D02,1,0,0
1405,-0.48,1645443034.4375,P18,D02,1,0,0
1406,-0.27,1645443034.453125,P18,D02,1,0,0
1407,-0.08,1645443034.46875,P18,D02,1,0,0
1408,0.08,1645443034.484375,P18,D02,1,0,0
1409,0.23,1645443034.5,P18,D02,1,0,0
1410,0.37,1645443034.515625,P18,D02,1,0,0
1411,0.47,1645443034.53125,P18,D02,1,0,0
1412,0.45,1645443034.546875,P18,D02,1,0,0
1413,0.27,1645443034.5625,P18,D02,1,0,0
1414,-0.06,1645443034.578125,P18,D02,1,0,0
1415,-0.42,1645443034.59375,P18,D02,1,0,0
1416,-0.66,1645443034.609375,P18,D02,1,0,0
1417,-0.66,1645443034.625,P18,D02,1,0,0
1418,-0.41,1645443034.640625,P18,D02,1,0,0
1419,-0.02,1645443034.65625,P18,D02,1,0,0
1420,0.34,1645443034.671875,P18,D02,1,0,0
1421,0.53,1645443034.6875,P18,D02,1,0,0
1422,0.5,1645443034.703125,P18,D02,1,0,0
1423,0.27,1645443034.71875,P18,D02,1,0,0
1424,-0.03,1645443034.734375,P18,D02,1,0,0
1425,-0.32,1645443034.75,P18,D02,1,0,0
1426,-0.54,1645443034.765625,P18,D02,1,0,0
1427,-0.68,1645443034.78125,P18,D02,1,0,0
1428,-0.71,1645443034.796875,P18,D02,1,0,0
1429,-0.61,1645443034.8125,P18,D02,1,0,0
1430,-0.36,1645443034.828125,P18,D02,1,0,0
1431,-0.01,1645443034.84375,P18,D02,1,0,0
1432,0.31,1645443034.859375,P18,D02,1,0,0
1433,0.47,1645443034.875,P18,D02,1,0,0
1434,0.39,1645443034.890625,P18,D02,1,0,0
1435,0.1,1645443034.90625,P18,D02,1,0,0
1436,-0.27,1645443034.921875,P18,D02,1,0,0
1437,-0.56,1645443034.9375,P18,D02,1,0,0
1438,-0.65,1645443034.953125,P18,D02,1,0,0
1439,-0.55,1645443034.96875,P18,D02,1,0,0
1440,-0.34,1645443034.984375,P18,D02,1,0,0
1441,-0.14,1645443035.0,P18,D02,1,0,0
1442,-0.02,1645443035.015625,P18,D02,1,0,0
1443,0.0,1645443035.03125,P18,D02,1,0,0
1444,-0.05,1645443035.046875,P18,D02,1,0,0
1445,-0.14,1645443035.0625,P18,D02,1,0,0
1446,-0.25,1645443035.078125,P18,D02,1,0,0
1447,-0.36,1645443035.09375,P18,D02,1,0,0
1448,-0.41,1645443035.109375,P18,D02,1,0,0
1449,-0.37,1645443035.125,P18,D02,1,0,0
1450,-0.21,1645443035.140625,P18,D02,1,0,0
1451,0.07,1645443035.15625,P18,D02,1,0,0
1452,0.38,1645443035.171875,P18,D02,1,0,0
1453,0.63,1645443035.1875,P18,D02,1,0,0
1454,0.74,1645443035.203125,P18,D02,1,0,0
1455,0.68,1645443035.21875,P18,D02,1,0,0
1456,0.49,1645443035.234375,P18,D02,1,0,0
1457,0.25,1645443035.25,P18,D02,1,0,0
1458,0.06,1645443035.265625,P18,D02,1,0,0
1459,-0.02,1645443035.28125,P18,D02,1,0,0
1460,0.01,1645443035.296875,P18,D02,1,0,0
1461,0.1,1645443035.3125,P18,D02,1,0,0
1462,0.17,1645443035.328125,P18,D02,1,0,0
1463,0.16,1645443035.34375,P18,D02,1,0,0
1464,0.07,1645443035.359375,P18,D02,1,0,0
1465,-0.05,1645443035.375,P18,D02,1,0,0
1466,-0.14,1645443035.390625,P18,D02,1,0,0
1467,-0.18,1645443035.40625,P18,D02,1,0,0
1468,-0.2,1645443035.421875,P18,D02,1,0,0
1469,-0.26,1645443035.4375,P18,D02,1,0,0
1470,-0.42,1645443035.453125,P18,D02,1,0,0
1471,-0.64,1645443035.46875,P18,D02,1,0,0
1472,-0.84,1645443035.484375,P18,D02,1,0,0
1473,-0.91,1645443035.5,P18,D02,1,0,0
1474,-0.81,1645443035.515625,P18,D02,1,0,0
1475,-0.58,1645443035.53125,P18,D02,1,0,0
1476,-0.32,1645443035.546875,P18,D02,1,0,0
1477,-0.13,1645443035.5625,P18,D02,1,0,0
1478,-0.03,1645443035.578125,P18,D02,1,0,0
1479,0.0,1645443035.59375,P18,D02,1,0,0
1480,0.07,1645443035.609375,P18,D02,1,0,0
1481,0.23,1645443035.625,P18,D02,1,0,0
1482,0.47,1645443035.640625,P18,D02,1,0,0
1483,0.75,1645443035.65625,P18,D02,1,0,0
1484,0.93,1645443035.671875,P18,D02,1,0,0
1485,0.96,1645443035.6875,P18,D02,1,0,0
1486,0.82,1645443035.703125,P18,D02,1,0,0
1487,0.55,1645443035.71875,P18,D02,1,0,0
1488,0.26,1645443035.734375,P18,D02,1,0,0
1489,0.04,1645443035.75,P18,D02,1,0,0
1490,-0.08,1645443035.765625,P18,D02,1,0,0
1491,-0.07,1645443035.78125,P18,D02,1,0,0
1492,0.04,1645443035.796875,P18,D02,1,0,0
1493,0.18,1645443035.8125,P18,D02,1,0,0
1494,0.28,1645443035.828125,P18,D02,1,0,0
1495,0.28,1645443035.84375,P18,D02,1,0,0
1496,0.13,1645443035.859375,P18,D02,1,0,0
1497,-0.16,1645443035.875,P18,D02,1,0,0
1498,-0.52,1645443035.890625,P18,D02,1,0,0
1499,-0.85,1645443035.90625,P18,D02,1,0,0
1500,-1.06,1645443035.921875,P18,D02,1,0,0
1501,-1.12,1645443035.9375,P18,D02,1,0,0
1502,-1.06,1645443035.953125,P18,D02,1,0,0
1503,-0.93,1645443035.96875,P18,D02,1,0,0
1504,-0.79,1645443035.984375,P18,D02,1,0,0
1505,-0.67,1645443036.0,P18,D02,1,0,0
1506,-0.56,1645443036.015625,P18,D02,1,0,0
1507,-0.42,1645443036.03125,P18,D02,1,0,0
1508,-0.21,1645443036.046875,P18,D02,1,0,0
1509,0.11,1645443036.0625,P18,D02,1,0,0
1510,0.53,1645443036.078125,P18,D02,1,0,0
1511,0.99,1645443036.09375,P18,D02,1,0,0
1512,1.44,1645443036.109375,P18,D02,1,0,0
1513,1.77,1645443036.125,P18,D02,1,0,0
1514,1.88,1645443036.140625,P18,D02,1,0,0
1515,1.7,1645443036.15625,P18,D02,1,0,0
1516,1.22,1645443036.171875,P18,D02,1,0,0
1517,0.54,1645443036.1875,P18,D02,1,0,0
1518,-0.17,1645443036.203125,P18,D02,1,0,0
1519,-0.71,1645443036.21875,P18,D02,1,0,0
1520,-0.99,1645443036.234375,P18,D02,1,0,0
1521,-0.99,1645443036.25,P18,D02,1,0,0
1522,-0.79,1645443036.265625,P18,D02,1,0,0
1523,-0.48,1645443036.28125,P18,D02,1,0,0
1524,-0.15,1645443036.296875,P18,D02,1,0,0
1525,0.17,1645443036.3125,P18,D02,1,0,0
1526,0.48,1645443036.328125,P18,D02,1,0,0
1527,0.77,1645443036.34375,P18,D02,1,0,0
1528,0.99,1645443036.359375,P18,D02,1,0,0
1529,1.08,1645443036.375,P18,D02,1,0,0
1530,0.99,1645443036.390625,P18,D02,1,0,0
1531,0.73,1645443036.40625,P18,D02,1,0,0
1532,0.36,1645443036.421875,P18,D02,1,0,0
1533,-0.0,1645443036.4375,P18,D02,1,0,0
1534,-0.27,1645443036.453125,P18,D02,1,0,0
1535,-0.36,1645443036.46875,P18,D02,1,0,0
1536,-0.28,1645443036.484375,P18,D02,1,0,0
1537,-0.08,1645443036.5,P18,D02,1,0,0
1538,0.19,1645443036.515625,P18,D02,1,0,0
1539,0.42,1645443036.53125,P18,D02,1,0,0
1540,0.52,1645443036.546875,P18,D02,1,0,0
1541,0.46,1645443036.5625,P18,D02,1,0,0
1542,0.24,1645443036.578125,P18,D02,1,0,0
1543,-0.04,1645443036.59375,P18,D02,1,0,0
1544,-0.22,1645443036.609375,P18,D02,1,0,0
1545,-0.22,1645443036.625,P18,D02,1,0,0
1546,0.01,1645443036.640625,P18,D02,1,0,0
1547,0.41,1645443036.65625,P18,D02,1,0,0
1548,0.86,1645443036.671875,P18,D02,1,0,0
1549,1.24,1645443036.6875,P18,D02,1,0,0
1550,1.47,1645443036.703125,P18,D02,1,0,0
1551,1.52,1645443036.71875,P18,D02,1,0,0
1552,1.42,1645443036.734375,P18,D02,1,0,0
1553,1.24,1645443036.75,P18,D02,1,0,0
1554,1.09,1645443036.765625,P18,D02,1,0,0
1555,1.02,1645443036.78125,P18,D02,1,0,0
1556,1.07,1645443036.796875,P18,D02,1,0,0
1557,1.21,1645443036.8125,P18,D02,1,0,0
1558,1.35,1645443036.828125,P18,D02,1,0,0
1559,1.39,1645443036.84375,P18,D02,1,0,0
1560,1.26,1645443036.859375,P18,D02,1,0,0
1561,0.9,1645443036.875,P18,D02,1,0,0
1562,0.34,1645443036.890625,P18,D02,1,0,0
1563,-0.35,1645443036.90625,P18,D02,1,0,0
1564,-1.05,1645443036.921875,P18,D02,1,0,0
1565,-1.64,1645443036.9375,P18,D02,1,0,0
1566,-1.98,1645443036.953125,P18,D02,1,0,0
1567,-1.97,1645443036.96875,P18,D02,1,0,0
1568,-1.61,1645443036.984375,P18,D02,1,0,0
1569,-1.03,1645443037.0,P18,D02,1,0,0
1570,-0.44,1645443037.015625,P18,D02,1,0,0
1571,-0.03,1645443037.03125,P18,D02,1,0,0
1572,0.07,1645443037.046875,P18,D02,1,0,0
1573,-0.11,1645443037.0625,P18,D02,1,0,0
1574,-0.46,1645443037.078125,P18,D02,1,0,0
1575,-0.83,1645443037.09375,P18,D02,1,0,0
1576,-1.12,1645443037.109375,P18,D02,1,0,0
1577,-1.31,1645443037.125,P18,D02,1,0,0
1578,-1.43,1645443037.140625,P18,D02,1,0,0
1579,-1.52,1645443037.15625,P18,D02,1,0,0
1580,-1.55,1645443037.171875,P18,D02,1,0,0
1581,-1.48,1645443037.1875,P18,D02,1,0,0
1582,-1.26,1645443037.203125,P18,D02,1,0,0
1583,-0.91,1645443037.21875,P18,D02,1,0,0
1584,-0.48,1645443037.234375,P18,D02,1,0,0
1585,-0.08,1645443037.25,P18,D02,1,0,0
1586,0.24,1645443037.265625,P18,D02,1,0,0
1587,0.44,1645443037.28125,P18,D02,1,0,0
1588,0.54,1645443037.296875,P18,D02,1,0,0
1589,0.59,1645443037.3125,P18,D02,1,0,0
1590,0.6,1645443037.328125,P18,D02,1,0,0
1591,0.6,1645443037.34375,P18,D02,1,0,0
1592,0.54,1645443037.359375,P18,D02,1,0,0
1593,0.39,1645443037.375,P18,D02,1,0,0
1594,0.14,1645443037.390625,P18,D02,1,0,0
1595,-0.16,1645443037.40625,P18,D02,1,0,0
1596,-0.46,1645443037.421875,P18,D02,1,0,0
1597,-0.69,1645443037.4375,P18,D02,1,0,0
1598,-0.79,1645443037.453125,P18,D02,1,0,0
1599,-0.78,1645443037.46875,P18,D02,1,0,0
1600,-0.69,1645443037.484375,P18,D02,1,0,0
1601,-0.52,1645443037.5,P18,D02,1,0,0
1602,-0.29,1645443037.515625,P18,D02,1,0,0
1603,0.01,1645443037.53125,P18,D02,1,0,0
1604,0.33,1645443037.546875,P18,D02,1,0,0
1605,0.62,1645443037.5625,P18,D02,1,0,0
1606,0.77,1645443037.578125,P18,D02,1,0,0
1607,0.76,1645443037.59375,P18,D02,1,0,0
1608,0.6,1645443037.609375,P18,D02,1,0,0
1609,0.37,1645443037.625,P18,D02,1,0,0
1610,0.17,1645443037.640625,P18,D02,1,0,0
1611,0.08,1645443037.65625,P18,D02,1,0,0
1612,0.07,1645443037.671875,P18,D02,1,0,0
1613,0.12,1645443037.6875,P18,D02,1,0,0
1614,0.17,1645443037.703125,P18,D02,1,0,0
1615,0.22,1645443037.71875,P18,D02,1,0,0
1616,0.31,1645443037.734375,P18,D02,1,0,0
1617,0.47,1645443037.75,P18,D02,1,0,0
1618,0.67,1645443037.765625,P18,D02,1,0,0
1619,0.82,1645443037.78125,P18,D02,1,0,0
1620,0.84,1645443037.796875,P18,D02,1,0,0
1621,0.69,1645443037.8125,P18,D02,1,0,0
1622,0.43,1645443037.828125,P18,D02,1,0,0
1623,0.18,1645443037.84375,P18,D02,1,0,0
1624,0.04,1645443037.859375,P18,D02,1,0,0
1625,0.03,1645443037.875,P18,D02,1,0,0
1626,0.09,1645443037.890625,P18,D02,1,0,0
1627,0.1,1645443037.90625,P18,D02,1,0,0
1628,0.0,1645443037.921875,P18,D02,1,0,0
1629,-0.22,1645443037.9375,P18,D02,1,0,0
1630,-0.5,1645443037.953125,P18,D02,1,0,0
1631,-0.74,1645443037.96875,P18,D02,1,0,0
1632,-0.9,1645443037.984375,P18,D02,1,0,0
1633,-0.97,1645443038.0,P18,D02,1,0,0
1634,-0.97,1645443038.015625,P18,D02,1,0,0
1635,-0.93,1645443038.03125,P18,D02,1,0,0
1636,-0.82,1645443038.046875,P18,D02,1,0,0
1637,-0.65,1645443038.0625,P18,D02,1,0,0
1638,-0.42,1645443038.078125,P18,D02,1,0,0
1639,-0.19,1645443038.09375,P18,D02,1,0,0
1640,-0.07,1645443038.109375,P18,D02,1,0,0
1641,-0.11,1645443038.125,P18,D02,1,0,0
1642,-0.34,1645443038.140625,P18,D02,1,0,0
1643,-0.7,1645443038.15625,P18,D02,1,0,0
1644,-1.04,1645443038.171875,P18,D02,1,0,0
1645,-1.22,1645443038.1875,P18,D02,1,0,0
1646,-1.13,1645443038.203125,P18,D02,1,0,0
1647,-0.8,1645443038.21875,P18,D02,1,0,0
1648,-0.33,1645443038.234375,P18,D02,1,0,0
1649,0.09,1645443038.25,P18,D02,1,0,0
1650,0.29,1645443038.265625,P18,D02,1,0,0
1651,0.19,1645443038.28125,P18,D02,1,0,0
1652,-0.16,1645443038.296875,P18,D02,1,0,0
1653,-0.61,1645443038.3125,P18,D02,1,0,0
1654,-0.96,1645443038.328125,P18,D02,1,0,0
1655,-1.02,1645443038.34375,P18,D02,1,0,0
1656,-0.73,1645443038.359375,P18,D02,1,0,0
1657,-0.16,1645443038.375,P18,D02,1,0,0
1658,0.49,1645443038.390625,P18,D02,1,0,0
1659,0.99,1645443038.40625,P18,D02,1,0,0
1660,1.18,1645443038.421875,P18,D02,1,0,0
1661,1.04,1645443038.4375,P18,D02,1,0,0
1662,0.66,1645443038.453125,P18,D02,1,0,0
1663,0.22,1645443038.46875,P18,D02,1,0,0
1664,-0.1,1645443038.484375,P18,D02,1,0,0
1665,-0.23,1645443038.5,P18,D02,1,0,0
1666,-0.22,1645443038.515625,P18,D02,1,0,0
1667,-0.15,1645443038.53125,P18,D02,1,0,0
1668,-0.09,1645443038.546875,P18,D02,1,0,0
1669,-0.02,1645443038.5625,P18,D02,1,0,0
1670,0.13,1645443038.578125,P18,D02,1,0,0
1671,0.43,1645443038.59375,P18,D02,1,0,0
1672,0.86,1645443038.609375,P18,D02,1,0,0
1673,1.33,1645443038.625,P18,D02,1,0,0
1674,1.67,1645443038.640625,P18,D02,1,0,0
1675,1.76,1645443038.65625,P18,D02,1,0,0
1676,1.56,1645443038.671875,P18,D02,1,0,0
1677,1.16,1645443038.6875,P18,D02,1,0,0
1678,0.7,1645443038.703125,P18,D02,1,0,0
1679,0.37,1645443038.71875,P18,D02,1,0,0
1680,0.26,1645443038.734375,P18,D02,1,0,0
1681,0.34,1645443038.75,P18,D02,1,0,0
1682,0.52,1645443038.765625,P18,D02,1,0,0
1683,0.63,1645443038.78125,P18,D02,1,0,0
1684,0.58,1645443038.796875,P18,D02,1,0,0
1685,0.35,1645443038.8125,P18,D02,1,0,0
1686,0.05,1645443038.828125,P18,D02,1,0,0
1687,-0.22,1645443038.84375,P18,D02,1,0,0
1688,-0.36,1645443038.859375,P18,D02,1,0,0
1689,-0.39,1645443038.875,P18,D02,1,0,0
1690,-0.38,1645443038.890625,P18,D02,1,0,0
1691,-0.41,1645443038.90625,P18,D02,1,0,0
1692,-0.5,1645443038.921875,P18,D02,1,0,0
1693,-0.59,1645443038.9375,P18,D02,1,0,0
1694,-0.58,1645443038.953125,P18,D02,1,0,0
1695,-0.45,1645443038.96875,P18,D02,1,0,0
1696,-0.25,1645443038.984375,P18,D02,1,0,0
1697,-0.11,1645443039.0,P18,D02,1,0,0
1698,-0.14,1645443039.015625,P18,D02,1,0,0
1699,-0.34,1645443039.03125,P18,D02,1,0,0
1700,-0.62,1645443039.046875,P18,D02,1,0,0
1701,-0.87,1645443039.0625,P18,D02,1,0,0
1702,-0.97,1645443039.078125,P18,D02,1,0,0
1703,-0.92,1645443039.09375,P18,D02,1,0,0
1704,-0.8,1645443039.109375,P18,D02,1,0,0
1705,-0.69,1645443039.125,P18,D02,1,0,0
1706,-0.64,1645443039.140625,P18,D02,1,0,0
1707,-0.64,1645443039.15625,P18,D02,1,0,0
1708,-0.62,1645443039.171875,P18,D02,1,0,0
1709,-0.55,1645443039.1875,P18,D02,1,0,0
1710,-0.42,1645443039.203125,P18,D02,1,0,0
1711,-0.26,1645443039.21875,P18,D02,1,0,0
1712,-0.12,1645443039.234375,P18,D02,1,0,0
1713,-0.01,1645443039.25,P18,D02,1,0,0
1714,0.06,1645443039.265625,P18,D02,1,0,0
1715,0.13,1645443039.28125,P18,D02,1,0,0
1716,0.22,1645443039.296875,P18,D02,1,0,0
1717,0.32,1645443039.3125,P18,D02,1,0,0
1718,0.39,1645443039.328125,P18,D02,1,0,0
1719,0.39,1645443039.34375,P18,D02,1,0,0
1720,0.27,1645443039.359375,P18,D02,1,0,0
1721,0.01,1645443039.375,P18,D02,1,0,0
1722,-0.33,1645443039.390625,P18,D02,1,0,0
1723,-0.66,1645443039.40625,P18,D02,1,0,0
1724,-0.86,1645443039.421875,P18,D02,1,0,0
1725,-0.86,1645443039.4375,P18,D02,1,0,0
1726,-0.64,1645443039.453125,P18,D02,1,0,0
1727,-0.3,1645443039.46875,P18,D02,1,0,0
1728,0.03,1645443039.484375,P18,D02,1,0,0
1729,0.23,1645443039.5,P18,D02,1,0,0
1730,0.28,1645443039.515625,P18,D02,1,0,0
1731,0.25,1645443039.53125,P18,D02,1,0,0
1732,0.22,1645443039.546875,P18,D02,1,0,0
1733,0.27,1645443039.5625,P18,D02,1,0,0
1734,0.36,1645443039.578125,P18,D02,1,0,0
1735,0.44,1645443039.59375,P18,D02,1,0,0
1736,0.41,1645443039.609375,P18,D02,1,0,0
1737,0.31,1645443039.625,P18,D02,1,0,0
1738,0.19,1645443039.640625,P18,D02,1,0,0
1739,0.17,1645443039.65625,P18,D02,1,0,0
1740,0.28,1645443039.671875,P18,D02,1,0,0
1741,0.47,1645443039.6875,P18,D02,1,0,0
1742,0.61,1645443039.703125,P18,D02,1,0,0
1743,0.62,1645443039.71875,P18,D02,1,0,0
1744,0.46,1645443039.734375,P18,D02,1,0,0
1745,0.18,1645443039.75,P18,D02,1,0,0
1746,-0.13,1645443039.765625,P18,D02,1,0,0
1747,-0.35,1645443039.78125,P18,D02,1,0,0
1748,-0.45,1645443039.796875,P18,D02,1,0,0
1749,-0.41,1645443039.8125,P18,D02,1,0,0
1750,-0.28,1645443039.828125,P18,D02,1,0,0
1751,-0.08,1645443039.84375,P18,D02,1,0,0
1752,0.15,1645443039.859375,P18,D02,1,0,0
1753,0.35,1645443039.875,P18,D02,1,0,0
1754,0.49,1645443039.890625,P18,D02,1,0,0
1755,0.53,1645443039.90625,P18,D02,1,0,0
1756,0.43,1645443039.921875,P18,D02,1,0,0
1757,0.22,1645443039.9375,P18,D02,1,0,0
1758,-0.02,1645443039.953125,P18,D02,1,0,0
1759,-0.19,1645443039.96875,P18,D02,1,0,0
1760,-0.22,1645443039.984375,P18,D02,1,0,0
1761,-0.09,1645443040.0,P18,D02,1,0,0
1762,0.13,1645443040.015625,P18,D02,1,0,0
1763,0.33,1645443040.03125,P18,D02,1,0,0
1764,0.4,1645443040.046875,P18,D02,1,0,0
1765,0.3,1645443040.0625,P18,D02,1,0,0
1766,0.08,1645443040.078125,P18,D02,1,0,0
1767,-0.16,1645443040.09375,P18,D02,1,0,0
1768,-0.3,1645443040.109375,P18,D02,1,0,0
1769,-0.29,1645443040.125,P18,D02,1,0,0
1770,-0.17,1645443040.140625,P18,D02,1,0,0
1771,-0.01,1645443040.15625,P18,D02,1,0,0
1772,0.1,1645443040.171875,P18,D02,1,0,0
1773,0.13,1645443040.1875,P18,D02,1,0,0
1774,0.1,1645443040.203125,P18,D02,1,0,0
1775,0.06,1645443040.21875,P18,D02,1,0,0
1776,0.02,1645443040.234375,P18,D02,1,0,0
1777,-0.04,1645443040.25,P18,D02,1,0,0
1778,-0.15,1645443040.265625,P18,D02,1,0,0
1779,-0.33,1645443040.28125,P18,D02,1,0,0
1780,-0.54,1645443040.296875,P18,D02,1,0,0
1781,-0.72,1645443040.3125,P18,D02,1,0,0
1782,-0.82,1645443040.328125,P18,D02,1,0,0
1783,-0.81,1645443040.34375,P18,D02,1,0,0
1784,-0.72,1645443040.359375,P18,D02,1,0,0
1785,-0.63,1645443040.375,P18,D02,1,0,0
1786,-0.59,1645443040.390625,P18,D02,1,0,0
1787,-0.64,1645443040.40625,P18,D02,1,0,0
1788,-0.75,1645443040.421875,P18,D02,1,0,0
1789,-0.86,1645443040.4375,P18,D02,1,0,0
1790,-0.93,1645443040.453125,P18,D02,1,0,0
1791,-0.93,1645443040.46875,P18,D02,1,0,0
1792,-0.91,1645443040.484375,P18,D02,1,0,0
1793,-0.9,1645443040.5,P18,D02,1,0,0
1794,-0.99,1645443040.515625,P18,D02,1,0,0
1795,-1.18,1645443040.53125,P18,D02,1,0,0
1796,-1.45,1645443040.546875,P18,D02,1,0,0
1797,-1.73,1645443040.5625,P18,D02,1,0,0
1798,-1.93,1645443040.578125,P18,D02,1,0,0
1799,-1.96,1645443040.59375,P18,D02,1,0,0
1800,-1.79,1645443040.609375,P18,D02,1,0,0
1801,-1.41,1645443040.625,P18,D02,1,0,0
1802,-0.87,1645443040.640625,P18,D02,1,0,0
1803,-0.21,1645443040.65625,P18,D02,1,0,0
1804,0.5,1645443040.671875,P18,D02,1,0,0
1805,1.19,1645443040.6875,P18,D02,1,0,0
1806,1.75,1645443040.703125,P18,D02,1,0,0
1807,2.13,1645443040.71875,P18,D02,1,0,0
1808,2.29,1645443040.734375,P18,D02,1,0,0
1809,2.28,1645443040.75,P18,D02,1,0,0
1810,2.2,1645443040.765625,P18,D02,1,0,0
1811,2.15,1645443040.78125,P18,D02,1,0,0
1812,2.19,1645443040.796875,P18,D02,1,0,0
1813,2.3,1645443040.8125,P18,D02,1,0,0
1814,2.38,1645443040.828125,P18,D02,1,0,0
1815,2.32,1645443040.84375,P18,D02,1,0,0
1816,2.06,1645443040.859375,P18,D02,1,0,0
1817,1.63,1645443040.875,P18,D02,1,0,0
1818,1.16,1645443040.890625,P18,D02,1,0,0
1819,0.8,1645443040.90625,P18,D02,1,0,0
1820,0.65,1645443040.921875,P18,D02,1,0,0
1821,0.73,1645443040.9375,P18,D02,1,0,0
1822,0.95,1645443040.953125,P18,D02,1,0,0
1823,1.16,1645443040.96875,P18,D02,1,0,0
1824,1.25,1645443040.984375,P18,D02,1,0,0
1825,1.16,1645443041.0,P18,D02,1,0,0
1826,0.92,1645443041.015625,P18,D02,1,0,0
1827,0.6,1645443041.03125,P18,D02,1,0,0
1828,0.27,1645443041.046875,P18,D02,1,0,0
1829,-0.01,1645443041.0625,P18,D02,1,0,0
1830,-0.23,1645443041.078125,P18,D02,1,0,0
1831,-0.39,1645443041.09375,P18,D02,1,0,0
1832,-0.52,1645443041.109375,P18,D02,1,0,0
1833,-0.62,1645443041.125,P18,D02,1,0,0
1834,-0.7,1645443041.140625,P18,D02,1,0,0
1835,-0.75,1645443041.15625,P18,D02,1,0,0
1836,-0.75,1645443041.171875,P18,D02,1,0,0
1837,-0.68,1645443041.1875,P18,D02,1,0,0
1838,-0.56,1645443041.203125,P18,D02,1,0,0
1839,-0.38,1645443041.21875,P18,D02,1,0,0
1840,-0.18,1645443041.234375,P18,D02,1,0,0
1841,0.04,1645443041.25,P18,D02,1,0,0
1842,0.25,1645443041.265625,P18,D02,1,0,0
1843,0.4,1645443041.28125,P18,D02,1,0,0
1844,0.46,1645443041.296875,P18,D02,1,0,0
1845,0.4,1645443041.3125,P18,D02,1,0,0
1846,0.2,1645443041.328125,P18,D02,1,0,0
1847,-0.07,1645443041.34375,P18,D02,1,0,0
1848,-0.31,1645443041.359375,P18,D02,1,0,0
1849,-0.42,1645443041.375,P18,D02,1,0,0
1850,-0.3,1645443041.390625,P18,D02,1,0,0
1851,0.03,1645443041.40625,P18,D02,1,0,0
1852,0.49,1645443041.421875,P18,D02,1,0,0
1853,0.94,1645443041.4375,P18,D02,1,0,0
1854,1.27,1645443041.453125,P18,D02,1,0,0
1855,1.45,1645443041.46875,P18,D02,1,0,0
1856,1.52,1645443041.484375,P18,D02,1,0,0
1857,1.53,1645443041.5,P18,D02,1,0,0
1858,1.49,1645443041.515625,P18,D02,1,0,0
1859,1.38,1645443041.53125,P18,D02,1,0,0
1860,1.19,1645443041.546875,P18,D02,1,0,0
1861,0.94,1645443041.5625,P18,D02,1,0,0
1862,0.74,1645443041.578125,P18,D02,1,0,0
1863,0.7,1645443041.59375,P18,D02,1,0,0
1864,0.84,1645443041.609375,P18,D02,1,0,0
1865,1.09,1645443041.625,P18,D02,1,0,0
1866,1.29,1645443041.640625,P18,D02,1,0,0
1867,1.27,1645443041.65625,P18,D02,1,0,0
1868,0.96,1645443041.671875,P18,D02,1,0,0
1869,0.43,1645443041.6875,P18,D02,1,0,0
1870,-0.16,1645443041.703125,P18,D02,1,0,0
1871,-0.67,1645443041.71875,P18,D02,1,0,0
1872,-1.01,1645443041.734375,P18,D02,1,0,0
1873,-1.22,1645443041.75,P18,D02,1,0,0
1874,-1.36,1645443041.765625,P18,D02,1,0,0
1875,-1.47,1645443041.78125,P18,D02,1,0,0
1876,-1.52,1645443041.796875,P18,D02,1,0,0
1877,-1.48,1645443041.8125,P18,D02,1,0,0
1878,-1.34,1645443041.828125,P18,D02,1,0,0
1879,-1.15,1645443041.84375,P18,D02,1,0,0
1880,-1.01,1645443041.859375,P18,D02,1,0,0
1881,-1.0,1645443041.875,P18,D02,1,0,0
1882,-1.12,1645443041.890625,P18,D02,1,0,0
1883,-1.31,1645443041.90625,P18,D02,1,0,0
1884,-1.44,1645443041.921875,P18,D02,1,0,0
1885,-1.43,1645443041.9375,P18,D02,1,0,0
1886,-1.25,1645443041.953125,P18,D02,1,0,0
1887,-0.94,1645443041.96875,P18,D02,1,0,0
1888,-0.58,1645443041.984375,P18,D02,1,0,0
1889,-0.21,1645443042.0,P18,D02,1,0,0
1890,0.12,1645443042.015625,P18,D02,1,0,0
1891,0.38,1645443042.03125,P18,D02,1,0,0
1892,0.52,1645443042.046875,P18,D02,1,0,0
1893,0.5,1645443042.0625,P18,D02,1,0,0
1894,0.29,1645443042.078125,P18,D02,1,0,0
1895,-0.06,1645443042.09375,P18,D02,1,0,0
1896,-0.46,1645443042.109375,P18,D02,1,0,0
1897,-0.79,1645443042.125,P18,D02,1,0,0
1898,-0.94,1645443042.140625,P18,D02,1,0,0
1899,-0.89,1645443042.15625,P18,D02,1,0,0
1900,-0.71,1645443042.171875,P18,D02,1,0,0
1901,-0.48,1645443042.1875,P18,D02,1,0,0
1902,-0.33,1645443042.203125,P18,D02,1,0,0
1903,-0.29,1645443042.21875,P18,D02,1,0,0
1904,-0.35,1645443042.234375,P18,D02,1,0,0
1905,-0.42,1645443042.25,P18,D02,1,0,0
1906,-0.42,1645443042.265625,P18,D02,1,0,0
1907,-0.29,1645443042.28125,P18,D02,1,0,0
1908,-0.06,1645443042.296875,P18,D02,1,0,0
1909,0.24,1645443042.3125,P18,D02,1,0,0
1910,0.5,1645443042.328125,P18,D02,1,0,0
1911,0.65,1645443042.34375,P18,D02,1,0,0
1912,0.65,1645443042.359375,P18,D02,1,0,0
1913,0.55,1645443042.375,P18,D02,1,0,0
1914,0.41,1645443042.390625,P18,D02,1,0,0
1915,0.31,1645443042.40625,P18,D02,1,0,0
1916,0.26,1645443042.421875,P18,D02,1,0,0
1917,0.22,1645443042.4375,P18,D02,1,0,0
1918,0.16,1645443042.453125,P18,D02,1,0,0
1919,0.02,1645443042.46875,P18,D02,1,0,0
1920,-0.16,1645443042.484375,P18,D02,1,0,0
1921,-0.33,1645443042.5,P18,D02,1,0,0
1922,-0.45,1645443042.515625,P18,D02,1,0,0
1923,-0.55,1645443042.53125,P18,D02,1,0,0
1924,-0.66,1645443042.546875,P18,D02,1,0,0
1925,-0.84,1645443042.5625,P18,D02,1,0,0
1926,-1.07,1645443042.578125,P18,D02,1,0,0
1927,-1.23,1645443042.59375,P18,D02,1,0,0
1928,-1.22,1645443042.609375,P18,D02,1,0,0
1929,-0.96,1645443042.625,P18,D02,1,0,0
1930,-0.53,1645443042.640625,P18,D02,1,0,0
1931,-0.12,1645443042.65625,P18,D02,1,0,0
1932,0.1,1645443042.671875,P18,D02,1,0,0
1933,0.05,1645443042.6875,P18,D02,1,0,0
1934,-0.2,1645443042.703125,P18,D02,1,0,0
1935,-0.49,1645443042.71875,P18,D02,1,0,0
1936,-0.69,1645443042.734375,P18,D02,1,0,0
1937,-0.75,1645443042.75,P18,D02,1,0,0
1938,-0.71,1645443042.765625,P18,D02,1,0,0
1939,-0.64,1645443042.78125,P18,D02,1,0,0
1940,-0.55,1645443042.796875,P18,D02,1,0,0
1941,-0.4,1645443042.8125,P18,D02,1,0,0
1942,-0.15,1645443042.828125,P18,D02,1,0,0
1943,0.2,1645443042.84375,P18,D02,1,0,0
1944,0.56,1645443042.859375,P18,D02,1,0,0
1945,0.82,1645443042.875,P18,D02,1,0,0
1946,0.87,1645443042.890625,P18,D02,1,0,0
1947,0.69,1645443042.90625,P18,D02,1,0,0
1948,0.4,1645443042.921875,P18,D02,1,0,0
1949,0.11,1645443042.9375,P18,D02,1,0,0
1950,-0.07,1645443042.953125,P18,D02,1,0,0
1951,-0.15,1645443042.96875,P18,D02,1,0,0
1952,-0.17,1645443042.984375,P18,D02,1,0,0
1953,-0.22,1645443043.0,P18,D02,1,0,0
1954,-0.29,1645443043.015625,P18,D02,1,0,0
1955,-0.36,1645443043.03125,P18,D02,1,0,0
1956,-0.39,1645443043.046875,P18,D02,1,0,0
1957,-0.34,1645443043.0625,P18,D02,1,0,0
1958,-0.23,1645443043.078125,P18,D02,1,0,0
1959,-0.08,1645443043.09375,P18,D02,1,0,0
1960,0.08,1645443043.109375,P18,D02,1,0,0
1961,0.29,1645443043.125,P18,D02,1,0,0
1962,0.57,1645443043.140625,P18,D02,1,0,0
1963,0.89,1645443043.15625,P18,D02,1,0,0
1964,1.16,1645443043.171875,P18,D02,1,0,0
1965,1.26,1645443043.1875,P18,D02,1,0,0
1966,1.14,1645443043.203125,P18,D02,1,0,0
1967,0.81,1645443043.21875,P18,D02,1,0,0
1968,0.42,1645443043.234375,P18,D02,1,0,0
1969,0.11,1645443043.25,P18,D02,1,0,0
1970,-0.03,1645443043.265625,P18,D02,1,0,0
1971,-0.02,1645443043.28125,P18,D02,1,0,0
1972,0.05,1645443043.296875,P18,D02,1,0,0
1973,0.08,1645443043.3125,P18,D02,1,0,0
1974,0.02,1645443043.328125,P18,D02,1,0,0
1975,-0.12,1645443043.34375,P18,D02,1,0,0
1976,-0.3,1645443043.359375,P18,D02,1,0,0
1977,-0.43,1645443043.375,P18,D02,1,0,0
1978,-0.49,1645443043.390625,P18,D02,1,0,0
1979,-0.49,1645443043.40625,P18,D02,1,0,0
1980,-0.45,1645443043.421875,P18,D02,1,0,0
1981,-0.44,1645443043.4375,P18,D02,1,0,0
1982,-0.48,1645443043.453125,P18,D02,1,0,0
1983,-0.58,1645443043.46875,P18,D02,1,0,0
1984,-0.68,1645443043.484375,P18,D02,1,0,0
1985,-0.71,1645443043.5,P18,D02,1,0,0
1986,-0.6,1645443043.515625,P18,D02,1,0,0
1987,-0.36,1645443043.53125,P18,D02,1,0,0
1988,-0.09,1645443043.546875,P18,D02,1,0,0
1989,0.07,1645443043.5625,P18,D02,1,0,0
1990,0.04,1645443043.578125,P18,D02,1,0,0
1991,-0.19,1645443043.59375,P18,D02,1,0,0
1992,-0.47,1645443043.609375,P18,D02,1,0,0
1993,-0.65,1645443043.625,P18,D02,1,0,0
1994,-0.6,1645443043.640625,P18,D02,1,0,0
1995,-0.34,1645443043.65625,P18,D02,1,0,0
1996,0.02,1645443043.671875,P18,D02,1,0,0
1997,0.32,1645443043.6875,P18,D02,1,0,0
1998,0.47,1645443043.703125,P18,D02,1,0,0
1999,0.46,1645443043.71875,P18,D02,1,0,0
2000,0.4,1645443043.734375,P18,D02,1,0,0
2001,0.41,1645443043.75,P18,D02,1,0,0
2002,0.5,1645443043.765625,P18,D02,1,0,0
2003,0.62,1645443043.78125,P18,D02,1,0,0
2004,0.66,1645443043.796875,P18,D02,1,0,0
2005,0.53,1645443043.8125,P18,D02,1,0,0
2006,0.27,1645443043.828125,P18,D02,1,0,0
2007,-0.0,1645443043.84375,P18,D02,1,0,0
2008,-0.16,1645443043.859375,P18,D02,1,0,0
2009,-0.12,1645443043.875,P18,D02,1,0,0
2010,0.1,1645443043.890625,P18,D02,1,0,0
2011,0.36,1645443043.90625,P18,D02,1,0,0
2012,0.54,1645443043.921875,P18,D02,1,0,0
2013,0.55,1645443043.9375,P18,D02,1,0,0
2014,0.44,1645443043.953125,P18,D02,1,0,0
2015,0.33,1645443043.96875,P18,D02,1,0,0
2016,0.33,1645443043.984375,P18,D02,1,0,0
2017,0.48,1645443044.0,P18,D02,1,0,0
2018,0.71,1645443044.015625,P18,D02,1,0,0
2019,0.88,1645443044.03125,P18,D02,1,0,0
2020,0.86,1645443044.046875,P18,D02,1,0,0
2021,0.61,1645443044.0625,P18,D02,1,0,0
2022,0.21,1645443044.078125,P18,D02,1,0,0
2023,-0.18,1645443044.09375,P18,D02,1,0,0
2024,-0.43,1645443044.109375,P18,D02,1,0,0
2025,-0.46,1645443044.125,P18,D02,1,0,0
2026,-0.31,1645443044.140625,P18,D02,1,0,0
2027,-0.08,1645443044.15625,P18,D02,1,0,0
2028,0.13,1645443044.171875,P18,D02,1,0,0
2029,0.26,1645443044.1875,P18,D02,1,0,0
2030,0.29,1645443044.203125,P18,D02,1,0,0
2031,0.27,1645443044.21875,P18,D02,1,0,0
2032,0.23,1645443044.234375,P18,D02,1,0,0
2033,0.19,1645443044.25,P18,D02,1,0,0
2034,0.13,1645443044.265625,P18,D02,1,0,0
2035,0.03,1645443044.28125,P18,D02,1,0,0
2036,-0.11,1645443044.296875,P18,D02,1,0,0
2037,-0.26,1645443044.3125,P18,D02,1,0,0
2038,-0.38,1645443044.328125,P18,D02,1,0,0
2039,-0.44,1645443044.34375,P18,D02,1,0,0
2040,-0.42,1645443044.359375,P18,D02,1,0,0
2041,-0.35,1645443044.375,P18,D02,1,0,0
2042,-0.26,1645443044.390625,P18,D02,1,0,0
2043,-0.19,1645443044.40625,P18,D02,1,0,0
2044,-0.15,1645443044.421875,P18,D02,1,0,0
2045,-0.11,1645443044.4375,P18,D02,1,0,0
2046,-0.04,1645443044.453125,P18,D02,1,0,0
2047,0.1,1645443044.46875,P18,D02,1,0,0
2048,0.3,1645443044.484375,P18,D02,1,0,0
2049,0.53,1645443044.5,P18,D02,1,0,0
2050,0.76,1645443044.515625,P18,D02,1,0,0
2051,0.98,1645443044.53125,P18,D02,1,0,0
2052,1.18,1645443044.546875,P18,D02,1,0,0
2053,1.34,1645443044.5625,P18,D02,1,0,0
2054,1.47,1645443044.578125,P18,D02,1,0,0
2055,1.56,1645443044.59375,P18,D02,1,0,0
2056,1.64,1645443044.609375,P18,D02,1,0,0
2057,1.71,1645443044.625,P18,D02,1,0,0
2058,1.85,1645443044.640625,P18,D02,1,0,0
2059,2.09,1645443044.65625,P18,D02,1,0,0
2060,2.45,1645443044.671875,P18,D02,1,0,0
2061,2.89,1645443044.6875,P18,D02,1,0,0
2062,3.34,1645443044.703125,P18,D02,1,0,0
2063,3.69,1645443044.71875,P18,D02,1,0,0
2064,3.87,1645443044.734375,P18,D02,1,0,0
2065,3.83,1645443044.75,P18,D02,1,0,0
2066,3.65,1645443044.765625,P18,D02,1,0,0
2067,3.46,1645443044.78125,P18,D02,1,0,0
2068,3.41,1645443044.796875,P18,D02,1,0,0
2069,3.61,1645443044.8125,P18,D02,1,0,0
2070,4.03,1645443044.828125,P18,D02,1,0,0
2071,4.57,1645443044.84375,P18,D02,1,0,0
2072,5.05,1645443044.859375,P18,D02,1,0,0
2073,5.37,1645443044.875,P18,D02,1,0,0
2074,5.49,1645443044.890625,P18,D02,1,0,0
2075,5.51,1645443044.90625,P18,D02,1,0,0
2076,5.53,1645443044.921875,P18,D02,1,0,0
2077,5.7,1645443044.9375,P18,D02,1,0,0
2078,6.1,1645443044.953125,P18,D02,1,0,0
2079,6.78,1645443044.96875,P18,D02,1,0,0
2080,7.74,1645443044.984375,P18,D02,1,0,0
2081,8.93,1645443045.0,P18,D02,1,0,0
2082,10.17,1645443045.015625,P18,D02,1,0,0
2083,11.17,1645443045.03125,P18,D02,1,0,0
2084,11.52,1645443045.046875,P18,D02,1,0,0
2085,10.89,1645443045.0625,P18,D02,1,0,0
2086,9.13,1645443045.078125,P18,D02,1,0,0
2087,6.46,1645443045.09375,P18,D02,1,0,0
2088,3.37,1645443045.109375,P18,D02,1,0,0
2089,0.49,1645443045.125,P18,D02,1,0,0
2090,-1.68,1645443045.140625,P18,D02,1,0,0
2091,-2.95,1645443045.15625,P18,D02,1,0,0
2092,-3.49,1645443045.171875,P18,D02,1,0,0
2093,-3.73,1645443045.1875,P18,D02,1,0,0
2094,-4.11,1645443045.203125,P18,D02,1,0,0
2095,-4.95,1645443045.21875,P18,D02,1,0,0
2096,-6.24,1645443045.234375,P18,D02,1,0,0
2097,-7.77,1645443045.25,P18,D02,1,0,0
2098,-9.17,1645443045.265625,P18,D02,1,0,0
2099,-10.11,1645443045.28125,P18,D02,1,0,0
2100,-10.42,1645443045.296875,P18,D02,1,0,0
2101,-10.12,1645443045.3125,P18,D02,1,0,0
2102,-9.39,1645443045.328125,P18,D02,1,0,0
2103,-8.46,1645443045.34375,P18,D02,1,0,0
2104,-7.54,1645443045.359375,P18,D02,1,0,0
2105,-6.73,1645443045.375,P18,D02,1,0,0
2106,-6.04,1645443045.390625,P18,D02,1,0,0
2107,-5.44,1645443045.40625,P18,D02,1,0,0
2108,-4.89,1645443045.421875,P18,D02,1,0,0
2109,-4.41,1645443045.4375,P18,D02,1,0,0
2110,-4.02,1645443045.453125,P18,D02,1,0,0
2111,-3.73,1645443045.46875,P18,D02,1,0,0
2112,-3.51,1645443045.484375,P18,D02,1,0,0
2113,-3.31,1645443045.5,P18,D02,1,0,0
2114,-3.09,1645443045.515625,P18,D02,1,0,0
2115,-2.9,1645443045.53125,P18,D02,1,0,0
2116,-2.83,1645443045.546875,P18,D02,1,0,0
2117,-2.99,1645443045.5625,P18,D02,1,0,0
2118,-3.36,1645443045.578125,P18,D02,1,0,0
2119,-3.86,1645443045.59375,P18,D02,1,0,0
2120,-4.26,1645443045.609375,P18,D02,1,0,0
2121,-4.34,1645443045.625,P18,D02,1,0,0
2122,-3.99,1645443045.640625,P18,D02,1,0,0
2123,-3.23,1645443045.65625,P18,D02,1,0,0
2124,-2.25,1645443045.671875,P18,D02,1,0,0
2125,-1.32,1645443045.6875,P18,D02,1,0,0
2126,-0.65,1645443045.703125,P18,D02,1,0,0
2127,-0.35,1645443045.71875,P18,D02,1,0,0
2128,-0.37,1645443045.734375,P18,D02,1,0,0
2129,-0.59,1645443045.75,P18,D02,1,0,0
2130,-0.82,1645443045.765625,P18,D02,1,0,0
2131,-0.92,1645443045.78125,P18,D02,1,0,0
2132,-0.84,1645443045.796875,P18,D02,1,0,0
2133,-0.57,1645443045.8125,P18,D02,1,0,0
2134,-0.21,1645443045.828125,P18,D02,1,0,0
2135,0.16,1645443045.84375,P18,D02,1,0,0
2136,0.41,1645443045.859375,P18,D02,1,0,0
2137,0.44,1645443045.875,P18,D02,1,0,0
2138,0.21,1645443045.890625,P18,D02,1,0,0
2139,-0.28,1645443045.90625,P18,D02,1,0,0
2140,-0.93,1645443045.921875,P18,D02,1,0,0
2141,-1.62,1645443045.9375,P18,D02,1,0,0
2142,-2.18,1645443045.953125,P18,D02,1,0,0
2143,-2.49,1645443045.96875,P18,D02,1,0,0
2144,-2.5,1645443045.984375,P18,D02,1,0,0
2145,-2.23,1645443046.0,P18,D02,1,0,0
2146,-1.78,1645443046.015625,P18,D02,1,0,0
2147,-1.24,1645443046.03125,P18,D02,1,0,0
2148,-0.72,1645443046.046875,P18,D02,1,0,0
2149,-0.27,1645443046.0625,P18,D02,1,0,0
2150,0.08,1645443046.078125,P18,D02,1,0,0
2151,0.33,1645443046.09375,P18,D02,1,0,0
2152,0.52,1645443046.109375,P18,D02,1,0,0
2153,0.68,1645443046.125,P18,D02,1,0,0
2154,0.85,1645443046.140625,P18,D02,1,0,0
2155,1.01,1645443046.15625,P18,D02,1,0,0
2156,1.13,1645443046.171875,P18,D02,1,0,0
2157,1.17,1645443046.1875,P18,D02,1,0,0
2158,1.07,1645443046.203125,P18,D02,1,0,0
2159,0.82,1645443046.21875,P18,D02,1,0,0
2160,0.5,1645443046.234375,P18,D02,1,0,0
2161,0.16,1645443046.25,P18,D02,1,0,0
2162,-0.1,1645443046.265625,P18,D02,1,0,0
2163,-0.27,1645443046.28125,P18,D02,1,0,0
2164,-0.38,1645443046.296875,P18,D02,1,0,0
2165,-0.49,1645443046.3125,P18,D02,1,0,0
2166,-0.64,1645443046.328125,P18,D02,1,0,0
2167,-0.8,1645443046.34375,P18,D02,1,0,0
2168,-0.9,1645443046.359375,P18,D02,1,0,0
2169,-0.84,1645443046.375,P18,D02,1,0,0
2170,-0.61,1645443046.390625,P18,D02,1,0,0
2171,-0.25,1645443046.40625,P18,D02,1,0,0
2172,0.09,1645443046.421875,P18,D02,1,0,0
2173,0.29,1645443046.4375,P18,D02,1,0,0
2174,0.26,1645443046.453125,P18,D02,1,0,0
2175,0.04,1645443046.46875,P18,D02,1,0,0
2176,-0.26,1645443046.484375,P18,D02,1,0,0
2177,-0.51,1645443046.5,P18,D02,1,0,0
2178,-0.59,1645443046.515625,P18,D02,1,0,0
2179,-0.48,1645443046.53125,P18,D02,1,0,0
2180,-0.23,1645443046.546875,P18,D02,1,0,0
2181,0.04,1645443046.5625,P18,D02,1,0,0
2182,0.24,1645443046.578125,P18,D02,1,0,0
2183,0.33,1645443046.59375,P18,D02,1,0,0
2184,0.33,1645443046.609375,P18,D02,1,0,0
2185,0.32,1645443046.625,P18,D02,1,0,0
2186,0.36,1645443046.640625,P18,D02,1,0,0
2187,0.45,1645443046.65625,P18,D02,1,0,0
2188,0.53,1645443046.671875,P18,D02,1,0,0
2189,0.5,1645443046.6875,P18,D02,1,0,0
2190,0.31,1645443046.703125,P18,D02,1,0,0
2191,-0.02,1645443046.71875,P18,D02,1,0,0
2192,-0.36,1645443046.734375,P18,D02,1,0,0
2193,-0.57,1645443046.75,P18,D02,1,0,0
2194,-0.54,1645443046.765625,P18,D02,1,0,0
2195,-0.34,1645443046.78125,P18,D02,1,0,0
2196,-0.08,1645443046.796875,P18,D02,1,0,0
2197,0.07,1645443046.8125,P18,D02,1,0,0
2198,0.03,1645443046.828125,P18,D02,1,0,0
2199,-0.16,1645443046.84375,P18,D02,1,0,0
2200,-0.37,1645443046.859375,P18,D02,1,0,0
2201,-0.49,1645443046.875,P18,D02,1,0,0
2202,-0.47,1645443046.890625,P18,D02,1,0,0
2203,-0.38,1645443046.90625,P18,D02,1,0,0
2204,-0.35,1645443046.921875,P18,D02,1,0,0
2205,-0.46,1645443046.9375,P18,D02,1,0,0
2206,-0.71,1645443046.953125,P18,D02,1,0,0
2207,-0.99,1645443046.96875,P18,D02,1,0,0
2208,-1.14,1645443046.984375,P18,D02,1,0,0
2209,-1.05,1645443047.0,P18,D02,1,0,0
2210,-0.71,1645443047.015625,P18,D02,1,0,0
2211,-0.22,1645443047.03125,P18,D02,1,0,0
2212,0.26,1645443047.046875,P18,D02,1,0,0
2213,0.59,1645443047.0625,P18,D02,1,0,0
2214,0.71,1645443047.078125,P18,D02,1,0,0
2215,0.7,1645443047.09375,P18,D02,1,0,0
2216,0.66,1645443047.109375,P18,D02,1,0,0
2217,0.71,1645443047.125,P18,D02,1,0,0
2218,0.86,1645443047.140625,P18,D02,1,0,0
2219,1.02,1645443047.15625,P18,D02,1,0,0
2220,1.06,1645443047.171875,P18,D02,1,0,0
2221,0.91,1645443047.1875,P18,D02,1,0,0
2222,0.56,1645443047.203125,P18,D02,1,0,0
2223,0.15,1645443047.21875,P18,D02,1,0,0
2224,-0.18,1645443047.234375,P18,D02,1,0,0
2225,-0.31,1645443047.25,P18,D02,1,0,0
2226,-0.24,1645443047.265625,P18,D02,1,0,0
2227,-0.04,1645443047.28125,P18,D02,1,0,0
2228,0.17,1645443047.296875,P18,D02,1,0,0
2229,0.29,1645443047.3125,P18,D02,1,0,0
2230,0.3,1645443047.328125,P18,D02,1,0,0
2231,0.23,1645443047.34375,P18,D02,1,0,0
2232,0.14,1645443047.359375,P18,D02,1,0,0
2233,0.09,1645443047.375,P18,D02,1,0,0
2234,0.08,1645443047.390625,P18,D02,1,0,0
2235,0.1,1645443047.40625,P18,D02,1,0,0
2236,0.11,1645443047.421875,P18,D02,1,0,0
2237,0.08,1645443047.4375,P18,D02,1,0,0
2238,0.02,1645443047.453125,P18,D02,1,0,0
2239,-0.04,1645443047.46875,P18,D02,1,0,0
2240,-0.08,1645443047.484375,P18,D02,1,0,0
2241,-0.09,1645443047.5,P18,D02,1,0,0
2242,-0.11,1645443047.515625,P18,D02,1,0,0
2243,-0.18,1645443047.53125,P18,D02,1,0,0
2244,-0.33,1645443047.546875,P18,D02,1,0,0
2245,-0.53,1645443047.5625,P18,D02,1,0,0
2246,-0.7,1645443047.578125,P18,D02,1,0,0
2247,-0.71,1645443047.59375,P18,D02,1,0,0
2248,-0.51,1645443047.609375,P18,D02,1,0,0
2249,-0.14,1645443047.625,P18,D02,1,0,0
2250,0.28,1645443047.640625,P18,D02,1,0,0
2251,0.6,1645443047.65625,P18,D02,1,0,0
2252,0.71,1645443047.671875,P18,D02,1,0,0
2253,0.62,1645443047.6875,P18,D02,1,0,0
2254,0.37,1645443047.703125,P18,D02,1,0,0
2255,0.06,1645443047.71875,P18,D02,1,0,0
2256,-0.26,1645443047.734375,P18,D02,1,0,0
2257,-0.57,1645443047.75,P18,D02,1,0,0
2258,-0.84,1645443047.765625,P18,D02,1,0,0
2259,-1.04,1645443047.78125,P18,D02,1,0,0
2260,-1.11,1645443047.796875,P18,D02,1,0,0
2261,-1.02,1645443047.8125,P18,D02,1,0,0
2262,-0.74,1645443047.828125,P18,D02,1,0,0
2263,-0.32,1645443047.84375,P18,D02,1,0,0
2264,0.14,1645443047.859375,P18,D02,1,0,0
2265,0.53,1645443047.875,P18,D02,1,0,0
2266,0.76,1645443047.890625,P18,D02,1,0,0
2267,0.78,1645443047.90625,P18,D02,1,0,0
2268,0.6,1645443047.921875,P18,D02,1,0,0
2269,0.3,1645443047.9375,P18,D02,1,0,0
2270,0.0,1645443047.953125,P18,D02,1,0,0
2271,-0.17,1645443047.96875,P18,D02,1,0,0
2272,-0.14,1645443047.984375,P18,D02,1,0,0
2273,0.09,1645443048.0,P18,D02,1,0,0
2274,0.4,1645443048.015625,P18,D02,1,0,0
2275,0.69,1645443048.03125,P18,D02,1,0,0
2276,0.85,1645443048.046875,P18,D02,1,0,0
2277,0.89,1645443048.0625,P18,D02,1,0,0
2278,0.86,1645443048.078125,P18,D02,1,0,0
2279,0.85,1645443048.09375,P18,D02,1,0,0
2280,0.87,1645443048.109375,P18,D02,1,0,0
2281,0.91,1645443048.125,P18,D02,1,0,0
2282,0.89,1645443048.140625,P18,D02,1,0,0
2283,0.8,1645443048.15625,P18,D02,1,0,0
2284,0.66,1645443048.171875,P18,D02,1,0,0
2285,0.54,1645443048.1875,P18,D02,1,0,0
2286,0.5,1645443048.203125,P18,D02,1,0,0
2287,0.53,1645443048.21875,P18,D02,1,0,0
2288,0.61,1645443048.234375,P18,D02,1,0,0
2289,0.66,1645443048.25,P18,D02,1,0,0
2290,0.68,1645443048.265625,P18,D02,1,0,0
2291,0.68,1645443048.28125,P18,D02,1,0,0
2292,0.7,1645443048.296875,P18,D02,1,0,0
2293,0.77,1645443048.3125,P18,D02,1,0,0
2294,0.87,1645443048.328125,P18,D02,1,0,0
2295,0.97,1645443048.34375,P18,D02,1,0,0
2296,1.04,1645443048.359375,P18,D02,1,0,0
2297,1.1,1645443048.375,P18,D02,1,0,0
2298,1.2,1645443048.390625,P18,D02,1,0,0
2299,1.43,1645443048.40625,P18,D02,1,0,0
2300,1.79,1645443048.421875,P18,D02,1,0,0
2301,2.21,1645443048.4375,P18,D02,1,0,0
2302,2.51,1645443048.453125,P18,D02,1,0,0
2303,2.56,1645443048.46875,P18,D02,1,0,0
2304,2.26,1645443048.484375,P18,D02,1,0,0
2305,1.71,1645443048.5,P18,D02,1,0,0
2306,1.05,1645443048.515625,P18,D02,1,0,0
2307,0.47,1645443048.53125,P18,D02,1,0,0
2308,0.06,1645443048.546875,P18,D02,1,0,0
2309,-0.21,1645443048.5625,P18,D02,1,0,0
2310,-0.44,1645443048.578125,P18,D02,1,0,0
2311,-0.74,1645443048.59375,P18,D02,1,0,0
2312,-1.13,1645443048.609375,P18,D02,1,0,0
2313,-1.5,1645443048.625,P18,D02,1,0,0
2314,-1.7,1645443048.640625,P18,D02,1,0,0
2315,-1.64,1645443048.65625,P18,D02,1,0,0
2316,-1.32,1645443048.671875,P18,D02,1,0,0
2317,-0.87,1645443048.6875,P18,D02,1,0,0
2318,-0.47,1645443048.703125,P18,D02,1,0,0
2319,-0.25,1645443048.71875,P18,D02,1,0,0
2320,-0.22,1645443048.734375,P18,D02,1,0,0
2321,-0.31,1645443048.75,P18,D02,1,0,0
2322,-0.41,1645443048.765625,P18,D02,1,0,0
2323,-0.41,1645443048.78125,P18,D02,1,0,0
2324,-0.33,1645443048.796875,P18,D02,1,0,0
2325,-0.22,1645443048.8125,P18,D02,1,0,0
2326,-0.16,1645443048.828125,P18,D02,1,0,0
2327,-0.22,1645443048.84375,P18,D02,1,0,0
2328,-0.36,1645443048.859375,P18,D02,1,0,0
2329,-0.54,1645443048.875,P18,D02,1,0,0
2330,-0.71,1645443048.890625,P18,D02,1,0,0
2331,-0.87,1645443048.90625,P18,D02,1,0,0
2332,-1.08,1645443048.921875,P18,D02,1,0,0
2333,-1.36,1645443048.9375,P18,D02,1,0,0
2334,-1.71,1645443048.953125,P18,D02,1,0,0
2335,-2.04,1645443048.96875,P18,D02,1,0,0
2336,-2.23,1645443048.984375,P18,D02,1,0,0
2337,-2.21,1645443049.0,P18,D02,1,0,0
2338,-1.96,1645443049.015625,P18,D02,1,0,0
2339,-1.55,1645443049.03125,P18,D02,1,0,0
2340,-1.09,1645443049.046875,P18,D02,1,0,0
2341,-0.71,1645443049.0625,P18,D02,1,0,0
2342,-0.46,1645443049.078125,P18,D02,1,0,0
2343,-0.32,1645443049.09375,P18,D02,1,0,0
2344,-0.25,1645443049.109375,P18,D02,1,0,0
2345,-0.21,1645443049.125,P18,D02,1,0,0
2346,-0.17,1645443049.140625,P18,D02,1,0,0
2347,-0.12,1645443049.15625,P18,D02,1,0,0
2348,-0.07,1645443049.171875,P18,D02,1,0,0
2349,-0.03,1645443049.1875,P18,D02,1,0,0
2350,0.02,1645443049.203125,P18,D02,1,0,0
2351,0.06,1645443049.21875,P18,D02,1,0,0
2352,0.08,1645443049.234375,P18,D02,1,0,0
2353,0.06,1645443049.25,P18,D02,1,0,0
2354,0.03,1645443049.265625,P18,D02,1,0,0
2355,-0.02,1645443049.28125,P18,D02,1,0,0
2356,-0.07,1645443049.296875,P18,D02,1,0,0
2357,-0.11,1645443049.3125,P18,D02,1,0,0
2358,-0.14,1645443049.328125,P18,D02,1,0,0
2359,-0.19,1645443049.34375,P18,D02,1,0,0
2360,-0.26,1645443049.359375,P18,D02,1,0,0
2361,-0.33,1645443049.375,P18,D02,1,0,0
2362,-0.38,1645443049.390625,P18,D02,1,0,0
2363,-0.42,1645443049.40625,P18,D02,1,0,0
2364,-0.48,1645443049.421875,P18,D02,1,0,0
2365,-0.58,1645443049.4375,P18,D02,1,0,0
2366,-0.73,1645443049.453125,P18,D02,1,0,0
2367,-0.87,1645443049.46875,P18,D02,1,0,0
2368,-0.93,1645443049.484375,P18,D02,1,0,0
2369,-0.85,1645443049.5,P18,D02,1,0,0
2370,-0.63,1645443049.515625,P18,D02,1,0,0
2371,-0.36,1645443049.53125,P18,D02,1,0,0
2372,-0.15,1645443049.546875,P18,D02,1,0,0
2373,-0.08,1645443049.5625,P18,D02,1,0,0
2374,-0.12,1645443049.578125,P18,D02,1,0,0
2375,-0.19,1645443049.59375,P18,D02,1,0,0
2376,-0.2,1645443049.609375,P18,D02,1,0,0
2377,-0.12,1645443049.625,P18,D02,1,0,0
2378,0.01,1645443049.640625,P18,D02,1,0,0
2379,0.13,1645443049.65625,P18,D02,1,0,0
2380,0.18,1645443049.671875,P18,D02,1,0,0
2381,0.17,1645443049.6875,P18,D02,1,0,0
2382,0.16,1645443049.703125,P18,D02,1,0,0
2383,0.22,1645443049.71875,P18,D02,1,0,0
2384,0.33,1645443049.734375,P18,D02,1,0,0
2385,0.43,1645443049.75,P18,D02,1,0,0
2386,0.41,1645443049.765625,P18,D02,1,0,0
2387,0.19,1645443049.78125,P18,D02,1,0,0
2388,-0.21,1645443049.796875,P18,D02,1,0,0
2389,-0.68,1645443049.8125,P18,D02,1,0,0
2390,-1.07,1645443049.828125,P18,D02,1,0,0
2391,-1.27,1645443049.84375,P18,D02,1,0,0
2392,-1.24,1645443049.859375,P18,D02,1,0,0
2393,-1.03,1645443049.875,P18,D02,1,0,0
2394,-0.68,1645443049.890625,P18,D02,1,0,0
2395,-0.23,1645443049.90625,P18,D02,1,0,0
2396,0.29,1645443049.921875,P18,D02,1,0,0
2397,0.9,1645443049.9375,P18,D02,1,0,0
2398,1.56,1645443049.953125,P18,D02,1,0,0
2399,2.18,1645443049.96875,P18,D02,1,0,0
2400,2.67,1645443049.984375,P18,D02,1,0,0
2401,2.93,1645443050.0,P18,D02,1,0,0
2402,2.95,1645443050.015625,P18,D02,1,0,0
2403,2.8,1645443050.03125,P18,D02,1,0,0
2404,2.64,1645443050.046875,P18,D02,1,0,0
2405,2.59,1645443050.0625,P18,D02,1,0,0
2406,2.74,1645443050.078125,P18,D02,1,0,0
2407,3.07,1645443050.09375,P18,D02,1,0,0
2408,3.47,1645443050.109375,P18,D02,1,0,0
2409,3.82,1645443050.125,P18,D02,1,0,0
2410,3.99,1645443050.140625,P18,D02,1,0,0
2411,3.96,1645443050.15625,P18,D02,1,0,0
2412,3.79,1645443050.171875,P18,D02,1,0,0
2413,3.62,1645443050.1875,P18,D02,1,0,0
2414,3.6,1645443050.203125,P18,D02,1,0,0
2415,3.85,1645443050.21875,P18,D02,1,0,0
2416,4.39,1645443050.234375,P18,D02,1,0,0
2417,5.1,1645443050.25,P18,D02,1,0,0
2418,5.81,1645443050.265625,P18,D02,1,0,0
2419,6.31,1645443050.28125,P18,D02,1,0,0
2420,6.54,1645443050.296875,P18,D02,1,0,0
2421,6.6,1645443050.3125,P18,D02,1,0,0
2422,6.74,1645443050.328125,P18,D02,1,0,0
2423,7.32,1645443050.34375,P18,D02,1,0,0
2424,8.57,1645443050.359375,P18,D02,1,0,0
2425,10.43,1645443050.375,P18,D02,1,0,0
2426,12.56,1645443050.390625,P18,D02,1,0,0
2427,14.43,1645443050.40625,P18,D02,1,0,0
2428,15.57,1645443050.421875,P18,D02,1,0,0
2429,15.9,1645443050.4375,P18,D02,1,0,0
2430,15.81,1645443050.453125,P18,D02,1,0,0
2431,16.05,1645443050.46875,P18,D02,1,0,0
2432,17.38,1645443050.484375,P18,D02,1,0,0
2433,20.15,1645443050.5,P18,D02,1,0,0
2434,24.11,1645443050.515625,P18,D02,1,0,0
2435,28.41,1645443050.53125,P18,D02,1,0,0
2436,32.02,1645443050.546875,P18,D02,1,0,0
2437,34.18,1645443050.5625,P18,D02,1,0,0
2438,34.77,1645443050.578125,P18,D02,1,0,0
2439,34.41,1645443050.59375,P18,D02,1,0,0
2440,34.16,1645443050.609375,P18,D02,1,0,0
2441,35.15,1645443050.625,P18,D02,1,0,0
2442,38.15,1645443050.640625,P18,D02,1,0,0
2443,43.34,1645443050.65625,P18,D02,1,0,0
2444,50.23,1645443050.671875,P18,D02,1,0,0
2445,57.73,1645443050.6875,P18,D02,1,0,0
2446,64.17,1645443050.703125,P18,D02,1,0,0
2447,67.64,1645443050.71875,P18,D02,1,0,0
2448,66.44,1645443050.734375,P18,D02,1,0,0
2449,59.81,1645443050.75,P18,D02,1,0,0
2450,48.41,1645443050.765625,P18,D02,1,0,0
2451,34.45,1645443050.78125,P18,D02,1,0,0
2452,21.12,1645443050.796875,P18,D02,1,0,0
2453,11.37,1645443050.8125,P18,D02,1,0,0
2454,6.76,1645443050.828125,P18,D02,1,0,0
2455,6.7,1645443050.84375,P18,D02,1,0,0
2456,8.64,1645443050.859375,P18,D02,1,0,0
2457,9.24,1645443050.875,P18,D02,1,0,0
2458,5.82,1645443050.890625,P18,D02,1,0,0
2459,-2.5,1645443050.90625,P18,D02,1,0,0
2460,-14.52,1645443050.921875,P18,D02,1,0,0
2461,-27.65,1645443050.9375,P18,D02,1,0,0
2462,-39.15,1645443050.953125,P18,D02,1,0,0
2463,-47.2,1645443050.96875,P18,D02,1,0,0
2464,-51.41,1645443050.984375,P18,D02,1,0,0
2465,-52.56,1645443051.0,P18,D02,1,0,0
2466,-51.94,1645443051.015625,P18,D02,1,0,0
2467,-50.62,1645443051.03125,P18,D02,1,0,0
2468,-49.1,1645443051.046875,P18,D02,1,0,0
2469,-47.44,1645443051.0625,P18,D02,1,0,0
2470,-45.53,1645443051.078125,P18,D02,1,0,0
2471,-43.52,1645443051.09375,P18,D02,1,0,0
2472,-41.75,1645443051.109375,P18,D02,1,0,0
2473,-40.62,1645443051.125,P18,D02,1,0,0
2474,-40.18,1645443051.140625,P18,D02,1,0,0
2475,-40.07,1645443051.15625,P18,D02,1,0,0
2476,-39.59,1645443051.171875,P18,D02,1,0,0
2477,-38.11,1645443051.1875,P18,D02,1,0,0
2478,-35.35,1645443051.203125,P18,D02,1,0,0
2479,-31.61,1645443051.21875,P18,D02,1,0,0
2480,-27.61,1645443051.234375,P18,D02,1,0,0
2481,-24.2,1645443051.25,P18,D02,1,0,0
2482,-21.99,1645443051.265625,P18,D02,1,0,0
2483,-21.13,1645443051.28125,P18,D02,1,0,0
2484,-21.24,1645443051.296875,P18,D02,1,0,0
2485,-21.64,1645443051.3125,P18,D02,1,0,0
2486,-21.64,1645443051.328125,P18,D02,1,0,0
2487,-20.8,1645443051.34375,P18,D02,1,0,0
2488,-19.1,1645443051.359375,P18,D02,1,0,0
2489,-16.9,1645443051.375,P18,D02,1,0,0
2490,-14.75,1645443051.390625,P18,D02,1,0,0
2491,-13.16,1645443051.40625,P18,D02,1,0,0
2492,-12.36,1645443051.421875,P18,D02,1,0,0
2493,-12.25,1645443051.4375,P18,D02,1,0,0
2494,-12.48,1645443051.453125,P18,D02,1,0,0
2495,-12.62,1645443051.46875,P18,D02,1,0,0
2496,-12.37,1645443051.484375,P18,D02,1,0,0
2497,-11.66,1645443051.5,P18,D02,1,0,0
2498,-10.65,1645443051.515625,P18,D02,1,0,0
2499,-9.6,1645443051.53125,P18,D02,1,0,0
2500,-8.7,1645443051.546875,P18,D02,1,0,0
2501,-8.01,1645443051.5625,P18,D02,1,0,0
2502,-7.44,1645443051.578125,P18,D02,1,0,0
2503,-6.85,1645443051.59375,P18,D02,1,0,0
2504,-6.1,1645443051.609375,P18,D02,1,0,0
2505,-5.14,1645443051.625,P18,D02,1,0,0
2506,-4.04,1645443051.640625,P18,D02,1,0,0
2507,-2.96,1645443051.65625,P18,D02,1,0,0
2508,-2.06,1645443051.671875,P18,D02,1,0,0
2509,-1.47,1645443051.6875,P18,D02,1,0,0
2510,-1.21,1645443051.703125,P18,D02,1,0,0
2511,-1.16,1645443051.71875,P18,D02,1,0,0
2512,-1.14,1645443051.734375,P18,D02,1,0,0
2513,-0.98,1645443051.75,P18,D02,1,0,0
2514,-0.62,1645443051.765625,P18,D02,1,0,0
2515,-0.15,1645443051.78125,P18,D02,1,0,0
2516,0.25,1645443051.796875,P18,D02,1,0,0
2517,0.4,1645443051.8125,P18,D02,1,0,0
2518,0.23,1645443051.828125,P18,D02,1,0,0
2519,-0.21,1645443051.84375,P18,D02,1,0,0
2520,-0.73,1645443051.859375,P18,D02,1,0,0
2521,-1.15,1645443051.875,P18,D02,1,0,0
2522,-1.37,1645443051.890625,P18,D02,1,0,0
2523,-1.39,1645443051.90625,P18,D02,1,0,0
2524,-1.29,1645443051.921875,P18,D02,1,0,0
2525,-1.15,1645443051.9375,P18,D02,1,0,0
2526,-1.03,1645443051.953125,P18,D02,1,0,0
2527,-0.91,1645443051.96875,P18,D02,1,0,0
2528,-0.74,1645443051.984375,P18,D02,1,0,0
2529,-0.51,1645443052.0,P18,D02,1,0,0
2530,-0.23,1645443052.015625,P18,D02,1,0,0
2531,0.03,1645443052.03125,P18,D02,1,0,0
2532,0.2,1645443052.046875,P18,D02,1,0,0
2533,0.27,1645443052.0625,P18,D02,1,0,0
2534,0.27,1645443052.078125,P18,D02,1,0,0
2535,0.3,1645443052.09375,P18,D02,1,0,0
2536,0.47,1645443052.109375,P18,D02,1,0,0
2537,0.87,1645443052.125,P18,D02,1,0,0
2538,1.47,1645443052.140625,P18,D02,1,0,0
2539,2.17,1645443052.15625,P18,D02,1,0,0
2540,2.8,1645443052.171875,P18,D02,1,0,0
2541,3.23,1645443052.1875,P18,D02,1,0,0
2542,3.4,1645443052.203125,P18,D02,1,0,0
2543,3.32,1645443052.21875,P18,D02,1,0,0
2544,3.05,1645443052.234375,P18,D02,1,0,0
2545,2.65,1645443052.25,P18,D02,1,0,0
2546,2.12,1645443052.265625,P18,D02,1,0,0
2547,1.46,1645443052.28125,P18,D02,1,0,0
2548,0.67,1645443052.296875,P18,D02,1,0,0
2549,-0.18,1645443052.3125,P18,D02,1,0,0
2550,-0.95,1645443052.328125,P18,D02,1,0,0
2551,-1.53,1645443052.34375,P18,D02,1,0,0
2552,-1.83,1645443052.359375,P18,D02,1,0,0
2553,-1.91,1645443052.375,P18,D02,1,0,0
2554,-1.89,1645443052.390625,P18,D02,1,0,0
2555,-1.94,1645443052.40625,P18,D02,1,0,0
2556,-2.18,1645443052.421875,P18,D02,1,0,0
2557,-2.64,1645443052.4375,P18,D02,1,0,0
2558,-3.22,1645443052.453125,P18,D02,1,0,0
2559,-3.75,1645443052.46875,P18,D02,1,0,0
2560,-4.1,1645443052.484375,P18,D02,1,0,0
2561,-4.2,1645443052.5,P18,D02,1,0,0
2562,-4.09,1645443052.515625,P18,D02,1,0,0
2563,-3.85,1645443052.53125,P18,D02,1,0,0
2564,-3.61,1645443052.546875,P18,D02,1,0,0
2565,-3.43,1645443052.5625,P18,D02,1,0,0
2566,-3.32,1645443052.578125,P18,D02,1,0,0
2567,-3.22,1645443052.59375,P18,D02,1,0,0
2568,-3.06,1645443052.609375,P18,D02,1,0,0
2569,-2.79,1645443052.625,P18,D02,1,0,0
2570,-2.35,1645443052.640625,P18,D02,1,0,0
2571,-1.71,1645443052.65625,P18,D02,1,0,0
2572,-0.83,1645443052.671875,P18,D02,1,0,0
2573,0.32,1645443052.6875,P18,D02,1,0,0
2574,1.76,1645443052.703125,P18,D02,1,0,0
2575,3.42,1645443052.71875,P18,D02,1,0,0
2576,5.17,1645443052.734375,P18,D02,1,0,0
2577,6.82,1645443052.75,P18,D02,1,0,0
2578,8.16,1645443052.765625,P18,D02,1,0,0
2579,9.08,1645443052.78125,P18,D02,1,0,0
2580,9.58,1645443052.796875,P18,D02,1,0,0
2581,9.76,1645443052.8125,P18,D02,1,0,0
2582,9.72,1645443052.828125,P18,D02,1,0,0
2583,9.55,1645443052.84375,P18,D02,1,0,0
2584,9.27,1645443052.859375,P18,D02,1,0,0
2585,8.85,1645443052.875,P18,D02,1,0,0
2586,8.24,1645443052.890625,P18,D02,1,0,0
2587,7.45,1645443052.90625,P18,D02,1,0,0
2588,6.57,1645443052.921875,P18,D02,1,0,0
2589,5.68,1645443052.9375,P18,D02,1,0,0
2590,4.83,1645443052.953125,P18,D02,1,0,0
2591,4.02,1645443052.96875,P18,D02,1,0,0
2592,3.16,1645443052.984375,P18,D02,1,0,0
2593,2.2,1645443053.0,P18,D02,1,0,0
2594,1.12,1645443053.015625,P18,D02,1,0,0
2595,-0.0,1645443053.03125,P18,D02,1,0,0
2596,-1.04,1645443053.046875,P18,D02,1,0,0
2597,-1.94,1645443053.0625,P18,D02,1,0,0
2598,-2.68,1645443053.078125,P18,D02,1,0,0
2599,-3.34,1645443053.09375,P18,D02,1,0,0
2600,-3.98,1645443053.109375,P18,D02,1,0,0
2601,-4.61,1645443053.125,P18,D02,1,0,0
2602,-5.09,1645443053.140625,P18,D02,1,0,0
2603,-5.29,1645443053.15625,P18,D02,1,0,0
2604,-5.09,1645443053.171875,P18,D02,1,0,0
2605,-4.54,1645443053.1875,P18,D02,1,0,0
2606,-3.78,1645443053.203125,P18,D02,1,0,0
2607,-3.0,1645443053.21875,P18,D02,1,0,0
2608,-2.31,1645443053.234375,P18,D02,1,0,0
2609,-1.71,1645443053.25,P18,D02,1,0,0
2610,-1.11,1645443053.265625,P18,D02,1,0,0
2611,-0.42,1645443053.28125,P18,D02,1,0,0
2612,0.36,1645443053.296875,P18,D02,1,0,0
2613,1.17,1645443053.3125,P18,D02,1,0,0
2614,1.86,1645443053.328125,P18,D02,1,0,0
2615,2.33,1645443053.34375,P18,D02,1,0,0
2616,2.55,1645443053.359375,P18,D02,1,0,0
2617,2.57,1645443053.375,P18,D02,1,0,0
2618,2.49,1645443053.390625,P18,D02,1,0,0
2619,2.39,1645443053.40625,P18,D02,1,0,0
2620,2.33,1645443053.421875,P18,D02,1,0,0
2621,2.28,1645443053.4375,P18,D02,1,0,0
2622,2.18,1645443053.453125,P18,D02,1,0,0
2623,1.96,1645443053.46875,P18,D02,1,0,0
2624,1.59,1645443053.484375,P18,D02,1,0,0
2625,1.08,1645443053.5,P18,D02,1,0,0
2626,0.51,1645443053.515625,P18,D02,1,0,0
2627,0.0,1645443053.53125,P18,D02,1,0,0
2628,-0.37,1645443053.546875,P18,D02,1,0,0
2629,-0.59,1645443053.5625,P18,D02,1,0,0
2630,-0.68,1645443053.578125,P18,D02,1,0,0
2631,-0.67,1645443053.59375,P18,D02,1,0,0
2632,-0.59,1645443053.609375,P18,D02,1,0,0
2633,-0.45,1645443053.625,P18,D02,1,0,0
2634,-0.21,1645443053.640625,P18,D02,1,0,0
2635,0.1,1645443053.65625,P18,D02,1,0,0
2636,0.41,1645443053.671875,P18,D02,1,0,0
2637,0.62,1645443053.6875,P18,D02,1,0,0
2638,0.65,1645443053.703125,P18,D02,1,0,0
2639,0.48,1645443053.71875,P18,D02,1,0,0
2640,0.21,1645443053.734375,P18,D02,1,0,0
2641,-0.01,1645443053.75,P18,D02,1,0,0
2642,-0.05,1645443053.765625,P18,D02,1,0,0
2643,0.16,1645443053.78125,P18,D02,1,0,0
2644,0.56,1645443053.796875,P18,D02,1,0,0
2645,1.01,1645443053.8125,P18,D02,1,0,0
2646,1.36,1645443053.828125,P18,D02,1,0,0
2647,1.53,1645443053.84375,P18,D02,1,0,0
2648,1.52,1645443053.859375,P18,D02,1,0,0
2649,1.43,1645443053.875,P18,D02,1,0,0
2650,1.36,1645443053.890625,P18,D02,1,0,0
2651,1.37,1645443053.90625,P18,D02,1,0,0
2652,1.46,1645443053.921875,P18,D02,1,0,0
2653,1.54,1645443053.9375,P18,D02,1,0,0
2654,1.51,1645443053.953125,P18,D02,1,0,0
2655,1.27,1645443053.96875,P18,D02,1,0,0
2656,0.8,1645443053.984375,P18,D02,1,0,0
2657,0.1,1645443054.0,P18,D02,1,0,0
2658,-0.78,1645443054.015625,P18,D02,1,0,0
2659,-1.71,1645443054.03125,P18,D02,1,0,0
2660,-2.56,1645443054.046875,P18,D02,1,0,0
2661,-3.15,1645443054.0625,P18,D02,1,0,0
2662,-3.37,1645443054.078125,P18,D02,1,0,0
2663,-3.17,1645443054.09375,P18,D02,1,0,0
2664,-2.67,1645443054.109375,P18,D02,1,0,0
2665,-2.05,1645443054.125,P18,D02,1,0,0
2666,-1.52,1645443054.140625,P18,D02,1,0,0
2667,-1.22,1645443054.15625,P18,D02,1,0,0
2668,-1.16,1645443054.171875,P18,D02,1,0,0
2669,-1.19,1645443054.1875,P18,D02,1,0,0
2670,-1.16,1645443054.203125,P18,D02,1,0,0
2671,-0.93,1645443054.21875,P18,D02,1,0,0
2672,-0.52,1645443054.234375,P18,D02,1,0,0
2673,-0.03,1645443054.25,P18,D02,1,0,0
2674,0.36,1645443054.265625,P18,D02,1,0,0
2675,0.54,1645443054.28125,P18,D02,1,0,0
2676,0.52,1645443054.296875,P18,D02,1,0,0
2677,0.39,1645443054.3125,P18,D02,1,0,0
2678,0.25,1645443054.328125,P18,D02,1,0,0
2679,0.18,1645443054.34375,P18,D02,1,0,0
2680,0.15,1645443054.359375,P18,D02,1,0,0
2681,0.11,1645443054.375,P18,D02,1,0,0
2682,-0.03,1645443054.390625,P18,D02,1,0,0
2683,-0.28,1645443054.40625,P18,D02,1,0,0
2684,-0.58,1645443054.421875,P18,D02,1,0,0
2685,-0.8,1645443054.4375,P18,D02,1,0,0
2686,-0.82,1645443054.453125,P18,D02,1,0,0
2687,-0.62,1645443054.46875,P18,D02,1,0,0
2688,-0.27,1645443054.484375,P18,D02,1,0,0
2689,0.08,1645443054.5,P18,D02,1,0,0
2690,0.27,1645443054.515625,P18,D02,1,0,0
2691,0.22,1645443054.53125,P18,D02,1,0,0
2692,-0.04,1645443054.546875,P18,D02,1,0,0
2693,-0.42,1645443054.5625,P18,D02,1,0,0
2694,-0.8,1645443054.578125,P18,D02,1,0,0
2695,-1.06,1645443054.59375,P18,D02,1,0,0
2696,-1.13,1645443054.609375,P18,D02,1,0,0
2697,-1.01,1645443054.625,P18,D02,1,0,0
2698,-0.71,1645443054.640625,P18,D02,1,0,0
2699,-0.31,1645443054.65625,P18,D02,1,0,0
2700,0.13,1645443054.671875,P18,D02,1,0,0
2701,0.5,1645443054.6875,P18,D02,1,0,0
2702,0.74,1645443054.703125,P18,D02,1,0,0
2703,0.81,1645443054.71875,P18,D02,1,0,0
2704,0.75,1645443054.734375,P18,D02,1,0,0
2705,0.62,1645443054.75,P18,D02,1,0,0
2706,0.49,1645443054.765625,P18,D02,1,0,0
2707,0.4,1645443054.78125,P18,D02,1,0,0
2708,0.33,1645443054.796875,P18,D02,1,0,0
2709,0.26,1645443054.8125,P18,D02,1,0,0
2710,0.19,1645443054.828125,P18,D02,1,0,0
2711,0.12,1645443054.84375,P18,D02,1,0,0
2712,0.1,1645443054.859375,P18,D02,1,0,0
2713,0.16,1645443054.875,P18,D02,1,0,0
2714,0.31,1645443054.890625,P18,D02,1,0,0
2715,0.54,1645443054.90625,P18,D02,1,0,0
2716,0.78,1645443054.921875,P18,D02,1,0,0
2717,0.99,1645443054.9375,P18,D02,1,0,0
2718,1.12,1645443054.953125,P18,D02,1,0,0
2719,1.17,1645443054.96875,P18,D02,1,0,0
2720,1.14,1645443054.984375,P18,D02,1,0,0
2721,1.05,1645443055.0,P18,D02,1,0,0
2722,0.94,1645443055.015625,P18,D02,1,0,0
2723,0.84,1645443055.03125,P18,D02,1,0,0
2724,0.79,1645443055.046875,P18,D02,1,0,0
2725,0.79,1645443055.0625,P18,D02,1,0,0
2726,0.83,1645443055.078125,P18,D02,1,0,0
2727,0.83,1645443055.09375,P18,D02,1,0,0
2728,0.76,1645443055.109375,P18,D02,1,0,0
2729,0.61,1645443055.125,P18,D02,1,0,0
2730,0.42,1645443055.140625,P18,D02,1,0,0
2731,0.26,1645443055.15625,P18,D02,1,0,0
2732,0.19,1645443055.171875,P18,D02,1,0,0
2733,0.22,1645443055.1875,P18,D02,1,0,0
2734,0.3,1645443055.203125,P18,D02,1,0,0
2735,0.33,1645443055.21875,P18,D02,1,0,0
2736,0.26,1645443055.234375,P18,D02,1,0,0
2737,0.07,1645443055.25,P18,D02,1,0,0
2738,-0.16,1645443055.265625,P18,D02,1,0,0
2739,-0.34,1645443055.28125,P18,D02,1,0,0
2740,-0.39,1645443055.296875,P18,D02,1,0,0
2741,-0.31,1645443055.3125,P18,D02,1,0,0
2742,-0.19,1645443055.328125,P18,D02,1,0,0
2743,-0.1,1645443055.34375,P18,D02,1,0,0
2744,-0.1,1645443055.359375,P18,D02,1,0,0
2745,-0.19,1645443055.375,P18,D02,1,0,0
2746,-0.32,1645443055.390625,P18,D02,1,0,0
2747,-0.42,1645443055.40625,P18,D02,1,0,0
2748,-0.44,1645443055.421875,P18,D02,1,0,0
2749,-0.4,1645443055.4375,P18,D02,1,0,0
2750,-0.31,1645443055.453125,P18,D02,1,0,0
2751,-0.21,1645443055.46875,P18,D02,1,0,0
2752,-0.11,1645443055.484375,P18,D02,1,0,0
2753,-0.03,1645443055.5,P18,D02,1,0,0
2754,0.03,1645443055.515625,P18,D02,1,0,0
2755,0.05,1645443055.53125,P18,D02,1,0,0
2756,0.02,1645443055.546875,P18,D02,1,0,0
2757,-0.09,1645443055.5625,P18,D02,1,0,0
2758,-0.26,1645443055.578125,P18,D02,1,0,0
2759,-0.45,1645443055.59375,P18,D02,1,0,0
2760,-0.56,1645443055.609375,P18,D02,1,0,0
2761,-0.55,1645443055.625,P18,D02,1,0,0
2762,-0.39,1645443055.640625,P18,D02,1,0,0
2763,-0.12,1645443055.65625,P18,D02,1,0,0
2764,0.15,1645443055.671875,P18,D02,1,0,0
2765,0.3,1645443055.6875,P18,D02,1,0,0
2766,0.25,1645443055.703125,P18,D02,1,0,0
2767,0.01,1645443055.71875,P18,D02,1,0,0
2768,-0.34,1645443055.734375,P18,D02,1,0,0
2769,-0.66,1645443055.75,P18,D02,1,0,0
2770,-0.84,1645443055.765625,P18,D02,1,0,0
2771,-0.85,1645443055.78125,P18,D02,1,0,0
2772,-0.8,1645443055.796875,P18,D02,1,0,0
2773,-0.82,1645443055.8125,P18,D02,1,0,0
2774,-1.04,1645443055.828125,P18,D02,1,0,0
2775,-1.52,1645443055.84375,P18,D02,1,0,0
2776,-2.17,1645443055.859375,P18,D02,1,0,0
2777,-2.82,1645443055.875,P18,D02,1,0,0
2778,-3.3,1645443055.890625,P18,D02,1,0,0
2779,-3.51,1645443055.90625,P18,D02,1,0,0
2780,-3.45,1645443055.921875,P18,D02,1,0,0
2781,-3.24,1645443055.9375,P18,D02,1,0,0
2782,-2.99,1645443055.953125,P18,D02,1,0,0
2783,-2.83,1645443055.96875,P18,D02,1,0,0
2784,-2.83,1645443055.984375,P18,D02,1,0,0
2785,-3.02,1645443056.0,P18,D02,1,0,0
2786,-3.39,1645443056.015625,P18,D02,1,0,0
2787,-3.92,1645443056.03125,P18,D02,1,0,0
2788,-4.55,1645443056.046875,P18,D02,1,0,0
2789,-5.19,1645443056.0625,P18,D02,1,0,0
2790,-5.71,1645443056.078125,P18,D02,1,0,0
2791,-6.0,1645443056.09375,P18,D02,1,0,0
2792,-5.97,1645443056.109375,P18,D02,1,0,0
2793,-5.64,1645443056.125,P18,D02,1,0,0
2794,-5.08,1645443056.140625,P18,D02,1,0,0
2795,-4.49,1645443056.15625,P18,D02,1,0,0
2796,-4.02,1645443056.171875,P18,D02,1,0,0
2797,-3.78,1645443056.1875,P18,D02,1,0,0
2798,-3.76,1645443056.203125,P18,D02,1,0,0
2799,-3.8,1645443056.21875,P18,D02,1,0,0
2800,-3.7,1645443056.234375,P18,D02,1,0,0
2801,-3.29,1645443056.25,P18,D02,1,0,0
2802,-2.55,1645443056.265625,P18,D02,1,0,0
2803,-1.64,1645443056.28125,P18,D02,1,0,0
2804,-0.83,1645443056.296875,P18,D02,1,0,0
2805,-0.42,1645443056.3125,P18,D02,1,0,0
2806,-0.53,1645443056.328125,P18,D02,1,0,0
2807,-1.12,1645443056.34375,P18,D02,1,0,0
2808,-1.97,1645443056.359375,P18,D02,1,0,0
2809,-2.82,1645443056.375,P18,D02,1,0,0
2810,-3.46,1645443056.390625,P18,D02,1,0,0
2811,-3.85,1645443056.40625,P18,D02,1,0,0
2812,-4.13,1645443056.421875,P18,D02,1,0,0
2813,-4.55,1645443056.4375,P18,D02,1,0,0
2814,-5.32,1645443056.453125,P18,D02,1,0,0
2815,-6.56,1645443056.46875,P18,D02,1,0,0
2816,-8.17,1645443056.484375,P18,D02,1,0,0
2817,-9.93,1645443056.5,P18,D02,1,0,0
2818,-11.5,1645443056.515625,P18,D02,1,0,0
2819,-12.6,1645443056.53125,P18,D02,1,0,0
2820,-13.14,1645443056.546875,P18,D02,1,0,0
2821,-13.23,1645443056.5625,P18,D02,1,0,0
2822,-13.15,1645443056.578125,P18,D02,1,0,0
2823,-13.3,1645443056.59375,P18,D02,1,0,0
2824,-13.94,1645443056.609375,P18,D02,1,0,0
2825,-15.1,1645443056.625,P18,D02,1,0,0
2826,-16.57,1645443056.640625,P18,D02,1,0,0
2827,-17.97,1645443056.65625,P18,D02,1,0,0
2828,-18.97,1645443056.671875,P18,D02,1,0,0
2829,-19.48,1645443056.6875,P18,D02,1,0,0
2830,-19.78,1645443056.703125,P18,D02,1,0,0
2831,-20.43,1645443056.71875,P18,D02,1,0,0
2832,-22.02,1645443056.734375,P18,D02,1,0,0
2833,-24.82,1645443056.75,P18,D02,1,0,0
2834,-28.59,1645443056.765625,P18,D02,1,0,0
2835,-32.55,1645443056.78125,P18,D02,1,0,0
2836,-35.75,1645443056.796875,P18,D02,1,0,0
2837,-37.45,1645443056.8125,P18,D02,1,0,0
2838,-37.54,1645443056.828125,P18,D02,1,0,0
2839,-36.55,1645443056.84375,P18,D02,1,0,0
2840,-35.49,1645443056.859375,P18,D02,1,0,0
2841,-35.35,1645443056.875,P18,D02,1,0,0
2842,-36.76,1645443056.890625,P18,D02,1,0,0
2843,-39.82,1645443056.90625,P18,D02,1,0,0
2844,-44.2,1645443056.921875,P18,D02,1,0,0
2845,-49.22,1645443056.9375,P18,D02,1,0,0
2846,-53.91,1645443056.953125,P18,D02,1,0,0
2847,-56.91,1645443056.96875,P18,D02,1,0,0
2848,-56.63,1645443056.984375,P18,D02,1,0,0
2849,-51.63,1645443057.0,P18,D02,1,0,0
2850,-41.37,1645443057.015625,P18,D02,1,0,0
2851,-26.85,1645443057.03125,P18,D02,1,0,0
2852,-10.53,1645443057.046875,P18,D02,1,0,0
2853,4.48,1645443057.0625,P18,D02,1,0,0
2854,15.77,1645443057.078125,P18,D02,1,0,0
2855,22.65,1645443057.09375,P18,D02,1,0,0
2856,26.47,1645443057.109375,P18,D02,1,0,0
2857,29.77,1645443057.125,P18,D02,1,0,0
2858,34.94,1645443057.140625,P18,D02,1,0,0
2859,42.98,1645443057.15625,P18,D02,1,0,0
2860,53.14,1645443057.171875,P18,D02,1,0,0
2861,63.45,1645443057.1875,P18,D02,1,0,0
2862,71.82,1645443057.203125,P18,D02,1,0,0
2863,76.99,1645443057.21875,P18,D02,1,0,0
2864,78.93,1645443057.234375,P18,D02,1,0,0
2865,78.45,1645443057.25,P18,D02,1,0,0
2866,76.62,1645443057.265625,P18,D02,1,0,0
2867,74.22,1645443057.28125,P18,D02,1,0,0
2868,71.51,1645443057.296875,P18,D02,1,0,0
2869,68.49,1645443057.3125,P18,D02,1,0,0
2870,65.14,1645443057.328125,P18,D02,1,0,0
2871,61.71,1645443057.34375,P18,D02,1,0,0
2872,58.64,1645443057.359375,P18,D02,1,0,0
2873,56.31,1645443057.375,P18,D02,1,0,0
2874,54.7,1645443057.390625,P18,D02,1,0,0
2875,53.32,1645443057.40625,P18,D02,1,0,0
2876,51.24,1645443057.421875,P18,D02,1,0,0
2877,47.56,1645443057.4375,P18,D02,1,0,0
2878,41.86,1645443057.453125,P18,D02,1,0,0
2879,34.45,1645443057.46875,P18,D02,1,0,0
2880,26.25,1645443057.484375,P18,D02,1,0,0
2881,18.52,1645443057.5,P18,D02,1,0,0
2882,12.3,1645443057.515625,P18,D02,1,0,0
2883,8.13,1645443057.53125,P18,D02,1,0,0
2884,5.9,1645443057.546875,P18,D02,1,0,0
2885,4.98,1645443057.5625,P18,D02,1,0,0
2886,4.57,1645443057.578125,P18,D02,1,0,0
2887,3.93,1645443057.59375,P18,D02,1,0,0
2888,2.68,1645443057.609375,P18,D02,1,0,0
2889,0.83,1645443057.625,P18,D02,1,0,0
2890,-1.33,1645443057.640625,P18,D02,1,0,0
2891,-3.46,1645443057.65625,P18,D02,1,0,0
2892,-5.31,1645443057.671875,P18,D02,1,0,0
2893,-6.87,1645443057.6875,P18,D02,1,0,0
2894,-8.3,1645443057.703125,P18,D02,1,0,0
2895,-9.76,1645443057.71875,P18,D02,1,0,0
2896,-11.28,1645443057.734375,P18,D02,1,0,0
2897,-12.72,1645443057.75,P18,D02,1,0,0
2898,-13.79,1645443057.765625,P18,D02,1,0,0
2899,-14.3,1645443057.78125,P18,D02,1,0,0
2900,-14.17,1645443057.796875,P18,D02,1,0,0
2901,-13.53,1645443057.8125,P18,D02,1,0,0
2902,-12.62,1645443057.828125,P18,D02,1,0,0
2903,-11.69,1645443057.84375,P18,D02,1,0,0
2904,-10.85,1645443057.859375,P18,D02,1,0,0
2905,-10.14,1645443057.875,P18,D02,1,0,0
2906,-9.55,1645443057.890625,P18,D02,1,0,0
2907,-9.07,1645443057.90625,P18,D02,1,0,0
2908,-8.71,1645443057.921875,P18,D02,1,0,0
2909,-8.48,1645443057.9375,P18,D02,1,0,0
