,data,timestamp,participant,document,val,arou,eng
0,12.59,1645442840.859375,P18,D01,1,1,1
1,9.76,1645442840.875,P18,D01,1,1,1
2,9.8,1645442840.890625,P18,D01,1,1,1
3,12.24,1645442840.90625,P18,D01,1,1,1
4,16.55,1645442840.921875,P18,D01,1,1,1
5,22.16,1645442840.9375,P18,D01,1,1,1
6,28.23,1645442840.953125,P18,D01,1,1,1
7,33.35,1645442840.96875,P18,D01,1,1,1
8,35.54,1645442840.984375,P18,D01,1,1,1
9,32.68,1645442841.0,P18,D01,1,1,1
10,23.41,1645442841.015625,P18,D01,1,1,1
11,8.03,1645442841.03125,P18,D01,1,1,1
12,-11.18,1645442841.046875,P18,D01,1,1,1
13,-30.6,1645442841.0625,P18,D01,1,1,1
14,-46.48,1645442841.078125,P18,D01,1,1,1
15,-56.53,1645442841.09375,P18,D01,1,1,1
16,-60.71,1645442841.109375,P18,D01,1,1,1
17,-60.86,1645442841.125,P18,D01,1,1,1
18,-59.58,1645442841.140625,P18,D01,1,1,1
19,-58.77,1645442841.15625,P18,D01,1,1,1
20,-58.86,1645442841.171875,P18,D01,1,1,1
21,-59.04,1645442841.1875,P18,D01,1,1,1
22,-58.15,1645442841.203125,P18,D01,1,1,1
23,-55.63,1645442841.21875,P18,D01,1,1,1
24,-51.81,1645442841.234375,P18,D01,1,1,1
25,-47.57,1645442841.25,P18,D01,1,1,1
26,-43.58,1645442841.265625,P18,D01,1,1,1
27,-39.84,1645442841.28125,P18,D01,1,1,1
28,-35.73,1645442841.296875,P18,D01,1,1,1
29,-30.5,1645442841.3125,P18,D01,1,1,1
30,-23.75,1645442841.328125,P18,D01,1,1,1
31,-15.66,1645442841.34375,P18,D01,1,1,1
32,-7.07,1645442841.359375,P18,D01,1,1,1
33,0.87,1645442841.375,P18,D01,1,1,1
34,6.97,1645442841.390625,P18,D01,1,1,1
35,10.35,1645442841.40625,P18,D01,1,1,1
36,10.69,1645442841.421875,P18,D01,1,1,1
37,8.3,1645442841.4375,P18,D01,1,1,1
38,4.1,1645442841.453125,P18,D01,1,1,1
39,-0.66,1645442841.46875,P18,D01,1,1,1
40,-4.78,1645442841.484375,P18,D01,1,1,1
41,-7.57,1645442841.5,P18,D01,1,1,1
42,-9.0,1645442841.515625,P18,D01,1,1,1
43,-9.65,1645442841.53125,P18,D01,1,1,1
44,-10.28,1645442841.546875,P18,D01,1,1,1
45,-11.43,1645442841.5625,P18,D01,1,1,1
46,-13.13,1645442841.578125,P18,D01,1,1,1
47,-14.91,1645442841.59375,P18,D01,1,1,1
48,-16.07,1645442841.609375,P18,D01,1,1,1
49,-15.97,1645442841.625,P18,D01,1,1,1
50,-14.24,1645442841.640625,P18,D01,1,1,1
51,-10.86,1645442841.65625,P18,D01,1,1,1
52,-6.08,1645442841.671875,P18,D01,1,1,1
53,-0.4,1645442841.6875,P18,D01,1,1,1
54,5.54,1645442841.703125,P18,D01,1,1,1
55,11.06,1645442841.71875,P18,D01,1,1,1
56,15.5,1645442841.734375,P18,D01,1,1,1
57,18.4,1645442841.75,P18,D01,1,1,1
58,19.6,1645442841.765625,P18,D01,1,1,1
59,19.24,1645442841.78125,P18,D01,1,1,1
60,17.67,1645442841.796875,P18,D01,1,1,1
61,15.33,1645442841.8125,P18,D01,1,1,1
62,12.62,1645442841.828125,P18,D01,1,1,1
63,9.88,1645442841.84375,P18,D01,1,1,1
64,7.4,1645442841.859375,P18,D01,1,1,1
65,5.51,1645442841.875,P18,D01,1,1,1
66,4.51,1645442841.890625,P18,D01,1,1,1
67,4.59,1645442841.90625,P18,D01,1,1,1
68,5.69,1645442841.921875,P18,D01,1,1,1
69,7.4,1645442841.9375,P18,D01,1,1,1
70,9.11,1645442841.953125,P18,D01,1,1,1
71,10.23,1645442841.96875,P18,D01,1,1,1
72,10.4,1645442841.984375,P18,D01,1,1,1
73,9.62,1645442842.0,P18,D01,1,1,1
74,8.16,1645442842.015625,P18,D01,1,1,1
75,6.28,1645442842.03125,P18,D01,1,1,1
76,4.09,1645442842.046875,P18,D01,1,1,1
77,1.43,1645442842.0625,P18,D01,1,1,1
78,-1.96,1645442842.078125,P18,D01,1,1,1
79,-6.22,1645442842.09375,P18,D01,1,1,1
80,-11.2,1645442842.109375,P18,D01,1,1,1
81,-16.38,1645442842.125,P18,D01,1,1,1
82,-21.01,1645442842.140625,P18,D01,1,1,1
83,-24.35,1645442842.15625,P18,D01,1,1,1
84,-25.87,1645442842.171875,P18,D01,1,1,1
85,-25.44,1645442842.1875,P18,D01,1,1,1
86,-23.35,1645442842.203125,P18,D01,1,1,1
87,-20.23,1645442842.21875,P18,D01,1,1,1
88,-16.92,1645442842.234375,P18,D01,1,1,1
89,-14.26,1645442842.25,P18,D01,1,1,1
90,-12.83,1645442842.265625,P18,D01,1,1,1
91,-12.82,1645442842.28125,P18,D01,1,1,1
92,-13.95,1645442842.296875,P18,D01,1,1,1
93,-15.59,1645442842.3125,P18,D01,1,1,1
94,-17.08,1645442842.328125,P18,D01,1,1,1
95,-17.88,1645442842.34375,P18,D01,1,1,1
96,-17.83,1645442842.359375,P18,D01,1,1,1
97,-17.04,1645442842.375,P18,D01,1,1,1
98,-15.83,1645442842.390625,P18,D01,1,1,1
99,-14.5,1645442842.40625,P18,D01,1,1,1
100,-13.25,1645442842.421875,P18,D01,1,1,1
101,-12.17,1645442842.4375,P18,D01,1,1,1
102,-11.3,1645442842.453125,P18,D01,1,1,1
103,-10.64,1645442842.46875,P18,D01,1,1,1
104,-10.2,1645442842.484375,P18,D01,1,1,1
105,-9.97,1645442842.5,P18,D01,1,1,1
106,-9.91,1645442842.515625,P18,D01,1,1,1
107,-9.96,1645442842.53125,P18,D01,1,1,1
108,-10.06,1645442842.546875,P18,D01,1,1,1
109,-10.24,1645442842.5625,P18,D01,1,1,1
110,-10.56,1645442842.578125,P18,D01,1,1,1
111,-11.05,1645442842.59375,P18,D01,1,1,1
112,-11.62,1645442842.609375,P18,D01,1,1,1
113,-12.08,1645442842.625,P18,D01,1,1,1
114,-12.13,1645442842.640625,P18,D01,1,1,1
115,-11.62,1645442842.65625,P18,D01,1,1,1
116,-10.61,1645442842.671875,P18,D01,1,1,1
117,-9.47,1645442842.6875,P18,D01,1,1,1
118,-8.78,1645442842.703125,P18,D01,1,1,1
119,-9.08,1645442842.71875,P18,D01,1,1,1
120,-10.61,1645442842.734375,P18,D01,1,1,1
121,-13.15,1645442842.75,P18,D01,1,1,1
122,-16.08,1645442842.765625,P18,D01,1,1,1
123,-18.6,1645442842.78125,P18,D01,1,1,1
124,-20.06,1645442842.796875,P18,D01,1,1,1
125,-20.2,1645442842.8125,P18,D01,1,1,1
126,-19.19,1645442842.828125,P18,D01,1,1,1
127,-17.51,1645442842.84375,P18,D01,1,1,1
128,-15.77,1645442842.859375,P18,D01,1,1,1
129,-14.44,1645442842.875,P18,D01,1,1,1
130,-13.79,1645442842.890625,P18,D01,1,1,1
131,-13.78,1645442842.90625,P18,D01,1,1,1
132,-14.09,1645442842.921875,P18,D01,1,1,1
133,-14.19,1645442842.9375,P18,D01,1,1,1
134,-13.45,1645442842.953125,P18,D01,1,1,1
135,-11.36,1645442842.96875,P18,D01,1,1,1
136,-7.74,1645442842.984375,P18,D01,1,1,1
137,-2.97,1645442843.0,P18,D01,1,1,1
138,2.02,1645442843.015625,P18,D01,1,1,1
139,6.03,1645442843.03125,P18,D01,1,1,1
140,7.93,1645442843.046875,P18,D01,1,1,1
141,7.15,1645442843.0625,P18,D01,1,1,1
142,3.85,1645442843.078125,P18,D01,1,1,1
143,-1.15,1645442843.09375,P18,D01,1,1,1
144,-6.71,1645442843.109375,P18,D01,1,1,1
145,-11.87,1645442843.125,P18,D01,1,1,1
146,-16.18,1645442843.140625,P18,D01,1,1,1
147,-19.87,1645442843.15625,P18,D01,1,1,1
148,-23.61,1645442843.171875,P18,D01,1,1,1
149,-28.17,1645442843.1875,P18,D01,1,1,1
150,-33.92,1645442843.203125,P18,D01,1,1,1
151,-40.62,1645442843.21875,P18,D01,1,1,1
152,-47.47,1645442843.234375,P18,D01,1,1,1
153,-53.48,1645442843.25,P18,D01,1,1,1
154,-57.95,1645442843.265625,P18,D01,1,1,1
155,-60.81,1645442843.28125,P18,D01,1,1,1
156,-62.61,1645442843.296875,P18,D01,1,1,1
157,-64.38,1645442843.3125,P18,D01,1,1,1
158,-67.24,1645442843.328125,P18,D01,1,1,1
159,-72.15,1645442843.34375,P18,D01,1,1,1
160,-79.65,1645442843.359375,P18,D01,1,1,1
161,-89.54,1645442843.375,P18,D01,1,1,1
162,-100.41,1645442843.390625,P18,D01,1,1,1
163,-109.33,1645442843.40625,P18,D01,1,1,1
164,-112.18,1645442843.421875,P18,D01,1,1,1
165,-104.81,1645442843.4375,P18,D01,1,1,1
166,-84.78,1645442843.453125,P18,D01,1,1,1
167,-52.88,1645442843.46875,P18,D01,1,1,1
168,-13.4,1645442843.484375,P18,D01,1,1,1
169,27.04,1645442843.5,P18,D01,1,1,1
170,61.94,1645442843.515625,P18,D01,1,1,1
171,87.13,1645442843.53125,P18,D01,1,1,1
172,101.85,1645442843.546875,P18,D01,1,1,1
173,108.22,1645442843.5625,P18,D01,1,1,1
174,109.51,1645442843.578125,P18,D01,1,1,1
175,108.43,1645442843.59375,P18,D01,1,1,1
176,106.25,1645442843.609375,P18,D01,1,1,1
177,103.11,1645442843.625,P18,D01,1,1,1
178,98.87,1645442843.640625,P18,D01,1,1,1
179,93.84,1645442843.65625,P18,D01,1,1,1
180,88.87,1645442843.671875,P18,D01,1,1,1
181,84.87,1645442843.6875,P18,D01,1,1,1
182,82.21,1645442843.703125,P18,D01,1,1,1
183,80.47,1645442843.71875,P18,D01,1,1,1
184,78.66,1645442843.734375,P18,D01,1,1,1
185,75.76,1645442843.75,P18,D01,1,1,1
186,71.28,1645442843.765625,P18,D01,1,1,1
187,65.49,1645442843.78125,P18,D01,1,1,1
188,59.32,1645442843.796875,P18,D01,1,1,1
189,53.97,1645442843.8125,P18,D01,1,1,1
190,50.32,1645442843.828125,P18,D01,1,1,1
191,48.55,1645442843.84375,P18,D01,1,1,1
192,48.06,1645442843.859375,P18,D01,1,1,1
193,47.7,1645442843.875,P18,D01,1,1,1
194,46.31,1645442843.890625,P18,D01,1,1,1
195,43.19,1645442843.90625,P18,D01,1,1,1
196,38.42,1645442843.921875,P18,D01,1,1,1
197,32.79,1645442843.9375,P18,D01,1,1,1
198,27.45,1645442843.953125,P18,D01,1,1,1
199,23.41,1645442843.96875,P18,D01,1,1,1
200,21.19,1645442843.984375,P18,D01,1,1,1
201,20.64,1645442844.0,P18,D01,1,1,1
202,21.13,1645442844.015625,P18,D01,1,1,1
203,21.8,1645442844.03125,P18,D01,1,1,1
204,22.0,1645442844.046875,P18,D01,1,1,1
205,21.53,1645442844.0625,P18,D01,1,1,1
206,20.71,1645442844.078125,P18,D01,1,1,1
207,20.22,1645442844.09375,P18,D01,1,1,1
208,20.8,1645442844.109375,P18,D01,1,1,1
209,22.89,1645442844.125,P18,D01,1,1,1
210,26.43,1645442844.140625,P18,D01,1,1,1
211,30.83,1645442844.15625,P18,D01,1,1,1
212,35.24,1645442844.171875,P18,D01,1,1,1
213,38.81,1645442844.1875,P18,D01,1,1,1
214,40.95,1645442844.203125,P18,D01,1,1,1
215,41.41,1645442844.21875,P18,D01,1,1,1
216,40.2,1645442844.234375,P18,D01,1,1,1
217,37.51,1645442844.25,P18,D01,1,1,1
218,33.65,1645442844.265625,P18,D01,1,1,1
219,29.0,1645442844.28125,P18,D01,1,1,1
220,24.03,1645442844.296875,P18,D01,1,1,1
221,19.19,1645442844.3125,P18,D01,1,1,1
222,14.67,1645442844.328125,P18,D01,1,1,1
223,10.13,1645442844.34375,P18,D01,1,1,1
224,4.67,1645442844.359375,P18,D01,1,1,1
225,-2.93,1645442844.375,P18,D01,1,1,1
226,-13.51,1645442844.390625,P18,D01,1,1,1
227,-26.97,1645442844.40625,P18,D01,1,1,1
228,-42.03,1645442844.421875,P18,D01,1,1,1
229,-56.63,1645442844.4375,P18,D01,1,1,1
230,-68.75,1645442844.453125,P18,D01,1,1,1
231,-77.21,1645442844.46875,P18,D01,1,1,1
232,-82.01,1645442844.484375,P18,D01,1,1,1
233,-83.95,1645442844.5,P18,D01,1,1,1
234,-83.99,1645442844.515625,P18,D01,1,1,1
235,-82.55,1645442844.53125,P18,D01,1,1,1
236,-79.42,1645442844.546875,P18,D01,1,1,1
237,-74.16,1645442844.5625,P18,D01,1,1,1
238,-66.74,1645442844.578125,P18,D01,1,1,1
239,-57.92,1645442844.59375,P18,D01,1,1,1
240,-49.04,1645442844.609375,P18,D01,1,1,1
241,-41.47,1645442844.625,P18,D01,1,1,1
242,-35.89,1645442844.640625,P18,D01,1,1,1
243,-32.04,1645442844.65625,P18,D01,1,1,1
244,-29.02,1645442844.671875,P18,D01,1,1,1
245,-25.81,1645442844.6875,P18,D01,1,1,1
246,-21.8,1645442844.703125,P18,D01,1,1,1
247,-16.99,1645442844.71875,P18,D01,1,1,1
248,-11.84,1645442844.734375,P18,D01,1,1,1
249,-6.89,1645442844.75,P18,D01,1,1,1
250,-2.51,1645442844.765625,P18,D01,1,1,1
251,1.23,1645442844.78125,P18,D01,1,1,1
252,4.41,1645442844.796875,P18,D01,1,1,1
253,7.15,1645442844.8125,P18,D01,1,1,1
254,9.51,1645442844.828125,P18,D01,1,1,1
255,11.51,1645442844.84375,P18,D01,1,1,1
256,13.13,1645442844.859375,P18,D01,1,1,1
257,14.42,1645442844.875,P18,D01,1,1,1
258,15.42,1645442844.890625,P18,D01,1,1,1
259,16.12,1645442844.90625,P18,D01,1,1,1
260,16.46,1645442844.921875,P18,D01,1,1,1
261,16.33,1645442844.9375,P18,D01,1,1,1
262,15.7,1645442844.953125,P18,D01,1,1,1
263,14.64,1645442844.96875,P18,D01,1,1,1
264,13.35,1645442844.984375,P18,D01,1,1,1
265,12.05,1645442845.0,P18,D01,1,1,1
266,10.89,1645442845.015625,P18,D01,1,1,1
267,9.87,1645442845.03125,P18,D01,1,1,1
268,8.9,1645442845.046875,P18,D01,1,1,1
269,7.83,1645442845.0625,P18,D01,1,1,1
270,6.5,1645442845.078125,P18,D01,1,1,1
271,4.83,1645442845.09375,P18,D01,1,1,1
272,2.82,1645442845.109375,P18,D01,1,1,1
273,0.51,1645442845.125,P18,D01,1,1,1
274,-1.99,1645442845.140625,P18,D01,1,1,1
275,-4.59,1645442845.15625,P18,D01,1,1,1
276,-7.15,1645442845.171875,P18,D01,1,1,1
277,-9.58,1645442845.1875,P18,D01,1,1,1
278,-11.79,1645442845.203125,P18,D01,1,1,1
279,-13.72,1645442845.21875,P18,D01,1,1,1
280,-15.39,1645442845.234375,P18,D01,1,1,1
281,-16.84,1645442845.25,P18,D01,1,1,1
282,-18.19,1645442845.265625,P18,D01,1,1,1
283,-19.55,1645442845.28125,P18,D01,1,1,1
284,-20.98,1645442845.296875,P18,D01,1,1,1
285,-22.35,1645442845.3125,P18,D01,1,1,1
286,-23.4,1645442845.328125,P18,D01,1,1,1
287,-23.8,1645442845.34375,P18,D01,1,1,1
288,-23.37,1645442845.359375,P18,D01,1,1,1
289,-22.2,1645442845.375,P18,D01,1,1,1
290,-20.68,1645442845.390625,P18,D01,1,1,1
291,-19.34,1645442845.40625,P18,D01,1,1,1
292,-18.62,1645442845.421875,P18,D01,1,1,1
293,-18.65,1645442845.4375,P18,D01,1,1,1
294,-19.17,1645442845.453125,P18,D01,1,1,1
295,-19.67,1645442845.46875,P18,D01,1,1,1
296,-19.61,1645442845.484375,P18,D01,1,1,1
297,-18.63,1645442845.5,P18,D01,1,1,1
298,-16.69,1645442845.515625,P18,D01,1,1,1
299,-14.07,1645442845.53125,P18,D01,1,1,1
300,-11.27,1645442845.546875,P18,D01,1,1,1
301,-8.83,1645442845.5625,P18,D01,1,1,1
302,-7.15,1645442845.578125,P18,D01,1,1,1
303,-6.3,1645442845.59375,P18,D01,1,1,1
304,-5.98,1645442845.609375,P18,D01,1,1,1
305,-5.47,1645442845.625,P18,D01,1,1,1
306,-3.89,1645442845.640625,P18,D01,1,1,1
307,-0.47,1645442845.65625,P18,D01,1,1,1
308,5.12,1645442845.671875,P18,D01,1,1,1
309,12.55,1645442845.6875,P18,D01,1,1,1
310,20.9,1645442845.703125,P18,D01,1,1,1
311,28.92,1645442845.71875,P18,D01,1,1,1
312,35.39,1645442845.734375,P18,D01,1,1,1
313,39.55,1645442845.75,P18,D01,1,1,1
314,41.2,1645442845.765625,P18,D01,1,1,1
315,40.71,1645442845.78125,P18,D01,1,1,1
316,38.76,1645442845.796875,P18,D01,1,1,1
317,36.1,1645442845.8125,P18,D01,1,1,1
318,33.31,1645442845.828125,P18,D01,1,1,1
319,30.71,1645442845.84375,P18,D01,1,1,1
320,28.44,1645442845.859375,P18,D01,1,1,1
321,26.51,1645442845.875,P18,D01,1,1,1
322,24.92,1645442845.890625,P18,D01,1,1,1
323,23.66,1645442845.90625,P18,D01,1,1,1
324,22.67,1645442845.921875,P18,D01,1,1,1
325,21.82,1645442845.9375,P18,D01,1,1,1
326,20.89,1645442845.953125,P18,D01,1,1,1
327,19.71,1645442845.96875,P18,D01,1,1,1
328,18.18,1645442845.984375,P18,D01,1,1,1
329,16.37,1645442846.0,P18,D01,1,1,1
330,14.51,1645442846.015625,P18,D01,1,1,1
331,12.85,1645442846.03125,P18,D01,1,1,1
332,11.6,1645442846.046875,P18,D01,1,1,1
333,10.79,1645442846.0625,P18,D01,1,1,1
334,10.25,1645442846.078125,P18,D01,1,1,1
335,9.7,1645442846.09375,P18,D01,1,1,1
336,8.9,1645442846.109375,P18,D01,1,1,1
337,7.76,1645442846.125,P18,D01,1,1,1
338,6.4,1645442846.140625,P18,D01,1,1,1
339,5.06,1645442846.15625,P18,D01,1,1,1
340,3.97,1645442846.171875,P18,D01,1,1,1
341,3.25,1645442846.1875,P18,D01,1,1,1
342,2.89,1645442846.203125,P18,D01,1,1,1
343,2.75,1645442846.21875,P18,D01,1,1,1
344,2.68,1645442846.234375,P18,D01,1,1,1
345,2.54,1645442846.25,P18,D01,1,1,1
346,2.24,1645442846.265625,P18,D01,1,1,1
347,1.75,1645442846.28125,P18,D01,1,1,1
348,1.06,1645442846.296875,P18,D01,1,1,1
349,0.25,1645442846.3125,P18,D01,1,1,1
350,-0.49,1645442846.328125,P18,D01,1,1,1
351,-0.95,1645442846.34375,P18,D01,1,1,1
352,-0.97,1645442846.359375,P18,D01,1,1,1
353,-0.53,1645442846.375,P18,D01,1,1,1
354,0.21,1645442846.390625,P18,D01,1,1,1
355,0.97,1645442846.40625,P18,D01,1,1,1
356,1.5,1645442846.421875,P18,D01,1,1,1
357,1.69,1645442846.4375,P18,D01,1,1,1
358,1.6,1645442846.453125,P18,D01,1,1,1
359,1.36,1645442846.46875,P18,D01,1,1,1
360,1.1,1645442846.484375,P18,D01,1,1,1
361,0.86,1645442846.5,P18,D01,1,1,1
362,0.63,1645442846.515625,P18,D01,1,1,1
363,0.44,1645442846.53125,P18,D01,1,1,1
364,0.32,1645442846.546875,P18,D01,1,1,1
365,0.35,1645442846.5625,P18,D01,1,1,1
366,0.55,1645442846.578125,P18,D01,1,1,1
367,0.88,1645442846.59375,P18,D01,1,1,1
368,1.22,1645442846.609375,P18,D01,1,1,1
369,1.44,1645442846.625,P18,D01,1,1,1
370,1.46,1645442846.640625,P18,D01,1,1,1
371,1.26,1645442846.65625,P18,D01,1,1,1
372,0.86,1645442846.671875,P18,D01,1,1,1
373,0.33,1645442846.6875,P18,D01,1,1,1
374,-0.26,1645442846.703125,P18,D01,1,1,1
375,-0.82,1645442846.71875,P18,D01,1,1,1
376,-1.21,1645442846.734375,P18,D01,1,1,1
377,-1.35,1645442846.75,P18,D01,1,1,1
378,-1.22,1645442846.765625,P18,D01,1,1,1
379,-0.94,1645442846.78125,P18,D01,1,1,1
380,-0.72,1645442846.796875,P18,D01,1,1,1
381,-0.8,1645442846.8125,P18,D01,1,1,1
382,-1.3,1645442846.828125,P18,D01,1,1,1
383,-2.16,1645442846.84375,P18,D01,1,1,1
384,-3.16,1645442846.859375,P18,D01,1,1,1
385,-3.98,1645442846.875,P18,D01,1,1,1
386,-4.36,1645442846.890625,P18,D01,1,1,1
387,-4.18,1645442846.90625,P18,D01,1,1,1
388,-3.49,1645442846.921875,P18,D01,1,1,1
389,-2.49,1645442846.9375,P18,D01,1,1,1
390,-1.44,1645442846.953125,P18,D01,1,1,1
391,-0.59,1645442846.96875,P18,D01,1,1,1
392,-0.05,1645442846.984375,P18,D01,1,1,1
393,0.13,1645442847.0,P18,D01,1,1,1
394,0.02,1645442847.015625,P18,D01,1,1,1
395,-0.29,1645442847.03125,P18,D01,1,1,1
396,-0.66,1645442847.046875,P18,D01,1,1,1
397,-1.03,1645442847.0625,P18,D01,1,1,1
398,-1.32,1645442847.078125,P18,D01,1,1,1
399,-1.5,1645442847.09375,P18,D01,1,1,1
400,-1.54,1645442847.109375,P18,D01,1,1,1
401,-1.46,1645442847.125,P18,D01,1,1,1
402,-1.3,1645442847.140625,P18,D01,1,1,1
403,-1.14,1645442847.15625,P18,D01,1,1,1
404,-1.06,1645442847.171875,P18,D01,1,1,1
405,-1.08,1645442847.1875,P18,D01,1,1,1
406,-1.19,1645442847.203125,P18,D01,1,1,1
407,-1.28,1645442847.21875,P18,D01,1,1,1
408,-1.28,1645442847.234375,P18,D01,1,1,1
409,-1.14,1645442847.25,P18,D01,1,1,1
410,-0.88,1645442847.265625,P18,D01,1,1,1
411,-0.59,1645442847.28125,P18,D01,1,1,1
412,-0.33,1645442847.296875,P18,D01,1,1,1
413,-0.13,1645442847.3125,P18,D01,1,1,1
414,0.04,1645442847.328125,P18,D01,1,1,1
415,0.19,1645442847.34375,P18,D01,1,1,1
416,0.33,1645442847.359375,P18,D01,1,1,1
417,0.46,1645442847.375,P18,D01,1,1,1
418,0.54,1645442847.390625,P18,D01,1,1,1
419,0.6,1645442847.40625,P18,D01,1,1,1
420,0.7,1645442847.421875,P18,D01,1,1,1
421,0.89,1645442847.4375,P18,D01,1,1,1
422,1.17,1645442847.453125,P18,D01,1,1,1
423,1.48,1645442847.46875,P18,D01,1,1,1
424,1.7,1645442847.484375,P18,D01,1,1,1
425,1.77,1645442847.5,P18,D01,1,1,1
426,1.68,1645442847.515625,P18,D01,1,1,1
427,1.54,1645442847.53125,P18,D01,1,1,1
428,1.47,1645442847.546875,P18,D01,1,1,1
429,1.56,1645442847.5625,P18,D01,1,1,1
430,1.78,1645442847.578125,P18,D01,1,1,1
431,1.99,1645442847.59375,P18,D01,1,1,1
432,2.05,1645442847.609375,P18,D01,1,1,1
433,1.85,1645442847.625,P18,D01,1,1,1
434,1.41,1645442847.640625,P18,D01,1,1,1
435,0.86,1645442847.65625,P18,D01,1,1,1
436,0.36,1645442847.671875,P18,D01,1,1,1
437,0.03,1645442847.6875,P18,D01,1,1,1
438,-0.12,1645442847.703125,P18,D01,1,1,1
439,-0.17,1645442847.71875,P18,D01,1,1,1
440,-0.19,1645442847.734375,P18,D01,1,1,1
441,-0.23,1645442847.75,P18,D01,1,1,1
442,-0.26,1645442847.765625,P18,D01,1,1,1
443,-0.22,1645442847.78125,P18,D01,1,1,1
444,-0.05,1645442847.796875,P18,D01,1,1,1
445,0.26,1645442847.8125,P18,D01,1,1,1
446,0.63,1645442847.828125,P18,D01,1,1,1
447,0.96,1645442847.84375,P18,D01,1,1,1
448,1.18,1645442847.859375,P18,D01,1,1,1
449,1.24,1645442847.875,P18,D01,1,1,1
450,1.19,1645442847.890625,P18,D01,1,1,1
451,1.07,1645442847.90625,P18,D01,1,1,1
452,0.96,1645442847.921875,P18,D01,1,1,1
453,0.93,1645442847.9375,P18,D01,1,1,1
454,1.05,1645442847.953125,P18,D01,1,1,1
455,1.38,1645442847.96875,P18,D01,1,1,1
456,1.94,1645442847.984375,P18,D01,1,1,1
457,2.71,1645442848.0,P18,D01,1,1,1
458,3.59,1645442848.015625,P18,D01,1,1,1
459,4.44,1645442848.03125,P18,D01,1,1,1
460,5.16,1645442848.046875,P18,D01,1,1,1
461,5.68,1645442848.0625,P18,D01,1,1,1
462,5.98,1645442848.078125,P18,D01,1,1,1
463,6.15,1645442848.09375,P18,D01,1,1,1
464,6.25,1645442848.109375,P18,D01,1,1,1
465,6.37,1645442848.125,P18,D01,1,1,1
466,6.6,1645442848.140625,P18,D01,1,1,1
467,7.02,1645442848.15625,P18,D01,1,1,1
468,7.65,1645442848.171875,P18,D01,1,1,1
469,8.38,1645442848.1875,P18,D01,1,1,1
470,8.88,1645442848.203125,P18,D01,1,1,1
471,8.71,1645442848.21875,P18,D01,1,1,1
472,7.52,1645442848.234375,P18,D01,1,1,1
473,5.21,1645442848.25,P18,D01,1,1,1
474,2.03,1645442848.265625,P18,D01,1,1,1
475,-1.44,1645442848.28125,P18,D01,1,1,1
476,-4.56,1645442848.296875,P18,D01,1,1,1
477,-6.91,1645442848.3125,P18,D01,1,1,1
478,-8.39,1645442848.328125,P18,D01,1,1,1
479,-9.19,1645442848.34375,P18,D01,1,1,1
480,-9.6,1645442848.359375,P18,D01,1,1,1
481,-9.79,1645442848.375,P18,D01,1,1,1
482,-9.75,1645442848.390625,P18,D01,1,1,1
483,-9.37,1645442848.40625,P18,D01,1,1,1
484,-8.63,1645442848.421875,P18,D01,1,1,1
485,-7.66,1645442848.4375,P18,D01,1,1,1
486,-6.72,1645442848.453125,P18,D01,1,1,1
487,-6.06,1645442848.46875,P18,D01,1,1,1
488,-5.77,1645442848.484375,P18,D01,1,1,1
489,-5.74,1645442848.5,P18,D01,1,1,1
490,-5.72,1645442848.515625,P18,D01,1,1,1
491,-5.5,1645442848.53125,P18,D01,1,1,1
492,-4.93,1645442848.546875,P18,D01,1,1,1
493,-4.07,1645442848.5625,P18,D01,1,1,1
494,-3.08,1645442848.578125,P18,D01,1,1,1
495,-2.19,1645442848.59375,P18,D01,1,1,1
496,-1.55,1645442848.609375,P18,D01,1,1,1
497,-1.24,1645442848.625,P18,D01,1,1,1
498,-1.2,1645442848.640625,P18,D01,1,1,1
499,-1.29,1645442848.65625,P18,D01,1,1,1
500,-1.33,1645442848.671875,P18,D01,1,1,1
501,-1.19,1645442848.6875,P18,D01,1,1,1
502,-0.84,1645442848.703125,P18,D01,1,1,1
503,-0.36,1645442848.71875,P18,D01,1,1,1
504,0.09,1645442848.734375,P18,D01,1,1,1
505,0.38,1645442848.75,P18,D01,1,1,1
506,0.44,1645442848.765625,P18,D01,1,1,1
507,0.31,1645442848.78125,P18,D01,1,1,1
508,0.13,1645442848.796875,P18,D01,1,1,1
509,-0.0,1645442848.8125,P18,D01,1,1,1
510,-0.02,1645442848.828125,P18,D01,1,1,1
511,0.06,1645442848.84375,P18,D01,1,1,1
512,0.2,1645442848.859375,P18,D01,1,1,1
513,0.34,1645442848.875,P18,D01,1,1,1
514,0.47,1645442848.890625,P18,D01,1,1,1
515,0.57,1645442848.90625,P18,D01,1,1,1
516,0.64,1645442848.921875,P18,D01,1,1,1
517,0.65,1645442848.9375,P18,D01,1,1,1
518,0.6,1645442848.953125,P18,D01,1,1,1
519,0.48,1645442848.96875,P18,D01,1,1,1
520,0.35,1645442848.984375,P18,D01,1,1,1
521,0.24,1645442849.0,P18,D01,1,1,1
522,0.15,1645442849.015625,P18,D01,1,1,1
523,0.1,1645442849.03125,P18,D01,1,1,1
524,0.1,1645442849.046875,P18,D01,1,1,1
525,0.17,1645442849.0625,P18,D01,1,1,1
526,0.35,1645442849.078125,P18,D01,1,1,1
527,0.66,1645442849.09375,P18,D01,1,1,1
528,1.07,1645442849.109375,P18,D01,1,1,1
529,1.49,1645442849.125,P18,D01,1,1,1
530,1.8,1645442849.140625,P18,D01,1,1,1
531,1.92,1645442849.15625,P18,D01,1,1,1
532,1.82,1645442849.171875,P18,D01,1,1,1
533,1.57,1645442849.1875,P18,D01,1,1,1
534,1.25,1645442849.203125,P18,D01,1,1,1
535,0.95,1645442849.21875,P18,D01,1,1,1
536,0.72,1645442849.234375,P18,D01,1,1,1
537,0.62,1645442849.25,P18,D01,1,1,1
538,0.68,1645442849.265625,P18,D01,1,1,1
539,0.91,1645442849.28125,P18,D01,1,1,1
540,1.27,1645442849.296875,P18,D01,1,1,1
541,1.7,1645442849.3125,P18,D01,1,1,1
542,2.08,1645442849.328125,P18,D01,1,1,1
543,2.31,1645442849.34375,P18,D01,1,1,1
544,2.32,1645442849.359375,P18,D01,1,1,1
545,2.16,1645442849.375,P18,D01,1,1,1
546,1.93,1645442849.390625,P18,D01,1,1,1
547,1.82,1645442849.40625,P18,D01,1,1,1
548,1.91,1645442849.421875,P18,D01,1,1,1
549,2.28,1645442849.4375,P18,D01,1,1,1
550,2.83,1645442849.453125,P18,D01,1,1,1
551,3.39,1645442849.46875,P18,D01,1,1,1
552,3.75,1645442849.484375,P18,D01,1,1,1
553,3.69,1645442849.5,P18,D01,1,1,1
554,3.06,1645442849.515625,P18,D01,1,1,1
555,1.84,1645442849.53125,P18,D01,1,1,1
556,0.15,1645442849.546875,P18,D01,1,1,1
557,-1.78,1645442849.5625,P18,D01,1,1,1
558,-3.64,1645442849.578125,P18,D01,1,1,1
559,-5.15,1645442849.59375,P18,D01,1,1,1
560,-6.13,1645442849.609375,P18,D01,1,1,1
561,-6.52,1645442849.625,P18,D01,1,1,1
562,-6.41,1645442849.640625,P18,D01,1,1,1
563,-5.95,1645442849.65625,P18,D01,1,1,1
564,-5.35,1645442849.671875,P18,D01,1,1,1
565,-4.8,1645442849.6875,P18,D01,1,1,1
566,-4.41,1645442849.703125,P18,D01,1,1,1
567,-4.2,1645442849.71875,P18,D01,1,1,1
568,-4.14,1645442849.734375,P18,D01,1,1,1
569,-4.17,1645442849.75,P18,D01,1,1,1
570,-4.21,1645442849.765625,P18,D01,1,1,1
571,-4.25,1645442849.78125,P18,D01,1,1,1
572,-4.26,1645442849.796875,P18,D01,1,1,1
573,-4.21,1645442849.8125,P18,D01,1,1,1
574,-4.04,1645442849.828125,P18,D01,1,1,1
575,-3.69,1645442849.84375,P18,D01,1,1,1
576,-3.12,1645442849.859375,P18,D01,1,1,1
577,-2.38,1645442849.875,P18,D01,1,1,1
578,-1.56,1645442849.890625,P18,D01,1,1,1
579,-0.78,1645442849.90625,P18,D01,1,1,1
580,-0.14,1645442849.921875,P18,D01,1,1,1
581,0.36,1645442849.9375,P18,D01,1,1,1
582,0.76,1645442849.953125,P18,D01,1,1,1
583,1.12,1645442849.96875,P18,D01,1,1,1
584,1.44,1645442849.984375,P18,D01,1,1,1
585,1.64,1645442850.0,P18,D01,1,1,1
586,1.66,1645442850.015625,P18,D01,1,1,1
587,1.48,1645442850.03125,P18,D01,1,1,1
588,1.17,1645442850.046875,P18,D01,1,1,1
589,0.86,1645442850.0625,P18,D01,1,1,1
590,0.7,1645442850.078125,P18,D01,1,1,1
591,0.79,1645442850.09375,P18,D01,1,1,1
592,1.09,1645442850.109375,P18,D01,1,1,1
593,1.48,1645442850.125,P18,D01,1,1,1
594,1.83,1645442850.140625,P18,D01,1,1,1
595,2.01,1645442850.15625,P18,D01,1,1,1
596,2.02,1645442850.171875,P18,D01,1,1,1
597,1.89,1645442850.1875,P18,D01,1,1,1
598,1.71,1645442850.203125,P18,D01,1,1,1
599,1.55,1645442850.21875,P18,D01,1,1,1
600,1.43,1645442850.234375,P18,D01,1,1,1
601,1.34,1645442850.25,P18,D01,1,1,1
602,1.24,1645442850.265625,P18,D01,1,1,1
603,1.16,1645442850.28125,P18,D01,1,1,1
604,1.12,1645442850.296875,P18,D01,1,1,1
605,1.18,1645442850.3125,P18,D01,1,1,1
606,1.38,1645442850.328125,P18,D01,1,1,1
607,1.71,1645442850.34375,P18,D01,1,1,1
608,2.12,1645442850.359375,P18,D01,1,1,1
609,2.52,1645442850.375,P18,D01,1,1,1
610,2.8,1645442850.390625,P18,D01,1,1,1
611,2.92,1645442850.40625,P18,D01,1,1,1
612,2.87,1645442850.421875,P18,D01,1,1,1
613,2.7,1645442850.4375,P18,D01,1,1,1
614,2.5,1645442850.453125,P18,D01,1,1,1
615,2.34,1645442850.46875,P18,D01,1,1,1
616,2.28,1645442850.484375,P18,D01,1,1,1
617,2.31,1645442850.5,P18,D01,1,1,1
618,2.4,1645442850.515625,P18,D01,1,1,1
619,2.48,1645442850.53125,P18,D01,1,1,1
620,2.49,1645442850.546875,P18,D01,1,1,1
621,2.42,1645442850.5625,P18,D01,1,1,1
622,2.29,1645442850.578125,P18,D01,1,1,1
623,2.17,1645442850.59375,P18,D01,1,1,1
624,2.15,1645442850.609375,P18,D01,1,1,1
625,2.28,1645442850.625,P18,D01,1,1,1
626,2.54,1645442850.640625,P18,D01,1,1,1
627,2.85,1645442850.65625,P18,D01,1,1,1
628,3.11,1645442850.671875,P18,D01,1,1,1
629,3.21,1645442850.6875,P18,D01,1,1,1
630,3.08,1645442850.703125,P18,D01,1,1,1
631,2.62,1645442850.71875,P18,D01,1,1,1
632,1.74,1645442850.734375,P18,D01,1,1,1
633,0.41,1645442850.75,P18,D01,1,1,1
634,-1.31,1645442850.765625,P18,D01,1,1,1
635,-3.24,1645442850.78125,P18,D01,1,1,1
636,-5.07,1645442850.796875,P18,D01,1,1,1
637,-6.5,1645442850.8125,P18,D01,1,1,1
638,-7.33,1645442850.828125,P18,D01,1,1,1
639,-7.61,1645442850.84375,P18,D01,1,1,1
640,-7.55,1645442850.859375,P18,D01,1,1,1
641,-7.41,1645442850.875,P18,D01,1,1,1
642,-7.41,1645442850.890625,P18,D01,1,1,1
643,-7.54,1645442850.90625,P18,D01,1,1,1
644,-7.69,1645442850.921875,P18,D01,1,1,1
645,-7.72,1645442850.9375,P18,D01,1,1,1
646,-7.54,1645442850.953125,P18,D01,1,1,1
647,-7.18,1645442850.96875,P18,D01,1,1,1
648,-6.72,1645442850.984375,P18,D01,1,1,1
649,-6.22,1645442851.0,P18,D01,1,1,1
650,-5.71,1645442851.015625,P18,D01,1,1,1
651,-5.22,1645442851.03125,P18,D01,1,1,1
652,-4.75,1645442851.046875,P18,D01,1,1,1
653,-4.35,1645442851.0625,P18,D01,1,1,1
654,-4.08,1645442851.078125,P18,D01,1,1,1
655,-3.94,1645442851.09375,P18,D01,1,1,1
656,-3.85,1645442851.109375,P18,D01,1,1,1
657,-3.7,1645442851.125,P18,D01,1,1,1
658,-3.4,1645442851.140625,P18,D01,1,1,1
659,-2.93,1645442851.15625,P18,D01,1,1,1
660,-2.37,1645442851.171875,P18,D01,1,1,1
661,-1.81,1645442851.1875,P18,D01,1,1,1
662,-1.37,1645442851.203125,P18,D01,1,1,1
663,-1.1,1645442851.21875,P18,D01,1,1,1
664,-0.96,1645442851.234375,P18,D01,1,1,1
665,-0.87,1645442851.25,P18,D01,1,1,1
666,-0.7,1645442851.265625,P18,D01,1,1,1
667,-0.34,1645442851.28125,P18,D01,1,1,1
668,0.29,1645442851.296875,P18,D01,1,1,1
669,1.17,1645442851.3125,P18,D01,1,1,1
670,2.2,1645442851.328125,P18,D01,1,1,1
671,3.2,1645442851.34375,P18,D01,1,1,1
672,3.96,1645442851.359375,P18,D01,1,1,1
673,4.34,1645442851.375,P18,D01,1,1,1
674,4.32,1645442851.390625,P18,D01,1,1,1
675,4.02,1645442851.40625,P18,D01,1,1,1
676,3.64,1645442851.421875,P18,D01,1,1,1
677,3.36,1645442851.4375,P18,D01,1,1,1
678,3.29,1645442851.453125,P18,D01,1,1,1
679,3.42,1645442851.46875,P18,D01,1,1,1
680,3.65,1645442851.484375,P18,D01,1,1,1
681,3.87,1645442851.5,P18,D01,1,1,1
682,3.99,1645442851.515625,P18,D01,1,1,1
683,3.97,1645442851.53125,P18,D01,1,1,1
684,3.84,1645442851.546875,P18,D01,1,1,1
685,3.65,1645442851.5625,P18,D01,1,1,1
686,3.45,1645442851.578125,P18,D01,1,1,1
687,3.3,1645442851.59375,P18,D01,1,1,1
688,3.21,1645442851.609375,P18,D01,1,1,1
689,3.18,1645442851.625,P18,D01,1,1,1
690,3.19,1645442851.640625,P18,D01,1,1,1
691,3.18,1645442851.65625,P18,D01,1,1,1
692,3.09,1645442851.671875,P18,D01,1,1,1
693,2.9,1645442851.6875,P18,D01,1,1,1
694,2.6,1645442851.703125,P18,D01,1,1,1
695,2.24,1645442851.71875,P18,D01,1,1,1
696,1.86,1645442851.734375,P18,D01,1,1,1
697,1.51,1645442851.75,P18,D01,1,1,1
698,1.19,1645442851.765625,P18,D01,1,1,1
699,0.9,1645442851.78125,P18,D01,1,1,1
700,0.6,1645442851.796875,P18,D01,1,1,1
701,0.29,1645442851.8125,P18,D01,1,1,1
702,-0.05,1645442851.828125,P18,D01,1,1,1
703,-0.41,1645442851.84375,P18,D01,1,1,1
704,-0.8,1645442851.859375,P18,D01,1,1,1
705,-1.26,1645442851.875,P18,D01,1,1,1
706,-1.78,1645442851.890625,P18,D01,1,1,1
707,-2.33,1645442851.90625,P18,D01,1,1,1
708,-2.8,1645442851.921875,P18,D01,1,1,1
709,-3.08,1645442851.9375,P18,D01,1,1,1
710,-3.1,1645442851.953125,P18,D01,1,1,1
711,-2.88,1645442851.96875,P18,D01,1,1,1
712,-2.52,1645442851.984375,P18,D01,1,1,1
713,-2.14,1645442852.0,P18,D01,1,1,1
714,-1.81,1645442852.015625,P18,D01,1,1,1
715,-1.52,1645442852.03125,P18,D01,1,1,1
716,-1.24,1645442852.046875,P18,D01,1,1,1
717,-0.94,1645442852.0625,P18,D01,1,1,1
718,-0.69,1645442852.078125,P18,D01,1,1,1
719,-0.54,1645442852.09375,P18,D01,1,1,1
720,-0.53,1645442852.109375,P18,D01,1,1,1
721,-0.62,1645442852.125,P18,D01,1,1,1
722,-0.72,1645442852.140625,P18,D01,1,1,1
723,-0.74,1645442852.15625,P18,D01,1,1,1
724,-0.66,1645442852.171875,P18,D01,1,1,1
725,-0.55,1645442852.1875,P18,D01,1,1,1
726,-0.48,1645442852.203125,P18,D01,1,1,1
727,-0.52,1645442852.21875,P18,D01,1,1,1
728,-0.6,1645442852.234375,P18,D01,1,1,1
729,-0.66,1645442852.25,P18,D01,1,1,1
730,-0.61,1645442852.265625,P18,D01,1,1,1
731,-0.44,1645442852.28125,P18,D01,1,1,1
732,-0.18,1645442852.296875,P18,D01,1,1,1
733,0.08,1645442852.3125,P18,D01,1,1,1
734,0.31,1645442852.328125,P18,D01,1,1,1
735,0.45,1645442852.34375,P18,D01,1,1,1
736,0.48,1645442852.359375,P18,D01,1,1,1
737,0.38,1645442852.375,P18,D01,1,1,1
738,0.15,1645442852.390625,P18,D01,1,1,1
739,-0.16,1645442852.40625,P18,D01,1,1,1
740,-0.45,1645442852.421875,P18,D01,1,1,1
741,-0.58,1645442852.4375,P18,D01,1,1,1
742,-0.46,1645442852.453125,P18,D01,1,1,1
743,-0.13,1645442852.46875,P18,D01,1,1,1
744,0.32,1645442852.484375,P18,D01,1,1,1
745,0.78,1645442852.5,P18,D01,1,1,1
746,1.13,1645442852.515625,P18,D01,1,1,1
747,1.35,1645442852.53125,P18,D01,1,1,1
748,1.44,1645442852.546875,P18,D01,1,1,1
749,1.43,1645442852.5625,P18,D01,1,1,1
750,1.34,1645442852.578125,P18,D01,1,1,1
751,1.19,1645442852.59375,P18,D01,1,1,1
752,1.0,1645442852.609375,P18,D01,1,1,1
753,0.8,1645442852.625,P18,D01,1,1,1
754,0.6,1645442852.640625,P18,D01,1,1,1
755,0.41,1645442852.65625,P18,D01,1,1,1
756,0.21,1645442852.671875,P18,D01,1,1,1
757,-0.03,1645442852.6875,P18,D01,1,1,1
758,-0.3,1645442852.703125,P18,D01,1,1,1
759,-0.58,1645442852.71875,P18,D01,1,1,1
760,-0.78,1645442852.734375,P18,D01,1,1,1
761,-0.88,1645442852.75,P18,D01,1,1,1
762,-0.85,1645442852.765625,P18,D01,1,1,1
763,-0.73,1645442852.78125,P18,D01,1,1,1
764,-0.57,1645442852.796875,P18,D01,1,1,1
765,-0.42,1645442852.8125,P18,D01,1,1,1
766,-0.31,1645442852.828125,P18,D01,1,1,1
767,-0.23,1645442852.84375,P18,D01,1,1,1
768,-0.18,1645442852.859375,P18,D01,1,1,1
769,-0.13,1645442852.875,P18,D01,1,1,1
770,-0.04,1645442852.890625,P18,D01,1,1,1
771,0.09,1645442852.90625,P18,D01,1,1,1
772,0.25,1645442852.921875,P18,D01,1,1,1
773,0.4,1645442852.9375,P18,D01,1,1,1
774,0.51,1645442852.953125,P18,D01,1,1,1
775,0.56,1645442852.96875,P18,D01,1,1,1
776,0.57,1645442852.984375,P18,D01,1,1,1
777,0.59,1645442853.0,P18,D01,1,1,1
778,0.63,1645442853.015625,P18,D01,1,1,1
779,0.7,1645442853.03125,P18,D01,1,1,1
780,0.74,1645442853.046875,P18,D01,1,1,1
781,0.68,1645442853.0625,P18,D01,1,1,1
782,0.45,1645442853.078125,P18,D01,1,1,1
783,0.03,1645442853.09375,P18,D01,1,1,1
784,-0.54,1645442853.109375,P18,D01,1,1,1
785,-1.13,1645442853.125,P18,D01,1,1,1
786,-1.59,1645442853.140625,P18,D01,1,1,1
787,-1.79,1645442853.15625,P18,D01,1,1,1
788,-1.65,1645442853.171875,P18,D01,1,1,1
789,-1.21,1645442853.1875,P18,D01,1,1,1
790,-0.58,1645442853.203125,P18,D01,1,1,1
791,0.05,1645442853.21875,P18,D01,1,1,1
792,0.52,1645442853.234375,P18,D01,1,1,1
793,0.75,1645442853.25,P18,D01,1,1,1
794,0.75,1645442853.265625,P18,D01,1,1,1
795,0.59,1645442853.28125,P18,D01,1,1,1
796,0.39,1645442853.296875,P18,D01,1,1,1
797,0.2,1645442853.3125,P18,D01,1,1,1
798,0.03,1645442853.328125,P18,D01,1,1,1
799,-0.12,1645442853.34375,P18,D01,1,1,1
800,-0.3,1645442853.359375,P18,D01,1,1,1
801,-0.5,1645442853.375,P18,D01,1,1,1
802,-0.73,1645442853.390625,P18,D01,1,1,1
803,-0.94,1645442853.40625,P18,D01,1,1,1
804,-1.07,1645442853.421875,P18,D01,1,1,1
805,-1.06,1645442853.4375,P18,D01,1,1,1
806,-0.89,1645442853.453125,P18,D01,1,1,1
807,-0.61,1645442853.46875,P18,D01,1,1,1
808,-0.31,1645442853.484375,P18,D01,1,1,1
809,-0.15,1645442853.5,P18,D01,1,1,1
810,-0.2,1645442853.515625,P18,D01,1,1,1
811,-0.46,1645442853.53125,P18,D01,1,1,1
812,-0.81,1645442853.546875,P18,D01,1,1,1
813,-1.09,1645442853.5625,P18,D01,1,1,1
814,-1.15,1645442853.578125,P18,D01,1,1,1
815,-0.94,1645442853.59375,P18,D01,1,1,1
816,-0.5,1645442853.609375,P18,D01,1,1,1
817,0.03,1645442853.625,P18,D01,1,1,1
818,0.48,1645442853.640625,P18,D01,1,1,1
819,0.76,1645442853.65625,P18,D01,1,1,1
820,0.85,1645442853.671875,P18,D01,1,1,1
821,0.76,1645442853.6875,P18,D01,1,1,1
822,0.57,1645442853.703125,P18,D01,1,1,1
823,0.34,1645442853.71875,P18,D01,1,1,1
824,0.15,1645442853.734375,P18,D01,1,1,1
825,0.04,1645442853.75,P18,D01,1,1,1
826,0.08,1645442853.765625,P18,D01,1,1,1
827,0.28,1645442853.78125,P18,D01,1,1,1
828,0.6,1645442853.796875,P18,D01,1,1,1
829,0.94,1645442853.8125,P18,D01,1,1,1
830,1.15,1645442853.828125,P18,D01,1,1,1
831,1.15,1645442853.84375,P18,D01,1,1,1
832,0.89,1645442853.859375,P18,D01,1,1,1
833,0.47,1645442853.875,P18,D01,1,1,1
834,0.06,1645442853.890625,P18,D01,1,1,1
835,-0.18,1645442853.90625,P18,D01,1,1,1
836,-0.17,1645442853.921875,P18,D01,1,1,1
837,0.05,1645442853.9375,P18,D01,1,1,1
838,0.36,1645442853.953125,P18,D01,1,1,1
839,0.65,1645442853.96875,P18,D01,1,1,1
840,0.84,1645442853.984375,P18,D01,1,1,1
841,0.97,1645442854.0,P18,D01,1,1,1
842,1.1,1645442854.015625,P18,D01,1,1,1
843,1.29,1645442854.03125,P18,D01,1,1,1
844,1.52,1645442854.046875,P18,D01,1,1,1
845,1.69,1645442854.0625,P18,D01,1,1,1
846,1.68,1645442854.078125,P18,D01,1,1,1
847,1.42,1645442854.09375,P18,D01,1,1,1
848,0.94,1645442854.109375,P18,D01,1,1,1
849,0.39,1645442854.125,P18,D01,1,1,1
850,-0.04,1645442854.140625,P18,D01,1,1,1
851,-0.26,1645442854.15625,P18,D01,1,1,1
852,-0.27,1645442854.171875,P18,D01,1,1,1
853,-0.2,1645442854.1875,P18,D01,1,1,1
854,-0.25,1645442854.203125,P18,D01,1,1,1
855,-0.5,1645442854.21875,P18,D01,1,1,1
856,-0.92,1645442854.234375,P18,D01,1,1,1
857,-1.36,1645442854.25,P18,D01,1,1,1
858,-1.65,1645442854.265625,P18,D01,1,1,1
859,-1.68,1645442854.28125,P18,D01,1,1,1
860,-1.48,1645442854.296875,P18,D01,1,1,1
861,-1.19,1645442854.3125,P18,D01,1,1,1
862,-0.95,1645442854.328125,P18,D01,1,1,1
863,-0.83,1645442854.34375,P18,D01,1,1,1
864,-0.83,1645442854.359375,P18,D01,1,1,1
865,-0.88,1645442854.375,P18,D01,1,1,1
866,-0.94,1645442854.390625,P18,D01,1,1,1
867,-0.99,1645442854.40625,P18,D01,1,1,1
868,-1.08,1645442854.421875,P18,D01,1,1,1
869,-1.22,1645442854.4375,P18,D01,1,1,1
870,-1.41,1645442854.453125,P18,D01,1,1,1
871,-1.54,1645442854.46875,P18,D01,1,1,1
872,-1.51,1645442854.484375,P18,D01,1,1,1
873,-1.27,1645442854.5,P18,D01,1,1,1
874,-0.84,1645442854.515625,P18,D01,1,1,1
875,-0.36,1645442854.53125,P18,D01,1,1,1
876,0.02,1645442854.546875,P18,D01,1,1,1
877,0.19,1645442854.5625,P18,D01,1,1,1
878,0.09,1645442854.578125,P18,D01,1,1,1
879,-0.21,1645442854.59375,P18,D01,1,1,1
880,-0.58,1645442854.609375,P18,D01,1,1,1
881,-0.88,1645442854.625,P18,D01,1,1,1
882,-1.01,1645442854.640625,P18,D01,1,1,1
883,-0.91,1645442854.65625,P18,D01,1,1,1
884,-0.63,1645442854.671875,P18,D01,1,1,1
885,-0.23,1645442854.6875,P18,D01,1,1,1
886,0.2,1645442854.703125,P18,D01,1,1,1
887,0.58,1645442854.71875,P18,D01,1,1,1
888,0.85,1645442854.734375,P18,D01,1,1,1
889,1.03,1645442854.75,P18,D01,1,1,1
890,1.13,1645442854.765625,P18,D01,1,1,1
891,1.2,1645442854.78125,P18,D01,1,1,1
892,1.28,1645442854.796875,P18,D01,1,1,1
893,1.35,1645442854.8125,P18,D01,1,1,1
894,1.4,1645442854.828125,P18,D01,1,1,1
895,1.36,1645442854.84375,P18,D01,1,1,1
896,1.2,1645442854.859375,P18,D01,1,1,1
897,0.9,1645442854.875,P18,D01,1,1,1
898,0.5,1645442854.890625,P18,D01,1,1,1
899,0.07,1645442854.90625,P18,D01,1,1,1
900,-0.33,1645442854.921875,P18,D01,1,1,1
901,-0.62,1645442854.9375,P18,D01,1,1,1
902,-0.8,1645442854.953125,P18,D01,1,1,1
903,-0.89,1645442854.96875,P18,D01,1,1,1
904,-0.95,1645442854.984375,P18,D01,1,1,1
905,-1.0,1645442855.0,P18,D01,1,1,1
906,-1.02,1645442855.015625,P18,D01,1,1,1
907,-0.96,1645442855.03125,P18,D01,1,1,1
908,-0.77,1645442855.046875,P18,D01,1,1,1
909,-0.41,1645442855.0625,P18,D01,1,1,1
910,0.07,1645442855.078125,P18,D01,1,1,1
911,0.57,1645442855.09375,P18,D01,1,1,1
912,0.98,1645442855.109375,P18,D01,1,1,1
913,1.2,1645442855.125,P18,D01,1,1,1
914,1.21,1645442855.140625,P18,D01,1,1,1
915,1.06,1645442855.15625,P18,D01,1,1,1
916,0.85,1645442855.171875,P18,D01,1,1,1
917,0.71,1645442855.1875,P18,D01,1,1,1
918,0.72,1645442855.203125,P18,D01,1,1,1
919,0.91,1645442855.21875,P18,D01,1,1,1
920,1.19,1645442855.234375,P18,D01,1,1,1
921,1.44,1645442855.25,P18,D01,1,1,1
922,1.56,1645442855.265625,P18,D01,1,1,1
923,1.52,1645442855.28125,P18,D01,1,1,1
924,1.38,1645442855.296875,P18,D01,1,1,1
925,1.28,1645442855.3125,P18,D01,1,1,1
926,1.31,1645442855.328125,P18,D01,1,1,1
927,1.46,1645442855.34375,P18,D01,1,1,1
928,1.66,1645442855.359375,P18,D01,1,1,1
929,1.79,1645442855.375,P18,D01,1,1,1
930,1.81,1645442855.390625,P18,D01,1,1,1
931,1.74,1645442855.40625,P18,D01,1,1,1
932,1.63,1645442855.421875,P18,D01,1,1,1
933,1.52,1645442855.4375,P18,D01,1,1,1
934,1.39,1645442855.453125,P18,D01,1,1,1
935,1.19,1645442855.46875,P18,D01,1,1,1
936,0.87,1645442855.484375,P18,D01,1,1,1
937,0.46,1645442855.5,P18,D01,1,1,1
938,0.04,1645442855.515625,P18,D01,1,1,1
939,-0.29,1645442855.53125,P18,D01,1,1,1
940,-0.47,1645442855.546875,P18,D01,1,1,1
941,-0.52,1645442855.5625,P18,D01,1,1,1
942,-0.49,1645442855.578125,P18,D01,1,1,1
943,-0.46,1645442855.59375,P18,D01,1,1,1
944,-0.47,1645442855.609375,P18,D01,1,1,1
945,-0.55,1645442855.625,P18,D01,1,1,1
946,-0.71,1645442855.640625,P18,D01,1,1,1
947,-0.9,1645442855.65625,P18,D01,1,1,1
948,-1.08,1645442855.671875,P18,D01,1,1,1
949,-1.21,1645442855.6875,P18,D01,1,1,1
950,-1.23,1645442855.703125,P18,D01,1,1,1
951,-1.16,1645442855.71875,P18,D01,1,1,1
952,-1.06,1645442855.734375,P18,D01,1,1,1
953,-0.98,1645442855.75,P18,D01,1,1,1
954,-0.97,1645442855.765625,P18,D01,1,1,1
955,-1.03,1645442855.78125,P18,D01,1,1,1
956,-1.13,1645442855.796875,P18,D01,1,1,1
957,-1.25,1645442855.8125,P18,D01,1,1,1
958,-1.37,1645442855.828125,P18,D01,1,1,1
959,-1.46,1645442855.84375,P18,D01,1,1,1
960,-1.48,1645442855.859375,P18,D01,1,1,1
961,-1.38,1645442855.875,P18,D01,1,1,1
962,-1.12,1645442855.890625,P18,D01,1,1,1
963,-0.72,1645442855.90625,P18,D01,1,1,1
964,-0.25,1645442855.921875,P18,D01,1,1,1
965,0.2,1645442855.9375,P18,D01,1,1,1
966,0.52,1645442855.953125,P18,D01,1,1,1
967,0.68,1645442855.96875,P18,D01,1,1,1
968,0.69,1645442855.984375,P18,D01,1,1,1
969,0.62,1645442856.0,P18,D01,1,1,1
970,0.54,1645442856.015625,P18,D01,1,1,1
971,0.51,1645442856.03125,P18,D01,1,1,1
972,0.52,1645442856.046875,P18,D01,1,1,1
973,0.55,1645442856.0625,P18,D01,1,1,1
974,0.57,1645442856.078125,P18,D01,1,1,1
975,0.6,1645442856.09375,P18,D01,1,1,1
976,0.67,1645442856.109375,P18,D01,1,1,1
977,0.83,1645442856.125,P18,D01,1,1,1
978,1.09,1645442856.140625,P18,D01,1,1,1
979,1.4,1645442856.15625,P18,D01,1,1,1
980,1.67,1645442856.171875,P18,D01,1,1,1
981,1.81,1645442856.1875,P18,D01,1,1,1
982,1.74,1645442856.203125,P18,D01,1,1,1
983,1.5,1645442856.21875,P18,D01,1,1,1
984,1.16,1645442856.234375,P18,D01,1,1,1
985,0.82,1645442856.25,P18,D01,1,1,1
986,0.56,1645442856.265625,P18,D01,1,1,1
987,0.39,1645442856.28125,P18,D01,1,1,1
988,0.3,1645442856.296875,P18,D01,1,1,1
989,0.28,1645442856.3125,P18,D01,1,1,1
990,0.33,1645442856.328125,P18,D01,1,1,1
991,0.45,1645442856.34375,P18,D01,1,1,1
992,0.61,1645442856.359375,P18,D01,1,1,1
993,0.77,1645442856.375,P18,D01,1,1,1
994,0.84,1645442856.390625,P18,D01,1,1,1
995,0.79,1645442856.40625,P18,D01,1,1,1
996,0.62,1645442856.421875,P18,D01,1,1,1
997,0.41,1645442856.4375,P18,D01,1,1,1
998,0.22,1645442856.453125,P18,D01,1,1,1
999,0.12,1645442856.46875,P18,D01,1,1,1
1000,0.07,1645442856.484375,P18,D01,1,1,1
1001,0.02,1645442856.5,P18,D01,1,1,1
1002,-0.11,1645442856.515625,P18,D01,1,1,1
1003,-0.33,1645442856.53125,P18,D01,1,1,1
1004,-0.63,1645442856.546875,P18,D01,1,1,1
1005,-0.92,1645442856.5625,P18,D01,1,1,1
1006,-1.14,1645442856.578125,P18,D01,1,1,1
1007,-1.23,1645442856.59375,P18,D01,1,1,1
1008,-1.19,1645442856.609375,P18,D01,1,1,1
1009,-1.04,1645442856.625,P18,D01,1,1,1
1010,-0.83,1645442856.640625,P18,D01,1,1,1
1011,-0.63,1645442856.65625,P18,D01,1,1,1
1012,-0.49,1645442856.671875,P18,D01,1,1,1
1013,-0.45,1645442856.6875,P18,D01,1,1,1
1014,-0.51,1645442856.703125,P18,D01,1,1,1
1015,-0.64,1645442856.71875,P18,D01,1,1,1
1016,-0.8,1645442856.734375,P18,D01,1,1,1
1017,-0.92,1645442856.75,P18,D01,1,1,1
1018,-1.0,1645442856.765625,P18,D01,1,1,1
1019,-1.05,1645442856.78125,P18,D01,1,1,1
1020,-1.12,1645442856.796875,P18,D01,1,1,1
1021,-1.25,1645442856.8125,P18,D01,1,1,1
1022,-1.42,1645442856.828125,P18,D01,1,1,1
1023,-1.56,1645442856.84375,P18,D01,1,1,1
1024,-1.6,1645442856.859375,P18,D01,1,1,1
1025,-1.5,1645442856.875,P18,D01,1,1,1
1026,-1.28,1645442856.890625,P18,D01,1,1,1
1027,-1.02,1645442856.90625,P18,D01,1,1,1
1028,-0.78,1645442856.921875,P18,D01,1,1,1
1029,-0.59,1645442856.9375,P18,D01,1,1,1
1030,-0.46,1645442856.953125,P18,D01,1,1,1
1031,-0.36,1645442856.96875,P18,D01,1,1,1
1032,-0.29,1645442856.984375,P18,D01,1,1,1
1033,-0.3,1645442857.0,P18,D01,1,1,1
1034,-0.41,1645442857.015625,P18,D01,1,1,1
1035,-0.61,1645442857.03125,P18,D01,1,1,1
1036,-0.8,1645442857.046875,P18,D01,1,1,1
1037,-0.86,1645442857.0625,P18,D01,1,1,1
1038,-0.67,1645442857.078125,P18,D01,1,1,1
1039,-0.24,1645442857.09375,P18,D01,1,1,1
1040,0.34,1645442857.109375,P18,D01,1,1,1
1041,0.89,1645442857.125,P18,D01,1,1,1
1042,1.23,1645442857.140625,P18,D01,1,1,1
1043,1.27,1645442857.15625,P18,D01,1,1,1
1044,1.01,1645442857.171875,P18,D01,1,1,1
1045,0.55,1645442857.1875,P18,D01,1,1,1
1046,0.03,1645442857.203125,P18,D01,1,1,1
1047,-0.41,1645442857.21875,P18,D01,1,1,1
1048,-0.67,1645442857.234375,P18,D01,1,1,1
1049,-0.71,1645442857.25,P18,D01,1,1,1
1050,-0.58,1645442857.265625,P18,D01,1,1,1
1051,-0.37,1645442857.28125,P18,D01,1,1,1
1052,-0.2,1645442857.296875,P18,D01,1,1,1
1053,-0.15,1645442857.3125,P18,D01,1,1,1
1054,-0.22,1645442857.328125,P18,D01,1,1,1
1055,-0.35,1645442857.34375,P18,D01,1,1,1
1056,-0.45,1645442857.359375,P18,D01,1,1,1
1057,-0.43,1645442857.375,P18,D01,1,1,1
1058,-0.29,1645442857.390625,P18,D01,1,1,1
1059,-0.09,1645442857.40625,P18,D01,1,1,1
1060,0.09,1645442857.421875,P18,D01,1,1,1
1061,0.22,1645442857.4375,P18,D01,1,1,1
1062,0.28,1645442857.453125,P18,D01,1,1,1
1063,0.32,1645442857.46875,P18,D01,1,1,1
1064,0.37,1645442857.484375,P18,D01,1,1,1
1065,0.43,1645442857.5,P18,D01,1,1,1
1066,0.45,1645442857.515625,P18,D01,1,1,1
1067,0.38,1645442857.53125,P18,D01,1,1,1
1068,0.22,1645442857.546875,P18,D01,1,1,1
1069,0.01,1645442857.5625,P18,D01,1,1,1
1070,-0.18,1645442857.578125,P18,D01,1,1,1
1071,-0.3,1645442857.59375,P18,D01,1,1,1
1072,-0.37,1645442857.609375,P18,D01,1,1,1
1073,-0.41,1645442857.625,P18,D01,1,1,1
1074,-0.47,1645442857.640625,P18,D01,1,1,1
1075,-0.56,1645442857.65625,P18,D01,1,1,1
1076,-0.61,1645442857.671875,P18,D01,1,1,1
1077,-0.54,1645442857.6875,P18,D01,1,1,1
1078,-0.29,1645442857.703125,P18,D01,1,1,1
1079,0.12,1645442857.71875,P18,D01,1,1,1
1080,0.6,1645442857.734375,P18,D01,1,1,1
1081,1.0,1645442857.75,P18,D01,1,1,1
1082,1.17,1645442857.765625,P18,D01,1,1,1
1083,0.98,1645442857.78125,P18,D01,1,1,1
1084,0.46,1645442857.796875,P18,D01,1,1,1
1085,-0.26,1645442857.8125,P18,D01,1,1,1
1086,-0.95,1645442857.828125,P18,D01,1,1,1
1087,-1.38,1645442857.84375,P18,D01,1,1,1
1088,-1.4,1645442857.859375,P18,D01,1,1,1
1089,-1.0,1645442857.875,P18,D01,1,1,1
1090,-0.34,1645442857.890625,P18,D01,1,1,1
1091,0.37,1645442857.90625,P18,D01,1,1,1
1092,0.93,1645442857.921875,P18,D01,1,1,1
1093,1.24,1645442857.9375,P18,D01,1,1,1
1094,1.32,1645442857.953125,P18,D01,1,1,1
1095,1.25,1645442857.96875,P18,D01,1,1,1
1096,1.1,1645442857.984375,P18,D01,1,1,1
1097,0.88,1645442858.0,P18,D01,1,1,1
1098,0.57,1645442858.015625,P18,D01,1,1,1
1099,0.16,1645442858.03125,P18,D01,1,1,1
1100,-0.26,1645442858.046875,P18,D01,1,1,1
1101,-0.6,1645442858.0625,P18,D01,1,1,1
1102,-0.75,1645442858.078125,P18,D01,1,1,1
1103,-0.68,1645442858.09375,P18,D01,1,1,1
1104,-0.46,1645442858.109375,P18,D01,1,1,1
1105,-0.19,1645442858.125,P18,D01,1,1,1
1106,0.01,1645442858.140625,P18,D01,1,1,1
1107,0.08,1645442858.15625,P18,D01,1,1,1
1108,0.04,1645442858.171875,P18,D01,1,1,1
1109,-0.06,1645442858.1875,P18,D01,1,1,1
1110,-0.16,1645442858.203125,P18,D01,1,1,1
1111,-0.27,1645442858.21875,P18,D01,1,1,1
1112,-0.39,1645442858.234375,P18,D01,1,1,1
1113,-0.54,1645442858.25,P18,D01,1,1,1
1114,-0.69,1645442858.265625,P18,D01,1,1,1
1115,-0.78,1645442858.28125,P18,D01,1,1,1
1116,-0.75,1645442858.296875,P18,D01,1,1,1
1117,-0.55,1645442858.3125,P18,D01,1,1,1
1118,-0.22,1645442858.328125,P18,D01,1,1,1
1119,0.16,1645442858.34375,P18,D01,1,1,1
1120,0.51,1645442858.359375,P18,D01,1,1,1
1121,0.73,1645442858.375,P18,D01,1,1,1
1122,0.8,1645442858.390625,P18,D01,1,1,1
1123,0.74,1645442858.40625,P18,D01,1,1,1
1124,0.58,1645442858.421875,P18,D01,1,1,1
1125,0.4,1645442858.4375,P18,D01,1,1,1
1126,0.24,1645442858.453125,P18,D01,1,1,1
1127,0.14,1645442858.46875,P18,D01,1,1,1
1128,0.12,1645442858.484375,P18,D01,1,1,1
1129,0.17,1645442858.5,P18,D01,1,1,1
1130,0.26,1645442858.515625,P18,D01,1,1,1
1131,0.32,1645442858.53125,P18,D01,1,1,1
1132,0.3,1645442858.546875,P18,D01,1,1,1
1133,0.19,1645442858.5625,P18,D01,1,1,1
1134,-0.01,1645442858.578125,P18,D01,1,1,1
1135,-0.21,1645442858.59375,P18,D01,1,1,1
1136,-0.33,1645442858.609375,P18,D01,1,1,1
1137,-0.34,1645442858.625,P18,D01,1,1,1
1138,-0.23,1645442858.640625,P18,D01,1,1,1
1139,-0.03,1645442858.65625,P18,D01,1,1,1
1140,0.17,1645442858.671875,P18,D01,1,1,1
1141,0.3,1645442858.6875,P18,D01,1,1,1
1142,0.35,1645442858.703125,P18,D01,1,1,1
1143,0.32,1645442858.71875,P18,D01,1,1,1
1144,0.3,1645442858.734375,P18,D01,1,1,1
1145,0.34,1645442858.75,P18,D01,1,1,1
1146,0.45,1645442858.765625,P18,D01,1,1,1
1147,0.62,1645442858.78125,P18,D01,1,1,1
1148,0.75,1645442858.796875,P18,D01,1,1,1
1149,0.77,1645442858.8125,P18,D01,1,1,1
1150,0.67,1645442858.828125,P18,D01,1,1,1
1151,0.51,1645442858.84375,P18,D01,1,1,1
1152,0.41,1645442858.859375,P18,D01,1,1,1
1153,0.47,1645442858.875,P18,D01,1,1,1
1154,0.68,1645442858.890625,P18,D01,1,1,1
1155,0.95,1645442858.90625,P18,D01,1,1,1
1156,1.13,1645442858.921875,P18,D01,1,1,1
1157,1.13,1645442858.9375,P18,D01,1,1,1
1158,0.95,1645442858.953125,P18,D01,1,1,1
1159,0.72,1645442858.96875,P18,D01,1,1,1
1160,0.55,1645442858.984375,P18,D01,1,1,1
1161,0.54,1645442859.0,P18,D01,1,1,1
1162,0.64,1645442859.015625,P18,D01,1,1,1
1163,0.75,1645442859.03125,P18,D01,1,1,1
1164,0.8,1645442859.046875,P18,D01,1,1,1
1165,0.76,1645442859.0625,P18,D01,1,1,1
1166,0.7,1645442859.078125,P18,D01,1,1,1
1167,0.7,1645442859.09375,P18,D01,1,1,1
1168,0.78,1645442859.109375,P18,D01,1,1,1
1169,0.86,1645442859.125,P18,D01,1,1,1
1170,0.84,1645442859.140625,P18,D01,1,1,1
1171,0.64,1645442859.15625,P18,D01,1,1,1
1172,0.26,1645442859.171875,P18,D01,1,1,1
1173,-0.22,1645442859.1875,P18,D01,1,1,1
1174,-0.69,1645442859.203125,P18,D01,1,1,1
1175,-1.08,1645442859.21875,P18,D01,1,1,1
1176,-1.37,1645442859.234375,P18,D01,1,1,1
1177,-1.54,1645442859.25,P18,D01,1,1,1
1178,-1.58,1645442859.265625,P18,D01,1,1,1
1179,-1.51,1645442859.28125,P18,D01,1,1,1
1180,-1.33,1645442859.296875,P18,D01,1,1,1
1181,-1.11,1645442859.3125,P18,D01,1,1,1
1182,-0.95,1645442859.328125,P18,D01,1,1,1
1183,-0.92,1645442859.34375,P18,D01,1,1,1
1184,-1.03,1645442859.359375,P18,D01,1,1,1
1185,-1.22,1645442859.375,P18,D01,1,1,1
1186,-1.4,1645442859.390625,P18,D01,1,1,1
1187,-1.52,1645442859.40625,P18,D01,1,1,1
1188,-1.54,1645442859.421875,P18,D01,1,1,1
1189,-1.49,1645442859.4375,P18,D01,1,1,1
1190,-1.38,1645442859.453125,P18,D01,1,1,1
1191,-1.21,1645442859.46875,P18,D01,1,1,1
1192,-0.96,1645442859.484375,P18,D01,1,1,1
1193,-0.66,1645442859.5,P18,D01,1,1,1
1194,-0.38,1645442859.515625,P18,D01,1,1,1
1195,-0.2,1645442859.53125,P18,D01,1,1,1
1196,-0.22,1645442859.546875,P18,D01,1,1,1
1197,-0.41,1645442859.5625,P18,D01,1,1,1
1198,-0.71,1645442859.578125,P18,D01,1,1,1
1199,-0.97,1645442859.59375,P18,D01,1,1,1
1200,-1.09,1645442859.609375,P18,D01,1,1,1
1201,-1.06,1645442859.625,P18,D01,1,1,1
1202,-0.91,1645442859.640625,P18,D01,1,1,1
1203,-0.73,1645442859.65625,P18,D01,1,1,1
1204,-0.59,1645442859.671875,P18,D01,1,1,1
1205,-0.53,1645442859.6875,P18,D01,1,1,1
1206,-0.53,1645442859.703125,P18,D01,1,1,1
1207,-0.54,1645442859.71875,P18,D01,1,1,1
1208,-0.53,1645442859.734375,P18,D01,1,1,1
1209,-0.43,1645442859.75,P18,D01,1,1,1
1210,-0.21,1645442859.765625,P18,D01,1,1,1
1211,0.11,1645442859.78125,P18,D01,1,1,1
1212,0.51,1645442859.796875,P18,D01,1,1,1
1213,0.95,1645442859.8125,P18,D01,1,1,1
1214,1.38,1645442859.828125,P18,D01,1,1,1
1215,1.78,1645442859.84375,P18,D01,1,1,1
1216,2.14,1645442859.859375,P18,D01,1,1,1
1217,2.46,1645442859.875,P18,D01,1,1,1
1218,2.69,1645442859.890625,P18,D01,1,1,1
1219,2.78,1645442859.90625,P18,D01,1,1,1
1220,2.67,1645442859.921875,P18,D01,1,1,1
1221,2.37,1645442859.9375,P18,D01,1,1,1
1222,1.94,1645442859.953125,P18,D01,1,1,1
1223,1.51,1645442859.96875,P18,D01,1,1,1
1224,1.17,1645442859.984375,P18,D01,1,1,1
1225,0.95,1645442860.0,P18,D01,1,1,1
1226,0.84,1645442860.015625,P18,D01,1,1,1
1227,0.76,1645442860.03125,P18,D01,1,1,1
1228,0.66,1645442860.046875,P18,D01,1,1,1
1229,0.52,1645442860.0625,P18,D01,1,1,1
1230,0.39,1645442860.078125,P18,D01,1,1,1
1231,0.28,1645442860.09375,P18,D01,1,1,1
1232,0.2,1645442860.109375,P18,D01,1,1,1
1233,0.1,1645442860.125,P18,D01,1,1,1
1234,-0.11,1645442860.140625,P18,D01,1,1,1
1235,-0.44,1645442860.15625,P18,D01,1,1,1
1236,-0.85,1645442860.171875,P18,D01,1,1,1
1237,-1.22,1645442860.1875,P18,D01,1,1,1
1238,-1.43,1645442860.203125,P18,D01,1,1,1
1239,-1.43,1645442860.21875,P18,D01,1,1,1
1240,-1.28,1645442860.234375,P18,D01,1,1,1
1241,-1.09,1645442860.25,P18,D01,1,1,1
1242,-0.98,1645442860.265625,P18,D01,1,1,1
1243,-1.01,1645442860.28125,P18,D01,1,1,1
1244,-1.11,1645442860.296875,P18,D01,1,1,1
1245,-1.17,1645442860.3125,P18,D01,1,1,1
1246,-1.07,1645442860.328125,P18,D01,1,1,1
1247,-0.74,1645442860.34375,P18,D01,1,1,1
1248,-0.21,1645442860.359375,P18,D01,1,1,1
1249,0.42,1645442860.375,P18,D01,1,1,1
1250,1.05,1645442860.390625,P18,D01,1,1,1
1251,1.56,1645442860.40625,P18,D01,1,1,1
1252,1.89,1645442860.421875,P18,D01,1,1,1
1253,2.0,1645442860.4375,P18,D01,1,1,1
1254,1.91,1645442860.453125,P18,D01,1,1,1
1255,1.67,1645442860.46875,P18,D01,1,1,1
1256,1.35,1645442860.484375,P18,D01,1,1,1
1257,1.06,1645442860.5,P18,D01,1,1,1
1258,0.88,1645442860.515625,P18,D01,1,1,1
1259,0.87,1645442860.53125,P18,D01,1,1,1
1260,1.02,1645442860.546875,P18,D01,1,1,1
1261,1.27,1645442860.5625,P18,D01,1,1,1
1262,1.49,1645442860.578125,P18,D01,1,1,1
1263,1.55,1645442860.59375,P18,D01,1,1,1
1264,1.35,1645442860.609375,P18,D01,1,1,1
1265,0.88,1645442860.625,P18,D01,1,1,1
1266,0.26,1645442860.640625,P18,D01,1,1,1
1267,-0.32,1645442860.65625,P18,D01,1,1,1
1268,-0.69,1645442860.671875,P18,D01,1,1,1
1269,-0.81,1645442860.6875,P18,D01,1,1,1
1270,-0.73,1645442860.703125,P18,D01,1,1,1
1271,-0.6,1645442860.71875,P18,D01,1,1,1
1272,-0.57,1645442860.734375,P18,D01,1,1,1
1273,-0.69,1645442860.75,P18,D01,1,1,1
1274,-0.91,1645442860.765625,P18,D01,1,1,1
1275,-1.14,1645442860.78125,P18,D01,1,1,1
1276,-1.31,1645442860.796875,P18,D01,1,1,1
1277,-1.37,1645442860.8125,P18,D01,1,1,1
1278,-1.33,1645442860.828125,P18,D01,1,1,1
1279,-1.2,1645442860.84375,P18,D01,1,1,1
1280,-1.0,1645442860.859375,P18,D01,1,1,1
1281,-0.71,1645442860.875,P18,D01,1,1,1
1282,-0.34,1645442860.890625,P18,D01,1,1,1
1283,0.06,1645442860.90625,P18,D01,1,1,1
1284,0.42,1645442860.921875,P18,D01,1,1,1
1285,0.68,1645442860.9375,P18,D01,1,1,1
1286,0.76,1645442860.953125,P18,D01,1,1,1
1287,0.66,1645442860.96875,P18,D01,1,1,1
1288,0.39,1645442860.984375,P18,D01,1,1,1
1289,0.01,1645442861.0,P18,D01,1,1,1
1290,-0.4,1645442861.015625,P18,D01,1,1,1
1291,-0.75,1645442861.03125,P18,D01,1,1,1
1292,-0.96,1645442861.046875,P18,D01,1,1,1
1293,-0.99,1645442861.0625,P18,D01,1,1,1
1294,-0.83,1645442861.078125,P18,D01,1,1,1
1295,-0.53,1645442861.09375,P18,D01,1,1,1
1296,-0.17,1645442861.109375,P18,D01,1,1,1
1297,0.17,1645442861.125,P18,D01,1,1,1
1298,0.38,1645442861.140625,P18,D01,1,1,1
1299,0.41,1645442861.15625,P18,D01,1,1,1
1300,0.23,1645442861.171875,P18,D01,1,1,1
1301,-0.12,1645442861.1875,P18,D01,1,1,1
1302,-0.52,1645442861.203125,P18,D01,1,1,1
1303,-0.84,1645442861.21875,P18,D01,1,1,1
1304,-0.99,1645442861.234375,P18,D01,1,1,1
1305,-0.94,1645442861.25,P18,D01,1,1,1
1306,-0.78,1645442861.265625,P18,D01,1,1,1
1307,-0.64,1645442861.28125,P18,D01,1,1,1
1308,-0.66,1645442861.296875,P18,D01,1,1,1
1309,-0.86,1645442861.3125,P18,D01,1,1,1
1310,-1.15,1645442861.328125,P18,D01,1,1,1
1311,-1.37,1645442861.34375,P18,D01,1,1,1
1312,-1.37,1645442861.359375,P18,D01,1,1,1
1313,-1.15,1645442861.375,P18,D01,1,1,1
1314,-0.78,1645442861.390625,P18,D01,1,1,1
1315,-0.46,1645442861.40625,P18,D01,1,1,1
1316,-0.3,1645442861.421875,P18,D01,1,1,1
1317,-0.3,1645442861.4375,P18,D01,1,1,1
1318,-0.35,1645442861.453125,P18,D01,1,1,1
1319,-0.3,1645442861.46875,P18,D01,1,1,1
1320,-0.04,1645442861.484375,P18,D01,1,1,1
1321,0.43,1645442861.5,P18,D01,1,1,1
1322,0.96,1645442861.515625,P18,D01,1,1,1
1323,1.43,1645442861.53125,P18,D01,1,1,1
1324,1.71,1645442861.546875,P18,D01,1,1,1
1325,1.81,1645442861.5625,P18,D01,1,1,1
1326,1.78,1645442861.578125,P18,D01,1,1,1
1327,1.67,1645442861.59375,P18,D01,1,1,1
1328,1.55,1645442861.609375,P18,D01,1,1,1
1329,1.43,1645442861.625,P18,D01,1,1,1
1330,1.32,1645442861.640625,P18,D01,1,1,1
1331,1.21,1645442861.65625,P18,D01,1,1,1
1332,1.11,1645442861.671875,P18,D01,1,1,1
1333,1.02,1645442861.6875,P18,D01,1,1,1
1334,0.92,1645442861.703125,P18,D01,1,1,1
1335,0.78,1645442861.71875,P18,D01,1,1,1
1336,0.59,1645442861.734375,P18,D01,1,1,1
1337,0.33,1645442861.75,P18,D01,1,1,1
1338,0.02,1645442861.765625,P18,D01,1,1,1
1339,-0.3,1645442861.78125,P18,D01,1,1,1
1340,-0.58,1645442861.796875,P18,D01,1,1,1
1341,-0.77,1645442861.8125,P18,D01,1,1,1
1342,-0.86,1645442861.828125,P18,D01,1,1,1
1343,-0.82,1645442861.84375,P18,D01,1,1,1
1344,-0.7,1645442861.859375,P18,D01,1,1,1
1345,-0.53,1645442861.875,P18,D01,1,1,1
1346,-0.39,1645442861.890625,P18,D01,1,1,1
1347,-0.33,1645442861.90625,P18,D01,1,1,1
1348,-0.37,1645442861.921875,P18,D01,1,1,1
1349,-0.5,1645442861.9375,P18,D01,1,1,1
1350,-0.65,1645442861.953125,P18,D01,1,1,1
1351,-0.78,1645442861.96875,P18,D01,1,1,1
1352,-0.85,1645442861.984375,P18,D01,1,1,1
1353,-0.86,1645442862.0,P18,D01,1,1,1
1354,-0.85,1645442862.015625,P18,D01,1,1,1
1355,-0.85,1645442862.03125,P18,D01,1,1,1
1356,-0.9,1645442862.046875,P18,D01,1,1,1
1357,-1.01,1645442862.0625,P18,D01,1,1,1
1358,-1.16,1645442862.078125,P18,D01,1,1,1
1359,-1.27,1645442862.09375,P18,D01,1,1,1
1360,-1.27,1645442862.109375,P18,D01,1,1,1
1361,-1.1,1645442862.125,P18,D01,1,1,1
1362,-0.76,1645442862.140625,P18,D01,1,1,1
1363,-0.34,1645442862.15625,P18,D01,1,1,1
1364,0.05,1645442862.171875,P18,D01,1,1,1
1365,0.28,1645442862.1875,P18,D01,1,1,1
1366,0.3,1645442862.203125,P18,D01,1,1,1
1367,0.14,1645442862.21875,P18,D01,1,1,1
1368,-0.1,1645442862.234375,P18,D01,1,1,1
1369,-0.29,1645442862.25,P18,D01,1,1,1
1370,-0.4,1645442862.265625,P18,D01,1,1,1
1371,-0.45,1645442862.28125,P18,D01,1,1,1
1372,-0.47,1645442862.296875,P18,D01,1,1,1
1373,-0.5,1645442862.3125,P18,D01,1,1,1
1374,-0.49,1645442862.328125,P18,D01,1,1,1
1375,-0.35,1645442862.34375,P18,D01,1,1,1
1376,0.0,1645442862.359375,P18,D01,1,1,1
1377,0.56,1645442862.375,P18,D01,1,1,1
1378,1.21,1645442862.390625,P18,D01,1,1,1
1379,1.77,1645442862.40625,P18,D01,1,1,1
1380,2.07,1645442862.421875,P18,D01,1,1,1
1381,2.06,1645442862.4375,P18,D01,1,1,1
1382,1.82,1645442862.453125,P18,D01,1,1,1
1383,1.52,1645442862.46875,P18,D01,1,1,1
1384,1.35,1645442862.484375,P18,D01,1,1,1
1385,1.39,1645442862.5,P18,D01,1,1,1
1386,1.6,1645442862.515625,P18,D01,1,1,1
1387,1.83,1645442862.53125,P18,D01,1,1,1
1388,1.97,1645442862.546875,P18,D01,1,1,1
1389,1.96,1645442862.5625,P18,D01,1,1,1
1390,1.83,1645442862.578125,P18,D01,1,1,1
1391,1.66,1645442862.59375,P18,D01,1,1,1
1392,1.49,1645442862.609375,P18,D01,1,1,1
1393,1.32,1645442862.625,P18,D01,1,1,1
1394,1.13,1645442862.640625,P18,D01,1,1,1
1395,0.91,1645442862.65625,P18,D01,1,1,1
1396,0.7,1645442862.671875,P18,D01,1,1,1
1397,0.53,1645442862.6875,P18,D01,1,1,1
1398,0.43,1645442862.703125,P18,D01,1,1,1
1399,0.35,1645442862.71875,P18,D01,1,1,1
1400,0.23,1645442862.734375,P18,D01,1,1,1
1401,0.01,1645442862.75,P18,D01,1,1,1
1402,-0.3,1645442862.765625,P18,D01,1,1,1
1403,-0.64,1645442862.78125,P18,D01,1,1,1
1404,-0.91,1645442862.796875,P18,D01,1,1,1
1405,-1.05,1645442862.8125,P18,D01,1,1,1
1406,-1.06,1645442862.828125,P18,D01,1,1,1
1407,-0.98,1645442862.84375,P18,D01,1,1,1
1408,-0.87,1645442862.859375,P18,D01,1,1,1
1409,-0.77,1645442862.875,P18,D01,1,1,1
1410,-0.71,1645442862.890625,P18,D01,1,1,1
1411,-0.7,1645442862.90625,P18,D01,1,1,1
1412,-0.76,1645442862.921875,P18,D01,1,1,1
1413,-0.89,1645442862.9375,P18,D01,1,1,1
1414,-1.09,1645442862.953125,P18,D01,1,1,1
1415,-1.31,1645442862.96875,P18,D01,1,1,1
1416,-1.45,1645442862.984375,P18,D01,1,1,1
1417,-1.46,1645442863.0,P18,D01,1,1,1
1418,-1.31,1645442863.015625,P18,D01,1,1,1
1419,-1.04,1645442863.03125,P18,D01,1,1,1
1420,-0.76,1645442863.046875,P18,D01,1,1,1
1421,-0.57,1645442863.0625,P18,D01,1,1,1
1422,-0.51,1645442863.078125,P18,D01,1,1,1
1423,-0.56,1645442863.09375,P18,D01,1,1,1
1424,-0.67,1645442863.109375,P18,D01,1,1,1
1425,-0.77,1645442863.125,P18,D01,1,1,1
1426,-0.84,1645442863.140625,P18,D01,1,1,1
1427,-0.89,1645442863.15625,P18,D01,1,1,1
1428,-0.97,1645442863.171875,P18,D01,1,1,1
1429,-1.09,1645442863.1875,P18,D01,1,1,1
1430,-1.21,1645442863.203125,P18,D01,1,1,1
1431,-1.28,1645442863.21875,P18,D01,1,1,1
1432,-1.26,1645442863.234375,P18,D01,1,1,1
1433,-1.13,1645442863.25,P18,D01,1,1,1
1434,-0.92,1645442863.265625,P18,D01,1,1,1
1435,-0.68,1645442863.28125,P18,D01,1,1,1
1436,-0.45,1645442863.296875,P18,D01,1,1,1
1437,-0.27,1645442863.3125,P18,D01,1,1,1
1438,-0.15,1645442863.328125,P18,D01,1,1,1
1439,-0.08,1645442863.34375,P18,D01,1,1,1
1440,-0.03,1645442863.359375,P18,D01,1,1,1
1441,0.05,1645442863.375,P18,D01,1,1,1
1442,0.2,1645442863.390625,P18,D01,1,1,1
1443,0.43,1645442863.40625,P18,D01,1,1,1
1444,0.69,1645442863.421875,P18,D01,1,1,1
1445,0.88,1645442863.4375,P18,D01,1,1,1
1446,0.95,1645442863.453125,P18,D01,1,1,1
1447,0.88,1645442863.46875,P18,D01,1,1,1
1448,0.77,1645442863.484375,P18,D01,1,1,1
1449,0.75,1645442863.5,P18,D01,1,1,1
1450,0.91,1645442863.515625,P18,D01,1,1,1
1451,1.24,1645442863.53125,P18,D01,1,1,1
1452,1.65,1645442863.546875,P18,D01,1,1,1
1453,2.01,1645442863.5625,P18,D01,1,1,1
1454,2.2,1645442863.578125,P18,D01,1,1,1
1455,2.19,1645442863.59375,P18,D01,1,1,1
1456,1.99,1645442863.609375,P18,D01,1,1,1
1457,1.67,1645442863.625,P18,D01,1,1,1
1458,1.33,1645442863.640625,P18,D01,1,1,1
1459,1.04,1645442863.65625,P18,D01,1,1,1
1460,0.88,1645442863.671875,P18,D01,1,1,1
1461,0.83,1645442863.6875,P18,D01,1,1,1
1462,0.87,1645442863.703125,P18,D01,1,1,1
1463,0.89,1645442863.71875,P18,D01,1,1,1
1464,0.82,1645442863.734375,P18,D01,1,1,1
1465,0.64,1645442863.75,P18,D01,1,1,1
1466,0.38,1645442863.765625,P18,D01,1,1,1
1467,0.13,1645442863.78125,P18,D01,1,1,1
1468,-0.06,1645442863.796875,P18,D01,1,1,1
1469,-0.2,1645442863.8125,P18,D01,1,1,1
1470,-0.34,1645442863.828125,P18,D01,1,1,1
1471,-0.52,1645442863.84375,P18,D01,1,1,1
1472,-0.72,1645442863.859375,P18,D01,1,1,1
1473,-0.92,1645442863.875,P18,D01,1,1,1
1474,-1.05,1645442863.890625,P18,D01,1,1,1
1475,-1.12,1645442863.90625,P18,D01,1,1,1
1476,-1.18,1645442863.921875,P18,D01,1,1,1
1477,-1.29,1645442863.9375,P18,D01,1,1,1
1478,-1.46,1645442863.953125,P18,D01,1,1,1
1479,-1.65,1645442863.96875,P18,D01,1,1,1
1480,-1.78,1645442863.984375,P18,D01,1,1,1
1481,-1.78,1645442864.0,P18,D01,1,1,1
1482,-1.64,1645442864.015625,P18,D01,1,1,1
1483,-1.4,1645442864.03125,P18,D01,1,1,1
1484,-1.14,1645442864.046875,P18,D01,1,1,1
1485,-0.96,1645442864.0625,P18,D01,1,1,1
1486,-0.9,1645442864.078125,P18,D01,1,1,1
1487,-0.97,1645442864.09375,P18,D01,1,1,1
1488,-1.09,1645442864.109375,P18,D01,1,1,1
1489,-1.19,1645442864.125,P18,D01,1,1,1
1490,-1.17,1645442864.140625,P18,D01,1,1,1
1491,-1.01,1645442864.15625,P18,D01,1,1,1
1492,-0.73,1645442864.171875,P18,D01,1,1,1
1493,-0.39,1645442864.1875,P18,D01,1,1,1
1494,-0.11,1645442864.203125,P18,D01,1,1,1
1495,0.04,1645442864.21875,P18,D01,1,1,1
1496,0.05,1645442864.234375,P18,D01,1,1,1
1497,0.01,1645442864.25,P18,D01,1,1,1
1498,0.0,1645442864.265625,P18,D01,1,1,1
1499,0.12,1645442864.28125,P18,D01,1,1,1
1500,0.36,1645442864.296875,P18,D01,1,1,1
1501,0.65,1645442864.3125,P18,D01,1,1,1
1502,0.9,1645442864.328125,P18,D01,1,1,1
1503,1.05,1645442864.34375,P18,D01,1,1,1
1504,1.1,1645442864.359375,P18,D01,1,1,1
1505,1.1,1645442864.375,P18,D01,1,1,1
1506,1.11,1645442864.390625,P18,D01,1,1,1
1507,1.12,1645442864.40625,P18,D01,1,1,1
1508,1.08,1645442864.421875,P18,D01,1,1,1
1509,0.92,1645442864.4375,P18,D01,1,1,1
1510,0.64,1645442864.453125,P18,D01,1,1,1
1511,0.35,1645442864.46875,P18,D01,1,1,1
1512,0.18,1645442864.484375,P18,D01,1,1,1
1513,0.22,1645442864.5,P18,D01,1,1,1
1514,0.47,1645442864.515625,P18,D01,1,1,1
1515,0.77,1645442864.53125,P18,D01,1,1,1
1516,0.95,1645442864.546875,P18,D01,1,1,1
1517,0.9,1645442864.5625,P18,D01,1,1,1
1518,0.65,1645442864.578125,P18,D01,1,1,1
1519,0.34,1645442864.59375,P18,D01,1,1,1
1520,0.14,1645442864.609375,P18,D01,1,1,1
1521,0.12,1645442864.625,P18,D01,1,1,1
1522,0.24,1645442864.640625,P18,D01,1,1,1
1523,0.36,1645442864.65625,P18,D01,1,1,1
1524,0.35,1645442864.671875,P18,D01,1,1,1
1525,0.15,1645442864.6875,P18,D01,1,1,1
1526,-0.19,1645442864.703125,P18,D01,1,1,1
1527,-0.59,1645442864.71875,P18,D01,1,1,1
1528,-0.94,1645442864.734375,P18,D01,1,1,1
1529,-1.18,1645442864.75,P18,D01,1,1,1
1530,-1.29,1645442864.765625,P18,D01,1,1,1
1531,-1.27,1645442864.78125,P18,D01,1,1,1
1532,-1.12,1645442864.796875,P18,D01,1,1,1
1533,-0.88,1645442864.8125,P18,D01,1,1,1
1534,-0.59,1645442864.828125,P18,D01,1,1,1
1535,-0.31,1645442864.84375,P18,D01,1,1,1
1536,-0.11,1645442864.859375,P18,D01,1,1,1
1537,-0.0,1645442864.875,P18,D01,1,1,1
1538,0.02,1645442864.890625,P18,D01,1,1,1
1539,0.01,1645442864.90625,P18,D01,1,1,1
1540,0.02,1645442864.921875,P18,D01,1,1,1
1541,0.07,1645442864.9375,P18,D01,1,1,1
1542,0.12,1645442864.953125,P18,D01,1,1,1
1543,0.14,1645442864.96875,P18,D01,1,1,1
1544,0.12,1645442864.984375,P18,D01,1,1,1
1545,0.09,1645442865.0,P18,D01,1,1,1
1546,0.08,1645442865.015625,P18,D01,1,1,1
1547,0.1,1645442865.03125,P18,D01,1,1,1
1548,0.14,1645442865.046875,P18,D01,1,1,1
1549,0.14,1645442865.0625,P18,D01,1,1,1
1550,0.06,1645442865.078125,P18,D01,1,1,1
1551,-0.11,1645442865.09375,P18,D01,1,1,1
1552,-0.29,1645442865.109375,P18,D01,1,1,1
1553,-0.4,1645442865.125,P18,D01,1,1,1
1554,-0.36,1645442865.140625,P18,D01,1,1,1
1555,-0.17,1645442865.15625,P18,D01,1,1,1
1556,0.1,1645442865.171875,P18,D01,1,1,1
1557,0.34,1645442865.1875,P18,D01,1,1,1
1558,0.48,1645442865.203125,P18,D01,1,1,1
1559,0.51,1645442865.21875,P18,D01,1,1,1
1560,0.49,1645442865.234375,P18,D01,1,1,1
1561,0.51,1645442865.25,P18,D01,1,1,1
1562,0.64,1645442865.265625,P18,D01,1,1,1
1563,0.87,1645442865.28125,P18,D01,1,1,1
1564,1.12,1645442865.296875,P18,D01,1,1,1
1565,1.27,1645442865.3125,P18,D01,1,1,1
1566,1.23,1645442865.328125,P18,D01,1,1,1
1567,0.99,1645442865.34375,P18,D01,1,1,1
1568,0.63,1645442865.359375,P18,D01,1,1,1
1569,0.26,1645442865.375,P18,D01,1,1,1
1570,-0.01,1645442865.390625,P18,D01,1,1,1
1571,-0.15,1645442865.40625,P18,D01,1,1,1
1572,-0.18,1645442865.421875,P18,D01,1,1,1
1573,-0.17,1645442865.4375,P18,D01,1,1,1
1574,-0.15,1645442865.453125,P18,D01,1,1,1
1575,-0.16,1645442865.46875,P18,D01,1,1,1
1576,-0.21,1645442865.484375,P18,D01,1,1,1
1577,-0.28,1645442865.5,P18,D01,1,1,1
1578,-0.35,1645442865.515625,P18,D01,1,1,1
1579,-0.41,1645442865.53125,P18,D01,1,1,1
1580,-0.46,1645442865.546875,P18,D01,1,1,1
1581,-0.51,1645442865.5625,P18,D01,1,1,1
1582,-0.56,1645442865.578125,P18,D01,1,1,1
1583,-0.62,1645442865.59375,P18,D01,1,1,1
1584,-0.67,1645442865.609375,P18,D01,1,1,1
1585,-0.7,1645442865.625,P18,D01,1,1,1
1586,-0.67,1645442865.640625,P18,D01,1,1,1
1587,-0.56,1645442865.65625,P18,D01,1,1,1
1588,-0.36,1645442865.671875,P18,D01,1,1,1
1589,-0.15,1645442865.6875,P18,D01,1,1,1
1590,0.03,1645442865.703125,P18,D01,1,1,1
1591,0.08,1645442865.71875,P18,D01,1,1,1
1592,-0.02,1645442865.734375,P18,D01,1,1,1
1593,-0.21,1645442865.75,P18,D01,1,1,1
1594,-0.42,1645442865.765625,P18,D01,1,1,1
1595,-0.56,1645442865.78125,P18,D01,1,1,1
1596,-0.6,1645442865.796875,P18,D01,1,1,1
1597,-0.55,1645442865.8125,P18,D01,1,1,1
1598,-0.44,1645442865.828125,P18,D01,1,1,1
1599,-0.32,1645442865.84375,P18,D01,1,1,1
1600,-0.21,1645442865.859375,P18,D01,1,1,1
1601,-0.15,1645442865.875,P18,D01,1,1,1
1602,-0.13,1645442865.890625,P18,D01,1,1,1
1603,-0.15,1645442865.90625,P18,D01,1,1,1
1604,-0.18,1645442865.921875,P18,D01,1,1,1
1605,-0.18,1645442865.9375,P18,D01,1,1,1
1606,-0.07,1645442865.953125,P18,D01,1,1,1
1607,0.14,1645442865.96875,P18,D01,1,1,1
1608,0.41,1645442865.984375,P18,D01,1,1,1
1609,0.63,1645442866.0,P18,D01,1,1,1
1610,0.73,1645442866.015625,P18,D01,1,1,1
1611,0.66,1645442866.03125,P18,D01,1,1,1
1612,0.5,1645442866.046875,P18,D01,1,1,1
1613,0.38,1645442866.0625,P18,D01,1,1,1
1614,0.41,1645442866.078125,P18,D01,1,1,1
1615,0.58,1645442866.09375,P18,D01,1,1,1
1616,0.76,1645442866.109375,P18,D01,1,1,1
1617,0.79,1645442866.125,P18,D01,1,1,1
1618,0.57,1645442866.140625,P18,D01,1,1,1
1619,0.12,1645442866.15625,P18,D01,1,1,1
1620,-0.39,1645442866.171875,P18,D01,1,1,1
1621,-0.78,1645442866.1875,P18,D01,1,1,1
1622,-0.92,1645442866.203125,P18,D01,1,1,1
1623,-0.82,1645442866.21875,P18,D01,1,1,1
1624,-0.59,1645442866.234375,P18,D01,1,1,1
1625,-0.33,1645442866.25,P18,D01,1,1,1
1626,-0.11,1645442866.265625,P18,D01,1,1,1
1627,0.09,1645442866.28125,P18,D01,1,1,1
1628,0.34,1645442866.296875,P18,D01,1,1,1
1629,0.67,1645442866.3125,P18,D01,1,1,1
1630,1.05,1645442866.328125,P18,D01,1,1,1
1631,1.36,1645442866.34375,P18,D01,1,1,1
1632,1.47,1645442866.359375,P18,D01,1,1,1
1633,1.27,1645442866.375,P18,D01,1,1,1
1634,0.75,1645442866.390625,P18,D01,1,1,1
1635,0.05,1645442866.40625,P18,D01,1,1,1
1636,-0.65,1645442866.421875,P18,D01,1,1,1
1637,-1.13,1645442866.4375,P18,D01,1,1,1
1638,-1.27,1645442866.453125,P18,D01,1,1,1
1639,-1.03,1645442866.46875,P18,D01,1,1,1
1640,-0.52,1645442866.484375,P18,D01,1,1,1
1641,0.1,1645442866.5,P18,D01,1,1,1
1642,0.67,1645442866.515625,P18,D01,1,1,1
1643,1.09,1645442866.53125,P18,D01,1,1,1
1644,1.34,1645442866.546875,P18,D01,1,1,1
1645,1.45,1645442866.5625,P18,D01,1,1,1
1646,1.47,1645442866.578125,P18,D01,1,1,1
1647,1.43,1645442866.59375,P18,D01,1,1,1
1648,1.33,1645442866.609375,P18,D01,1,1,1
1649,1.19,1645442866.625,P18,D01,1,1,1
1650,1.05,1645442866.640625,P18,D01,1,1,1
1651,0.96,1645442866.65625,P18,D01,1,1,1
1652,0.99,1645442866.671875,P18,D01,1,1,1
1653,1.15,1645442866.6875,P18,D01,1,1,1
1654,1.36,1645442866.703125,P18,D01,1,1,1
1655,1.48,1645442866.71875,P18,D01,1,1,1
1656,1.39,1645442866.734375,P18,D01,1,1,1
1657,1.02,1645442866.75,P18,D01,1,1,1
1658,0.44,1645442866.765625,P18,D01,1,1,1
1659,-0.2,1645442866.78125,P18,D01,1,1,1
1660,-0.73,1645442866.796875,P18,D01,1,1,1
1661,-1.03,1645442866.8125,P18,D01,1,1,1
1662,-1.08,1645442866.828125,P18,D01,1,1,1
1663,-0.95,1645442866.84375,P18,D01,1,1,1
1664,-0.76,1645442866.859375,P18,D01,1,1,1
1665,-0.59,1645442866.875,P18,D01,1,1,1
1666,-0.48,1645442866.890625,P18,D01,1,1,1
1667,-0.43,1645442866.90625,P18,D01,1,1,1
1668,-0.41,1645442866.921875,P18,D01,1,1,1
1669,-0.42,1645442866.9375,P18,D01,1,1,1
1670,-0.46,1645442866.953125,P18,D01,1,1,1
1671,-0.58,1645442866.96875,P18,D01,1,1,1
1672,-0.74,1645442866.984375,P18,D01,1,1,1
1673,-0.93,1645442867.0,P18,D01,1,1,1
1674,-1.07,1645442867.015625,P18,D01,1,1,1
1675,-1.14,1645442867.03125,P18,D01,1,1,1
1676,-1.17,1645442867.046875,P18,D01,1,1,1
1677,-1.17,1645442867.0625,P18,D01,1,1,1
1678,-1.17,1645442867.078125,P18,D01,1,1,1
1679,-1.09,1645442867.09375,P18,D01,1,1,1
1680,-0.87,1645442867.109375,P18,D01,1,1,1
1681,-0.46,1645442867.125,P18,D01,1,1,1
1682,0.09,1645442867.140625,P18,D01,1,1,1
1683,0.64,1645442867.15625,P18,D01,1,1,1
1684,0.99,1645442867.171875,P18,D01,1,1,1
1685,1.06,1645442867.1875,P18,D01,1,1,1
1686,0.87,1645442867.203125,P18,D01,1,1,1
1687,0.59,1645442867.21875,P18,D01,1,1,1
1688,0.37,1645442867.234375,P18,D01,1,1,1
1689,0.29,1645442867.25,P18,D01,1,1,1
1690,0.31,1645442867.265625,P18,D01,1,1,1
1691,0.35,1645442867.28125,P18,D01,1,1,1
1692,0.31,1645442867.296875,P18,D01,1,1,1
1693,0.22,1645442867.3125,P18,D01,1,1,1
1694,0.12,1645442867.328125,P18,D01,1,1,1
1695,0.08,1645442867.34375,P18,D01,1,1,1
1696,0.13,1645442867.359375,P18,D01,1,1,1
1697,0.22,1645442867.375,P18,D01,1,1,1
1698,0.33,1645442867.390625,P18,D01,1,1,1
1699,0.45,1645442867.40625,P18,D01,1,1,1
1700,0.59,1645442867.421875,P18,D01,1,1,1
1701,0.78,1645442867.4375,P18,D01,1,1,1
1702,0.98,1645442867.453125,P18,D01,1,1,1
1703,1.11,1645442867.46875,P18,D01,1,1,1
1704,1.06,1645442867.484375,P18,D01,1,1,1
1705,0.78,1645442867.5,P18,D01,1,1,1
1706,0.33,1645442867.515625,P18,D01,1,1,1
1707,-0.16,1645442867.53125,P18,D01,1,1,1
1708,-0.51,1645442867.546875,P18,D01,1,1,1
1709,-0.59,1645442867.5625,P18,D01,1,1,1
1710,-0.36,1645442867.578125,P18,D01,1,1,1
1711,0.12,1645442867.59375,P18,D01,1,1,1
1712,0.69,1645442867.609375,P18,D01,1,1,1
1713,1.18,1645442867.625,P18,D01,1,1,1
1714,1.45,1645442867.640625,P18,D01,1,1,1
1715,1.47,1645442867.65625,P18,D01,1,1,1
1716,1.28,1645442867.671875,P18,D01,1,1,1
1717,1.02,1645442867.6875,P18,D01,1,1,1
1718,0.81,1645442867.703125,P18,D01,1,1,1
1719,0.75,1645442867.71875,P18,D01,1,1,1
1720,0.88,1645442867.734375,P18,D01,1,1,1
1721,1.17,1645442867.75,P18,D01,1,1,1
1722,1.57,1645442867.765625,P18,D01,1,1,1
1723,2.01,1645442867.78125,P18,D01,1,1,1
1724,2.42,1645442867.796875,P18,D01,1,1,1
1725,2.72,1645442867.8125,P18,D01,1,1,1
1726,2.88,1645442867.828125,P18,D01,1,1,1
1727,2.91,1645442867.84375,P18,D01,1,1,1
1728,2.88,1645442867.859375,P18,D01,1,1,1
1729,2.88,1645442867.875,P18,D01,1,1,1
1730,3.03,1645442867.890625,P18,D01,1,1,1
1731,3.41,1645442867.90625,P18,D01,1,1,1
1732,4.1,1645442867.921875,P18,D01,1,1,1
1733,5.09,1645442867.9375,P18,D01,1,1,1
1734,6.34,1645442867.953125,P18,D01,1,1,1
1735,7.73,1645442867.96875,P18,D01,1,1,1
1736,9.11,1645442867.984375,P18,D01,1,1,1
1737,10.31,1645442868.0,P18,D01,1,1,1
1738,11.23,1645442868.015625,P18,D01,1,1,1
1739,11.88,1645442868.03125,P18,D01,1,1,1
1740,12.4,1645442868.046875,P18,D01,1,1,1
1741,12.94,1645442868.0625,P18,D01,1,1,1
1742,13.66,1645442868.078125,P18,D01,1,1,1
1743,14.56,1645442868.09375,P18,D01,1,1,1
1744,15.53,1645442868.109375,P18,D01,1,1,1
1745,16.38,1645442868.125,P18,D01,1,1,1
1746,16.98,1645442868.140625,P18,D01,1,1,1
1747,17.25,1645442868.15625,P18,D01,1,1,1
1748,17.19,1645442868.171875,P18,D01,1,1,1
1749,16.8,1645442868.1875,P18,D01,1,1,1
1750,16.11,1645442868.203125,P18,D01,1,1,1
1751,15.21,1645442868.21875,P18,D01,1,1,1
1752,14.26,1645442868.234375,P18,D01,1,1,1
1753,13.42,1645442868.25,P18,D01,1,1,1
1754,12.78,1645442868.265625,P18,D01,1,1,1
1755,12.26,1645442868.28125,P18,D01,1,1,1
1756,11.61,1645442868.296875,P18,D01,1,1,1
1757,10.59,1645442868.3125,P18,D01,1,1,1
1758,9.14,1645442868.328125,P18,D01,1,1,1
1759,7.48,1645442868.34375,P18,D01,1,1,1
1760,6.09,1645442868.359375,P18,D01,1,1,1
1761,5.44,1645442868.375,P18,D01,1,1,1
1762,5.77,1645442868.390625,P18,D01,1,1,1
1763,6.96,1645442868.40625,P18,D01,1,1,1
1764,8.6,1645442868.421875,P18,D01,1,1,1
1765,10.2,1645442868.4375,P18,D01,1,1,1
1766,11.47,1645442868.453125,P18,D01,1,1,1
1767,12.34,1645442868.46875,P18,D01,1,1,1
1768,12.97,1645442868.484375,P18,D01,1,1,1
1769,13.53,1645442868.5,P18,D01,1,1,1
1770,14.11,1645442868.515625,P18,D01,1,1,1
1771,14.66,1645442868.53125,P18,D01,1,1,1
1772,15.08,1645442868.546875,P18,D01,1,1,1
1773,15.24,1645442868.5625,P18,D01,1,1,1
1774,14.98,1645442868.578125,P18,D01,1,1,1
1775,14.11,1645442868.59375,P18,D01,1,1,1
1776,12.33,1645442868.609375,P18,D01,1,1,1
1777,9.25,1645442868.625,P18,D01,1,1,1
1778,4.53,1645442868.640625,P18,D01,1,1,1
1779,-1.98,1645442868.65625,P18,D01,1,1,1
1780,-10.04,1645442868.671875,P18,D01,1,1,1
1781,-19.01,1645442868.6875,P18,D01,1,1,1
1782,-27.97,1645442868.703125,P18,D01,1,1,1
1783,-35.93,1645442868.71875,P18,D01,1,1,1
1784,-42.12,1645442868.734375,P18,D01,1,1,1
1785,-46.12,1645442868.75,P18,D01,1,1,1
1786,-47.9,1645442868.765625,P18,D01,1,1,1
1787,-47.81,1645442868.78125,P18,D01,1,1,1
1788,-46.34,1645442868.796875,P18,D01,1,1,1
1789,-44.06,1645442868.8125,P18,D01,1,1,1
1790,-41.46,1645442868.828125,P18,D01,1,1,1
1791,-38.92,1645442868.84375,P18,D01,1,1,1
1792,-36.64,1645442868.859375,P18,D01,1,1,1
1793,-34.65,1645442868.875,P18,D01,1,1,1
1794,-32.85,1645442868.890625,P18,D01,1,1,1
1795,-31.03,1645442868.90625,P18,D01,1,1,1
1796,-28.97,1645442868.921875,P18,D01,1,1,1
1797,-26.48,1645442868.9375,P18,D01,1,1,1
1798,-23.48,1645442868.953125,P18,D01,1,1,1
1799,-20.02,1645442868.96875,P18,D01,1,1,1
1800,-16.3,1645442868.984375,P18,D01,1,1,1
1801,-12.63,1645442869.0,P18,D01,1,1,1
1802,-9.36,1645442869.015625,P18,D01,1,1,1
1803,-6.8,1645442869.03125,P18,D01,1,1,1
1804,-5.09,1645442869.046875,P18,D01,1,1,1
1805,-4.18,1645442869.0625,P18,D01,1,1,1
1806,-3.78,1645442869.078125,P18,D01,1,1,1
1807,-3.51,1645442869.09375,P18,D01,1,1,1
1808,-3.03,1645442869.109375,P18,D01,1,1,1
1809,-2.14,1645442869.125,P18,D01,1,1,1
1810,-0.9,1645442869.140625,P18,D01,1,1,1
1811,0.49,1645442869.15625,P18,D01,1,1,1
1812,1.77,1645442869.171875,P18,D01,1,1,1
1813,2.8,1645442869.1875,P18,D01,1,1,1
1814,3.56,1645442869.203125,P18,D01,1,1,1
1815,4.14,1645442869.21875,P18,D01,1,1,1
1816,4.68,1645442869.234375,P18,D01,1,1,1
1817,5.21,1645442869.25,P18,D01,1,1,1
1818,5.72,1645442869.265625,P18,D01,1,1,1
1819,6.12,1645442869.28125,P18,D01,1,1,1
1820,6.37,1645442869.296875,P18,D01,1,1,1
1821,6.47,1645442869.3125,P18,D01,1,1,1
1822,6.47,1645442869.328125,P18,D01,1,1,1
1823,6.45,1645442869.34375,P18,D01,1,1,1
1824,6.45,1645442869.359375,P18,D01,1,1,1
1825,6.49,1645442869.375,P18,D01,1,1,1
1826,6.51,1645442869.390625,P18,D01,1,1,1
1827,6.46,1645442869.40625,P18,D01,1,1,1
1828,6.31,1645442869.421875,P18,D01,1,1,1
1829,6.06,1645442869.4375,P18,D01,1,1,1
1830,5.74,1645442869.453125,P18,D01,1,1,1
1831,5.39,1645442869.46875,P18,D01,1,1,1
1832,5.04,1645442869.484375,P18,D01,1,1,1
1833,4.68,1645442869.5,P18,D01,1,1,1
1834,4.28,1645442869.515625,P18,D01,1,1,1
1835,3.81,1645442869.53125,P18,D01,1,1,1
1836,3.25,1645442869.546875,P18,D01,1,1,1
1837,2.64,1645442869.5625,P18,D01,1,1,1
1838,2.03,1645442869.578125,P18,D01,1,1,1
1839,1.5,1645442869.59375,P18,D01,1,1,1
1840,1.08,1645442869.609375,P18,D01,1,1,1
1841,0.76,1645442869.625,P18,D01,1,1,1
1842,0.49,1645442869.640625,P18,D01,1,1,1
1843,0.23,1645442869.65625,P18,D01,1,1,1
1844,-0.01,1645442869.671875,P18,D01,1,1,1
1845,-0.23,1645442869.6875,P18,D01,1,1,1
1846,-0.37,1645442869.703125,P18,D01,1,1,1
1847,-0.43,1645442869.71875,P18,D01,1,1,1
1848,-0.45,1645442869.734375,P18,D01,1,1,1
1849,-0.46,1645442869.75,P18,D01,1,1,1
1850,-0.53,1645442869.765625,P18,D01,1,1,1
1851,-0.66,1645442869.78125,P18,D01,1,1,1
1852,-0.81,1645442869.796875,P18,D01,1,1,1
1853,-0.92,1645442869.8125,P18,D01,1,1,1
1854,-0.97,1645442869.828125,P18,D01,1,1,1
1855,-0.93,1645442869.84375,P18,D01,1,1,1
1856,-0.85,1645442869.859375,P18,D01,1,1,1
1857,-0.78,1645442869.875,P18,D01,1,1,1
1858,-0.73,1645442869.890625,P18,D01,1,1,1
1859,-0.72,1645442869.90625,P18,D01,1,1,1
1860,-0.76,1645442869.921875,P18,D01,1,1,1
1861,-0.82,1645442869.9375,P18,D01,1,1,1
1862,-0.94,1645442869.953125,P18,D01,1,1,1
1863,-1.08,1645442869.96875,P18,D01,1,1,1
1864,-1.21,1645442869.984375,P18,D01,1,1,1
1865,-1.23,1645442870.0,P18,D01,1,1,1
1866,-1.1,1645442870.015625,P18,D01,1,1,1
1867,-0.82,1645442870.03125,P18,D01,1,1,1
1868,-0.52,1645442870.046875,P18,D01,1,1,1
1869,-0.36,1645442870.0625,P18,D01,1,1,1
1870,-0.48,1645442870.078125,P18,D01,1,1,1
1871,-0.9,1645442870.09375,P18,D01,1,1,1
1872,-1.47,1645442870.109375,P18,D01,1,1,1
1873,-1.94,1645442870.125,P18,D01,1,1,1
1874,-2.14,1645442870.140625,P18,D01,1,1,1
1875,-2.02,1645442870.15625,P18,D01,1,1,1
1876,-1.66,1645442870.171875,P18,D01,1,1,1
1877,-1.24,1645442870.1875,P18,D01,1,1,1
1878,-0.86,1645442870.203125,P18,D01,1,1,1
1879,-0.52,1645442870.21875,P18,D01,1,1,1
1880,-0.19,1645442870.234375,P18,D01,1,1,1
1881,0.15,1645442870.25,P18,D01,1,1,1
1882,0.43,1645442870.265625,P18,D01,1,1,1
1883,0.56,1645442870.28125,P18,D01,1,1,1
1884,0.5,1645442870.296875,P18,D01,1,1,1
1885,0.31,1645442870.3125,P18,D01,1,1,1
1886,0.14,1645442870.328125,P18,D01,1,1,1
1887,0.09,1645442870.34375,P18,D01,1,1,1
1888,0.19,1645442870.359375,P18,D01,1,1,1
1889,0.33,1645442870.375,P18,D01,1,1,1
1890,0.35,1645442870.390625,P18,D01,1,1,1
1891,0.18,1645442870.40625,P18,D01,1,1,1
1892,-0.14,1645442870.421875,P18,D01,1,1,1
1893,-0.49,1645442870.4375,P18,D01,1,1,1
1894,-0.75,1645442870.453125,P18,D01,1,1,1
1895,-0.85,1645442870.46875,P18,D01,1,1,1
1896,-0.84,1645442870.484375,P18,D01,1,1,1
1897,-0.76,1645442870.5,P18,D01,1,1,1
1898,-0.63,1645442870.515625,P18,D01,1,1,1
1899,-0.44,1645442870.53125,P18,D01,1,1,1
1900,-0.18,1645442870.546875,P18,D01,1,1,1
1901,0.11,1645442870.5625,P18,D01,1,1,1
1902,0.36,1645442870.578125,P18,D01,1,1,1
1903,0.47,1645442870.59375,P18,D01,1,1,1
1904,0.41,1645442870.609375,P18,D01,1,1,1
1905,0.25,1645442870.625,P18,D01,1,1,1
1906,0.06,1645442870.640625,P18,D01,1,1,1
1907,-0.05,1645442870.65625,P18,D01,1,1,1
1908,-0.07,1645442870.671875,P18,D01,1,1,1
1909,-0.03,1645442870.6875,P18,D01,1,1,1
1910,0.02,1645442870.703125,P18,D01,1,1,1
1911,0.05,1645442870.71875,P18,D01,1,1,1
1912,0.05,1645442870.734375,P18,D01,1,1,1
1913,0.06,1645442870.75,P18,D01,1,1,1
1914,0.11,1645442870.765625,P18,D01,1,1,1
1915,0.2,1645442870.78125,P18,D01,1,1,1
1916,0.31,1645442870.796875,P18,D01,1,1,1
1917,0.42,1645442870.8125,P18,D01,1,1,1
1918,0.49,1645442870.828125,P18,D01,1,1,1
1919,0.51,1645442870.84375,P18,D01,1,1,1
1920,0.46,1645442870.859375,P18,D01,1,1,1
1921,0.32,1645442870.875,P18,D01,1,1,1
1922,0.1,1645442870.890625,P18,D01,1,1,1
1923,-0.18,1645442870.90625,P18,D01,1,1,1
1924,-0.47,1645442870.921875,P18,D01,1,1,1
1925,-0.71,1645442870.9375,P18,D01,1,1,1
1926,-0.82,1645442870.953125,P18,D01,1,1,1
1927,-0.78,1645442870.96875,P18,D01,1,1,1
1928,-0.59,1645442870.984375,P18,D01,1,1,1
1929,-0.32,1645442871.0,P18,D01,1,1,1
1930,-0.05,1645442871.015625,P18,D01,1,1,1
1931,0.14,1645442871.03125,P18,D01,1,1,1
1932,0.22,1645442871.046875,P18,D01,1,1,1
1933,0.19,1645442871.0625,P18,D01,1,1,1
1934,0.11,1645442871.078125,P18,D01,1,1,1
1935,0.07,1645442871.09375,P18,D01,1,1,1
1936,0.14,1645442871.109375,P18,D01,1,1,1
1937,0.33,1645442871.125,P18,D01,1,1,1
1938,0.57,1645442871.140625,P18,D01,1,1,1
1939,0.75,1645442871.15625,P18,D01,1,1,1
1940,0.75,1645442871.171875,P18,D01,1,1,1
1941,0.54,1645442871.1875,P18,D01,1,1,1
1942,0.18,1645442871.203125,P18,D01,1,1,1
1943,-0.2,1645442871.21875,P18,D01,1,1,1
1944,-0.44,1645442871.234375,P18,D01,1,1,1
1945,-0.44,1645442871.25,P18,D01,1,1,1
1946,-0.24,1645442871.265625,P18,D01,1,1,1
1947,0.04,1645442871.28125,P18,D01,1,1,1
1948,0.28,1645442871.296875,P18,D01,1,1,1
1949,0.41,1645442871.3125,P18,D01,1,1,1
1950,0.48,1645442871.328125,P18,D01,1,1,1
1951,0.59,1645442871.34375,P18,D01,1,1,1
1952,0.78,1645442871.359375,P18,D01,1,1,1
1953,1.02,1645442871.375,P18,D01,1,1,1
1954,1.19,1645442871.390625,P18,D01,1,1,1
1955,1.13,1645442871.40625,P18,D01,1,1,1
1956,0.84,1645442871.421875,P18,D01,1,1,1
1957,0.42,1645442871.4375,P18,D01,1,1,1
1958,0.08,1645442871.453125,P18,D01,1,1,1
1959,-0.0,1645442871.46875,P18,D01,1,1,1
1960,0.2,1645442871.484375,P18,D01,1,1,1
1961,0.52,1645442871.5,P18,D01,1,1,1
1962,0.73,1645442871.515625,P18,D01,1,1,1
1963,0.63,1645442871.53125,P18,D01,1,1,1
1964,0.22,1645442871.546875,P18,D01,1,1,1
1965,-0.34,1645442871.5625,P18,D01,1,1,1
1966,-0.78,1645442871.578125,P18,D01,1,1,1
1967,-0.9,1645442871.59375,P18,D01,1,1,1
1968,-0.66,1645442871.609375,P18,D01,1,1,1
1969,-0.18,1645442871.625,P18,D01,1,1,1
1970,0.32,1645442871.640625,P18,D01,1,1,1
1971,0.69,1645442871.65625,P18,D01,1,1,1
1972,0.87,1645442871.671875,P18,D01,1,1,1
1973,0.87,1645442871.6875,P18,D01,1,1,1
1974,0.77,1645442871.703125,P18,D01,1,1,1
1975,0.6,1645442871.71875,P18,D01,1,1,1
1976,0.38,1645442871.734375,P18,D01,1,1,1
1977,0.12,1645442871.75,P18,D01,1,1,1
1978,-0.13,1645442871.765625,P18,D01,1,1,1
1979,-0.31,1645442871.78125,P18,D01,1,1,1
1980,-0.33,1645442871.796875,P18,D01,1,1,1
1981,-0.19,1645442871.8125,P18,D01,1,1,1
1982,0.06,1645442871.828125,P18,D01,1,1,1
1983,0.32,1645442871.84375,P18,D01,1,1,1
1984,0.51,1645442871.859375,P18,D01,1,1,1
1985,0.58,1645442871.875,P18,D01,1,1,1
1986,0.53,1645442871.890625,P18,D01,1,1,1
1987,0.4,1645442871.90625,P18,D01,1,1,1
1988,0.21,1645442871.921875,P18,D01,1,1,1
1989,-0.04,1645442871.9375,P18,D01,1,1,1
1990,-0.34,1645442871.953125,P18,D01,1,1,1
1991,-0.65,1645442871.96875,P18,D01,1,1,1
1992,-0.92,1645442871.984375,P18,D01,1,1,1
1993,-1.07,1645442872.0,P18,D01,1,1,1
1994,-1.09,1645442872.015625,P18,D01,1,1,1
1995,-1.0,1645442872.03125,P18,D01,1,1,1
1996,-0.84,1645442872.046875,P18,D01,1,1,1
1997,-0.69,1645442872.0625,P18,D01,1,1,1
1998,-0.53,1645442872.078125,P18,D01,1,1,1
1999,-0.36,1645442872.09375,P18,D01,1,1,1
2000,-0.14,1645442872.109375,P18,D01,1,1,1
2001,0.14,1645442872.125,P18,D01,1,1,1
2002,0.42,1645442872.140625,P18,D01,1,1,1
2003,0.66,1645442872.15625,P18,D01,1,1,1
2004,0.81,1645442872.171875,P18,D01,1,1,1
2005,0.89,1645442872.1875,P18,D01,1,1,1
2006,0.92,1645442872.203125,P18,D01,1,1,1
2007,0.93,1645442872.21875,P18,D01,1,1,1
2008,0.92,1645442872.234375,P18,D01,1,1,1
2009,0.86,1645442872.25,P18,D01,1,1,1
2010,0.73,1645442872.265625,P18,D01,1,1,1
2011,0.54,1645442872.28125,P18,D01,1,1,1
2012,0.38,1645442872.296875,P18,D01,1,1,1
2013,0.36,1645442872.3125,P18,D01,1,1,1
2014,0.54,1645442872.328125,P18,D01,1,1,1
2015,0.93,1645442872.34375,P18,D01,1,1,1
2016,1.43,1645442872.359375,P18,D01,1,1,1
2017,1.88,1645442872.375,P18,D01,1,1,1
2018,2.13,1645442872.390625,P18,D01,1,1,1
2019,2.08,1645442872.40625,P18,D01,1,1,1
2020,1.71,1645442872.421875,P18,D01,1,1,1
2021,1.1,1645442872.4375,P18,D01,1,1,1
2022,0.4,1645442872.453125,P18,D01,1,1,1
2023,-0.19,1645442872.46875,P18,D01,1,1,1
2024,-0.47,1645442872.484375,P18,D01,1,1,1
2025,-0.37,1645442872.5,P18,D01,1,1,1
2026,0.09,1645442872.515625,P18,D01,1,1,1
2027,0.74,1645442872.53125,P18,D01,1,1,1
2028,1.37,1645442872.546875,P18,D01,1,1,1
2029,1.74,1645442872.5625,P18,D01,1,1,1
2030,1.71,1645442872.578125,P18,D01,1,1,1
2031,1.24,1645442872.59375,P18,D01,1,1,1
2032,0.41,1645442872.609375,P18,D01,1,1,1
2033,-0.6,1645442872.625,P18,D01,1,1,1
2034,-1.56,1645442872.640625,P18,D01,1,1,1
2035,-2.31,1645442872.65625,P18,D01,1,1,1
2036,-2.72,1645442872.671875,P18,D01,1,1,1
2037,-2.81,1645442872.6875,P18,D01,1,1,1
2038,-2.69,1645442872.703125,P18,D01,1,1,1
2039,-2.48,1645442872.71875,P18,D01,1,1,1
2040,-2.33,1645442872.734375,P18,D01,1,1,1
2041,-2.3,1645442872.75,P18,D01,1,1,1
2042,-2.37,1645442872.765625,P18,D01,1,1,1
2043,-2.46,1645442872.78125,P18,D01,1,1,1
2044,-2.51,1645442872.796875,P18,D01,1,1,1
2045,-2.48,1645442872.8125,P18,D01,1,1,1
2046,-2.38,1645442872.828125,P18,D01,1,1,1
2047,-2.29,1645442872.84375,P18,D01,1,1,1
2048,-2.24,1645442872.859375,P18,D01,1,1,1
2049,-2.27,1645442872.875,P18,D01,1,1,1
2050,-2.36,1645442872.890625,P18,D01,1,1,1
2051,-2.48,1645442872.90625,P18,D01,1,1,1
2052,-2.63,1645442872.921875,P18,D01,1,1,1
2053,-2.83,1645442872.9375,P18,D01,1,1,1
2054,-3.06,1645442872.953125,P18,D01,1,1,1
2055,-3.27,1645442872.96875,P18,D01,1,1,1
2056,-3.37,1645442872.984375,P18,D01,1,1,1
2057,-3.24,1645442873.0,P18,D01,1,1,1
2058,-2.84,1645442873.015625,P18,D01,1,1,1
2059,-2.22,1645442873.03125,P18,D01,1,1,1
2060,-1.53,1645442873.046875,P18,D01,1,1,1
2061,-0.95,1645442873.0625,P18,D01,1,1,1
2062,-0.58,1645442873.078125,P18,D01,1,1,1
2063,-0.43,1645442873.09375,P18,D01,1,1,1
2064,-0.46,1645442873.109375,P18,D01,1,1,1
2065,-0.55,1645442873.125,P18,D01,1,1,1
2066,-0.62,1645442873.140625,P18,D01,1,1,1
2067,-0.63,1645442873.15625,P18,D01,1,1,1
2068,-0.55,1645442873.171875,P18,D01,1,1,1
2069,-0.39,1645442873.1875,P18,D01,1,1,1
2070,-0.18,1645442873.203125,P18,D01,1,1,1
2071,0.04,1645442873.21875,P18,D01,1,1,1
2072,0.2,1645442873.234375,P18,D01,1,1,1
2073,0.24,1645442873.25,P18,D01,1,1,1
2074,0.14,1645442873.265625,P18,D01,1,1,1
2075,-0.06,1645442873.28125,P18,D01,1,1,1
2076,-0.28,1645442873.296875,P18,D01,1,1,1
2077,-0.41,1645442873.3125,P18,D01,1,1,1
2078,-0.4,1645442873.328125,P18,D01,1,1,1
2079,-0.24,1645442873.34375,P18,D01,1,1,1
2080,0.0,1645442873.359375,P18,D01,1,1,1
2081,0.22,1645442873.375,P18,D01,1,1,1
2082,0.38,1645442873.390625,P18,D01,1,1,1
2083,0.46,1645442873.40625,P18,D01,1,1,1
2084,0.51,1645442873.421875,P18,D01,1,1,1
2085,0.58,1645442873.4375,P18,D01,1,1,1
2086,0.7,1645442873.453125,P18,D01,1,1,1
2087,0.87,1645442873.46875,P18,D01,1,1,1
2088,1.04,1645442873.484375,P18,D01,1,1,1
2089,1.2,1645442873.5,P18,D01,1,1,1
2090,1.32,1645442873.515625,P18,D01,1,1,1
2091,1.43,1645442873.53125,P18,D01,1,1,1
2092,1.56,1645442873.546875,P18,D01,1,1,1
2093,1.72,1645442873.5625,P18,D01,1,1,1
2094,1.94,1645442873.578125,P18,D01,1,1,1
2095,2.24,1645442873.59375,P18,D01,1,1,1
2096,2.63,1645442873.609375,P18,D01,1,1,1
2097,3.14,1645442873.625,P18,D01,1,1,1
2098,3.77,1645442873.640625,P18,D01,1,1,1
2099,4.46,1645442873.65625,P18,D01,1,1,1
2100,5.15,1645442873.671875,P18,D01,1,1,1
2101,5.73,1645442873.6875,P18,D01,1,1,1
2102,6.13,1645442873.703125,P18,D01,1,1,1
2103,6.37,1645442873.71875,P18,D01,1,1,1
2104,6.56,1645442873.734375,P18,D01,1,1,1
2105,6.82,1645442873.75,P18,D01,1,1,1
2106,7.24,1645442873.765625,P18,D01,1,1,1
2107,7.79,1645442873.78125,P18,D01,1,1,1
2108,8.31,1645442873.796875,P18,D01,1,1,1
2109,8.55,1645442873.8125,P18,D01,1,1,1
2110,8.31,1645442873.828125,P18,D01,1,1,1
2111,7.51,1645442873.84375,P18,D01,1,1,1
2112,6.33,1645442873.859375,P18,D01,1,1,1
2113,5.11,1645442873.875,P18,D01,1,1,1
2114,4.26,1645442873.890625,P18,D01,1,1,1
2115,4.01,1645442873.90625,P18,D01,1,1,1
2116,4.36,1645442873.921875,P18,D01,1,1,1
2117,5.02,1645442873.9375,P18,D01,1,1,1
2118,5.57,1645442873.953125,P18,D01,1,1,1
2119,5.73,1645442873.96875,P18,D01,1,1,1
2120,5.49,1645442873.984375,P18,D01,1,1,1
2121,5.18,1645442874.0,P18,D01,1,1,1
2122,5.25,1645442874.015625,P18,D01,1,1,1
2123,6.06,1645442874.03125,P18,D01,1,1,1
2124,7.65,1645442874.046875,P18,D01,1,1,1
2125,9.6,1645442874.0625,P18,D01,1,1,1
2126,11.27,1645442874.078125,P18,D01,1,1,1
2127,12.03,1645442874.09375,P18,D01,1,1,1
2128,11.65,1645442874.109375,P18,D01,1,1,1
2129,10.53,1645442874.125,P18,D01,1,1,1
2130,9.51,1645442874.140625,P18,D01,1,1,1
2131,9.57,1645442874.15625,P18,D01,1,1,1
2132,11.25,1645442874.171875,P18,D01,1,1,1
2133,14.42,1645442874.1875,P18,D01,1,1,1
2134,18.21,1645442874.203125,P18,D01,1,1,1
2135,21.44,1645442874.21875,P18,D01,1,1,1
2136,23.23,1645442874.234375,P18,D01,1,1,1
2137,23.41,1645442874.25,P18,D01,1,1,1
2138,22.56,1645442874.265625,P18,D01,1,1,1
2139,21.77,1645442874.28125,P18,D01,1,1,1
2140,22.09,1645442874.296875,P18,D01,1,1,1
2141,24.08,1645442874.3125,P18,D01,1,1,1
2142,27.81,1645442874.328125,P18,D01,1,1,1
2143,32.88,1645442874.34375,P18,D01,1,1,1
2144,38.48,1645442874.359375,P18,D01,1,1,1
2145,43.09,1645442874.375,P18,D01,1,1,1
2146,44.39,1645442874.390625,P18,D01,1,1,1
2147,39.68,1645442874.40625,P18,D01,1,1,1
2148,26.91,1645442874.421875,P18,D01,1,1,1
2149,5.86,1645442874.4375,P18,D01,1,1,1
2150,-21.14,1645442874.453125,P18,D01,1,1,1
2151,-49.79,1645442874.46875,P18,D01,1,1,1
2152,-75.31,1645442874.484375,P18,D01,1,1,1
2153,-94.25,1645442874.5,P18,D01,1,1,1
2154,-105.62,1645442874.515625,P18,D01,1,1,1
2155,-110.66,1645442874.53125,P18,D01,1,1,1
2156,-111.6,1645442874.546875,P18,D01,1,1,1
2157,-110.33,1645442874.5625,P18,D01,1,1,1
2158,-107.7,1645442874.578125,P18,D01,1,1,1
2159,-103.89,1645442874.59375,P18,D01,1,1,1
2160,-99.2,1645442874.609375,P18,D01,1,1,1
2161,-94.76,1645442874.625,P18,D01,1,1,1
2162,-92.33,1645442874.640625,P18,D01,1,1,1
2163,-93.71,1645442874.65625,P18,D01,1,1,1
2164,-99.8,1645442874.671875,P18,D01,1,1,1
2165,-110.02,1645442874.6875,P18,D01,1,1,1
2166,-122.25,1645442874.703125,P18,D01,1,1,1
2167,-133.15,1645442874.71875,P18,D01,1,1,1
2168,-138.55,1645442874.734375,P18,D01,1,1,1
2169,-134.18,1645442874.75,P18,D01,1,1,1
2170,-116.7,1645442874.765625,P18,D01,1,1,1
2171,-84.73,1645442874.78125,P18,D01,1,1,1
2172,-39.74,1645442874.796875,P18,D01,1,1,1
2173,13.79,1645442874.8125,P18,D01,1,1,1
2174,69.23,1645442874.828125,P18,D01,1,1,1
2175,119.59,1645442874.84375,P18,D01,1,1,1
2176,159.35,1645442874.859375,P18,D01,1,1,1
2177,185.81,1645442874.875,P18,D01,1,1,1
2178,199.36,1645442874.890625,P18,D01,1,1,1
2179,202.71,1645442874.90625,P18,D01,1,1,1
2180,199.58,1645442874.921875,P18,D01,1,1,1
2181,193.59,1645442874.9375,P18,D01,1,1,1
2182,187.52,1645442874.953125,P18,D01,1,1,1
2183,183.28,1645442874.96875,P18,D01,1,1,1
2184,182.14,1645442874.984375,P18,D01,1,1,1
2185,184.99,1645442875.0,P18,D01,1,1,1
2186,192.14,1645442875.015625,P18,D01,1,1,1
2187,202.8,1645442875.03125,P18,D01,1,1,1
2188,214.44,1645442875.046875,P18,D01,1,1,1
2189,222.61,1645442875.0625,P18,D01,1,1,1
2190,221.92,1645442875.078125,P18,D01,1,1,1
2191,207.88,1645442875.09375,P18,D01,1,1,1
2192,179.08,1645442875.109375,P18,D01,1,1,1
2193,138.38,1645442875.125,P18,D01,1,1,1
2194,92.31,1645442875.140625,P18,D01,1,1,1
2195,48.49,1645442875.15625,P18,D01,1,1,1
2196,12.35,1645442875.171875,P18,D01,1,1,1
2197,-14.94,1645442875.1875,P18,D01,1,1,1
2198,-36.26,1645442875.203125,P18,D01,1,1,1
2199,-56.09,1645442875.21875,P18,D01,1,1,1
2200,-77.45,1645442875.234375,P18,D01,1,1,1
2201,-99.95,1645442875.25,P18,D01,1,1,1
2202,-120.21,1645442875.265625,P18,D01,1,1,1
2203,-134.19,1645442875.28125,P18,D01,1,1,1
2204,-139.66,1645442875.296875,P18,D01,1,1,1
2205,-137.5,1645442875.3125,P18,D01,1,1,1
2206,-130.99,1645442875.328125,P18,D01,1,1,1
2207,-123.76,1645442875.34375,P18,D01,1,1,1
2208,-117.96,1645442875.359375,P18,D01,1,1,1
2209,-113.66,1645442875.375,P18,D01,1,1,1
2210,-109.45,1645442875.390625,P18,D01,1,1,1
2211,-103.96,1645442875.40625,P18,D01,1,1,1
2212,-96.87,1645442875.421875,P18,D01,1,1,1
2213,-89.06,1645442875.4375,P18,D01,1,1,1
2214,-81.99,1645442875.453125,P18,D01,1,1,1
2215,-76.78,1645442875.46875,P18,D01,1,1,1
2216,-73.56,1645442875.484375,P18,D01,1,1,1
2217,-71.49,1645442875.5,P18,D01,1,1,1
2218,-69.32,1645442875.515625,P18,D01,1,1,1
2219,-66.11,1645442875.53125,P18,D01,1,1,1
2220,-61.79,1645442875.546875,P18,D01,1,1,1
2221,-57.11,1645442875.5625,P18,D01,1,1,1
2222,-53.26,1645442875.578125,P18,D01,1,1,1
2223,-51.11,1645442875.59375,P18,D01,1,1,1
2224,-50.72,1645442875.609375,P18,D01,1,1,1
2225,-51.24,1645442875.625,P18,D01,1,1,1
2226,-51.35,1645442875.640625,P18,D01,1,1,1
2227,-49.99,1645442875.65625,P18,D01,1,1,1
2228,-47.0,1645442875.671875,P18,D01,1,1,1
2229,-43.29,1645442875.6875,P18,D01,1,1,1
2230,-40.47,1645442875.703125,P18,D01,1,1,1
2231,-40.02,1645442875.71875,P18,D01,1,1,1
2232,-42.5,1645442875.734375,P18,D01,1,1,1
2233,-47.25,1645442875.75,P18,D01,1,1,1
2234,-52.68,1645442875.765625,P18,D01,1,1,1
2235,-56.97,1645442875.78125,P18,D01,1,1,1
2236,-58.97,1645442875.796875,P18,D01,1,1,1
2237,-58.73,1645442875.8125,P18,D01,1,1,1
2238,-57.39,1645442875.828125,P18,D01,1,1,1
2239,-56.73,1645442875.84375,P18,D01,1,1,1
2240,-58.56,1645442875.859375,P18,D01,1,1,1
2241,-64.15,1645442875.875,P18,D01,1,1,1
2242,-73.81,1645442875.890625,P18,D01,1,1,1
2243,-86.48,1645442875.90625,P18,D01,1,1,1
2244,-99.35,1645442875.921875,P18,D01,1,1,1
2245,-108.02,1645442875.9375,P18,D01,1,1,1
2246,-107.38,1645442875.953125,P18,D01,1,1,1
2247,-93.44,1645442875.96875,P18,D01,1,1,1
2248,-65.27,1645442875.984375,P18,D01,1,1,1
2249,-26.05,1645442876.0,P18,D01,1,1,1
2250,17.48,1645442876.015625,P18,D01,1,1,1
2251,57.26,1645442876.03125,P18,D01,1,1,1
2252,86.8,1645442876.046875,P18,D01,1,1,1
2253,103.33,1645442876.0625,P18,D01,1,1,1
2254,108.11,1645442876.078125,P18,D01,1,1,1
2255,104.99,1645442876.09375,P18,D01,1,1,1
2256,98.16,1645442876.109375,P18,D01,1,1,1
2257,90.44,1645442876.125,P18,D01,1,1,1
2258,82.85,1645442876.140625,P18,D01,1,1,1
2259,75.37,1645442876.15625,P18,D01,1,1,1
2260,68.01,1645442876.171875,P18,D01,1,1,1
2261,61.35,1645442876.1875,P18,D01,1,1,1
2262,56.34,1645442876.203125,P18,D01,1,1,1
2263,53.56,1645442876.21875,P18,D01,1,1,1
2264,52.69,1645442876.234375,P18,D01,1,1,1
2265,52.54,1645442876.25,P18,D01,1,1,1
2266,51.6,1645442876.265625,P18,D01,1,1,1
2267,48.8,1645442876.28125,P18,D01,1,1,1
2268,44.0,1645442876.296875,P18,D01,1,1,1
2269,38.02,1645442876.3125,P18,D01,1,1,1
2270,32.27,1645442876.328125,P18,D01,1,1,1
2271,28.08,1645442876.34375,P18,D01,1,1,1
2272,26.19,1645442876.359375,P18,D01,1,1,1
2273,26.5,1645442876.375,P18,D01,1,1,1
2274,28.14,1645442876.390625,P18,D01,1,1,1
2275,29.94,1645442876.40625,P18,D01,1,1,1
2276,30.85,1645442876.421875,P18,D01,1,1,1
2277,30.38,1645442876.4375,P18,D01,1,1,1
2278,28.72,1645442876.453125,P18,D01,1,1,1
2279,26.57,1645442876.46875,P18,D01,1,1,1
2280,24.73,1645442876.484375,P18,D01,1,1,1
2281,23.73,1645442876.5,P18,D01,1,1,1
2282,23.6,1645442876.515625,P18,D01,1,1,1
2283,23.93,1645442876.53125,P18,D01,1,1,1
2284,24.1,1645442876.546875,P18,D01,1,1,1
2285,23.63,1645442876.5625,P18,D01,1,1,1
2286,22.34,1645442876.578125,P18,D01,1,1,1
2287,20.4,1645442876.59375,P18,D01,1,1,1
2288,18.18,1645442876.609375,P18,D01,1,1,1
2289,16.05,1645442876.625,P18,D01,1,1,1
2290,14.22,1645442876.640625,P18,D01,1,1,1
2291,12.69,1645442876.65625,P18,D01,1,1,1
2292,11.32,1645442876.671875,P18,D01,1,1,1
2293,9.96,1645442876.6875,P18,D01,1,1,1
2294,8.54,1645442876.703125,P18,D01,1,1,1
2295,7.08,1645442876.71875,P18,D01,1,1,1
2296,5.7,1645442876.734375,P18,D01,1,1,1
2297,4.5,1645442876.75,P18,D01,1,1,1
2298,3.49,1645442876.765625,P18,D01,1,1,1
2299,2.59,1645442876.78125,P18,D01,1,1,1
2300,1.63,1645442876.796875,P18,D01,1,1,1
2301,0.45,1645442876.8125,P18,D01,1,1,1
2302,-1.02,1645442876.828125,P18,D01,1,1,1
2303,-2.72,1645442876.84375,P18,D01,1,1,1
2304,-4.47,1645442876.859375,P18,D01,1,1,1
2305,-6.06,1645442876.875,P18,D01,1,1,1
2306,-7.35,1645442876.890625,P18,D01,1,1,1
2307,-8.27,1645442876.90625,P18,D01,1,1,1
2308,-8.86,1645442876.921875,P18,D01,1,1,1
2309,-9.19,1645442876.9375,P18,D01,1,1,1
2310,-9.32,1645442876.953125,P18,D01,1,1,1
2311,-9.27,1645442876.96875,P18,D01,1,1,1
2312,-9.05,1645442876.984375,P18,D01,1,1,1
2313,-8.7,1645442877.0,P18,D01,1,1,1
2314,-8.29,1645442877.015625,P18,D01,1,1,1
2315,-7.91,1645442877.03125,P18,D01,1,1,1
2316,-7.65,1645442877.046875,P18,D01,1,1,1
2317,-7.54,1645442877.0625,P18,D01,1,1,1
2318,-7.53,1645442877.078125,P18,D01,1,1,1
2319,-7.53,1645442877.09375,P18,D01,1,1,1
2320,-7.4,1645442877.109375,P18,D01,1,1,1
2321,-7.09,1645442877.125,P18,D01,1,1,1
2322,-6.58,1645442877.140625,P18,D01,1,1,1
2323,-5.96,1645442877.15625,P18,D01,1,1,1
2324,-5.33,1645442877.171875,P18,D01,1,1,1
2325,-4.8,1645442877.1875,P18,D01,1,1,1
2326,-4.4,1645442877.203125,P18,D01,1,1,1
2327,-4.1,1645442877.21875,P18,D01,1,1,1
2328,-3.83,1645442877.234375,P18,D01,1,1,1
2329,-3.52,1645442877.25,P18,D01,1,1,1
2330,-3.16,1645442877.265625,P18,D01,1,1,1
2331,-2.8,1645442877.28125,P18,D01,1,1,1
2332,-2.5,1645442877.296875,P18,D01,1,1,1
2333,-2.29,1645442877.3125,P18,D01,1,1,1
2334,-2.16,1645442877.328125,P18,D01,1,1,1
2335,-2.03,1645442877.34375,P18,D01,1,1,1
2336,-1.85,1645442877.359375,P18,D01,1,1,1
2337,-1.6,1645442877.375,P18,D01,1,1,1
2338,-1.33,1645442877.390625,P18,D01,1,1,1
2339,-1.09,1645442877.40625,P18,D01,1,1,1
2340,-0.87,1645442877.421875,P18,D01,1,1,1
2341,-0.66,1645442877.4375,P18,D01,1,1,1
2342,-0.41,1645442877.453125,P18,D01,1,1,1
2343,-0.13,1645442877.46875,P18,D01,1,1,1
2344,0.1,1645442877.484375,P18,D01,1,1,1
2345,0.16,1645442877.5,P18,D01,1,1,1
2346,-0.01,1645442877.515625,P18,D01,1,1,1
2347,-0.35,1645442877.53125,P18,D01,1,1,1
2348,-0.71,1645442877.546875,P18,D01,1,1,1
2349,-0.9,1645442877.5625,P18,D01,1,1,1
2350,-0.8,1645442877.578125,P18,D01,1,1,1
2351,-0.43,1645442877.59375,P18,D01,1,1,1
2352,0.03,1645442877.609375,P18,D01,1,1,1
2353,0.39,1645442877.625,P18,D01,1,1,1
2354,0.51,1645442877.640625,P18,D01,1,1,1
2355,0.37,1645442877.65625,P18,D01,1,1,1
2356,0.07,1645442877.671875,P18,D01,1,1,1
2357,-0.26,1645442877.6875,P18,D01,1,1,1
2358,-0.53,1645442877.703125,P18,D01,1,1,1
2359,-0.69,1645442877.71875,P18,D01,1,1,1
2360,-0.76,1645442877.734375,P18,D01,1,1,1
2361,-0.78,1645442877.75,P18,D01,1,1,1
2362,-0.78,1645442877.765625,P18,D01,1,1,1
2363,-0.72,1645442877.78125,P18,D01,1,1,1
2364,-0.63,1645442877.796875,P18,D01,1,1,1
2365,-0.5,1645442877.8125,P18,D01,1,1,1
2366,-0.38,1645442877.828125,P18,D01,1,1,1
2367,-0.33,1645442877.84375,P18,D01,1,1,1
2368,-0.38,1645442877.859375,P18,D01,1,1,1
2369,-0.5,1645442877.875,P18,D01,1,1,1
2370,-0.63,1645442877.890625,P18,D01,1,1,1
2371,-0.7,1645442877.90625,P18,D01,1,1,1
2372,-0.66,1645442877.921875,P18,D01,1,1,1
2373,-0.56,1645442877.9375,P18,D01,1,1,1
2374,-0.48,1645442877.953125,P18,D01,1,1,1
2375,-0.48,1645442877.96875,P18,D01,1,1,1
2376,-0.58,1645442877.984375,P18,D01,1,1,1
2377,-0.72,1645442878.0,P18,D01,1,1,1
2378,-0.83,1645442878.015625,P18,D01,1,1,1
2379,-0.85,1645442878.03125,P18,D01,1,1,1
2380,-0.77,1645442878.046875,P18,D01,1,1,1
2381,-0.64,1645442878.0625,P18,D01,1,1,1
2382,-0.49,1645442878.078125,P18,D01,1,1,1
2383,-0.34,1645442878.09375,P18,D01,1,1,1
2384,-0.18,1645442878.109375,P18,D01,1,1,1
2385,-0.03,1645442878.125,P18,D01,1,1,1
2386,0.1,1645442878.140625,P18,D01,1,1,1
2387,0.14,1645442878.15625,P18,D01,1,1,1
2388,0.06,1645442878.171875,P18,D01,1,1,1
2389,-0.12,1645442878.1875,P18,D01,1,1,1
2390,-0.34,1645442878.203125,P18,D01,1,1,1
2391,-0.5,1645442878.21875,P18,D01,1,1,1
2392,-0.53,1645442878.234375,P18,D01,1,1,1
2393,-0.43,1645442878.25,P18,D01,1,1,1
2394,-0.27,1645442878.265625,P18,D01,1,1,1
2395,-0.11,1645442878.28125,P18,D01,1,1,1
2396,-0.03,1645442878.296875,P18,D01,1,1,1
2397,-0.01,1645442878.3125,P18,D01,1,1,1
2398,-0.03,1645442878.328125,P18,D01,1,1,1
2399,-0.07,1645442878.34375,P18,D01,1,1,1
2400,-0.12,1645442878.359375,P18,D01,1,1,1
2401,-0.24,1645442878.375,P18,D01,1,1,1
2402,-0.44,1645442878.390625,P18,D01,1,1,1
2403,-0.72,1645442878.40625,P18,D01,1,1,1
2404,-1.03,1645442878.421875,P18,D01,1,1,1
2405,-1.27,1645442878.4375,P18,D01,1,1,1
2406,-1.36,1645442878.453125,P18,D01,1,1,1
2407,-1.3,1645442878.46875,P18,D01,1,1,1
2408,-1.13,1645442878.484375,P18,D01,1,1,1
2409,-0.93,1645442878.5,P18,D01,1,1,1
2410,-0.78,1645442878.515625,P18,D01,1,1,1
2411,-0.69,1645442878.53125,P18,D01,1,1,1
2412,-0.63,1645442878.546875,P18,D01,1,1,1
2413,-0.57,1645442878.5625,P18,D01,1,1,1
2414,-0.48,1645442878.578125,P18,D01,1,1,1
2415,-0.39,1645442878.59375,P18,D01,1,1,1
2416,-0.33,1645442878.609375,P18,D01,1,1,1
2417,-0.29,1645442878.625,P18,D01,1,1,1
2418,-0.24,1645442878.640625,P18,D01,1,1,1
2419,-0.1,1645442878.65625,P18,D01,1,1,1
2420,0.17,1645442878.671875,P18,D01,1,1,1
2421,0.57,1645442878.6875,P18,D01,1,1,1
2422,1.0,1645442878.703125,P18,D01,1,1,1
2423,1.33,1645442878.71875,P18,D01,1,1,1
2424,1.45,1645442878.734375,P18,D01,1,1,1
2425,1.36,1645442878.75,P18,D01,1,1,1
2426,1.09,1645442878.765625,P18,D01,1,1,1
2427,0.78,1645442878.78125,P18,D01,1,1,1
2428,0.54,1645442878.796875,P18,D01,1,1,1
2429,0.45,1645442878.8125,P18,D01,1,1,1
2430,0.49,1645442878.828125,P18,D01,1,1,1
2431,0.59,1645442878.84375,P18,D01,1,1,1
2432,0.64,1645442878.859375,P18,D01,1,1,1
2433,0.56,1645442878.875,P18,D01,1,1,1
2434,0.33,1645442878.890625,P18,D01,1,1,1
2435,-0.0,1645442878.90625,P18,D01,1,1,1
2436,-0.34,1645442878.921875,P18,D01,1,1,1
2437,-0.58,1645442878.9375,P18,D01,1,1,1
2438,-0.67,1645442878.953125,P18,D01,1,1,1
2439,-0.61,1645442878.96875,P18,D01,1,1,1
2440,-0.45,1645442878.984375,P18,D01,1,1,1
2441,-0.24,1645442879.0,P18,D01,1,1,1
2442,-0.01,1645442879.015625,P18,D01,1,1,1
2443,0.24,1645442879.03125,P18,D01,1,1,1
2444,0.49,1645442879.046875,P18,D01,1,1,1
2445,0.69,1645442879.0625,P18,D01,1,1,1
2446,0.74,1645442879.078125,P18,D01,1,1,1
2447,0.59,1645442879.09375,P18,D01,1,1,1
2448,0.24,1645442879.109375,P18,D01,1,1,1
2449,-0.2,1645442879.125,P18,D01,1,1,1
2450,-0.62,1645442879.140625,P18,D01,1,1,1
2451,-0.91,1645442879.15625,P18,D01,1,1,1
2452,-0.98,1645442879.171875,P18,D01,1,1,1
2453,-0.86,1645442879.1875,P18,D01,1,1,1
2454,-0.56,1645442879.203125,P18,D01,1,1,1
2455,-0.16,1645442879.21875,P18,D01,1,1,1
2456,0.28,1645442879.234375,P18,D01,1,1,1
2457,0.68,1645442879.25,P18,D01,1,1,1
2458,0.95,1645442879.265625,P18,D01,1,1,1
2459,1.02,1645442879.28125,P18,D01,1,1,1
2460,0.88,1645442879.296875,P18,D01,1,1,1
2461,0.57,1645442879.3125,P18,D01,1,1,1
2462,0.22,1645442879.328125,P18,D01,1,1,1
2463,-0.05,1645442879.34375,P18,D01,1,1,1
2464,-0.13,1645442879.359375,P18,D01,1,1,1
2465,-0.02,1645442879.375,P18,D01,1,1,1
2466,0.19,1645442879.390625,P18,D01,1,1,1
2467,0.34,1645442879.40625,P18,D01,1,1,1
2468,0.34,1645442879.421875,P18,D01,1,1,1
2469,0.2,1645442879.4375,P18,D01,1,1,1
2470,0.01,1645442879.453125,P18,D01,1,1,1
2471,-0.12,1645442879.46875,P18,D01,1,1,1
2472,-0.13,1645442879.484375,P18,D01,1,1,1
2473,-0.03,1645442879.5,P18,D01,1,1,1
2474,0.08,1645442879.515625,P18,D01,1,1,1
2475,0.12,1645442879.53125,P18,D01,1,1,1
2476,0.06,1645442879.546875,P18,D01,1,1,1
2477,-0.04,1645442879.5625,P18,D01,1,1,1
2478,-0.12,1645442879.578125,P18,D01,1,1,1
2479,-0.15,1645442879.59375,P18,D01,1,1,1
2480,-0.14,1645442879.609375,P18,D01,1,1,1
2481,-0.15,1645442879.625,P18,D01,1,1,1
2482,-0.2,1645442879.640625,P18,D01,1,1,1
2483,-0.27,1645442879.65625,P18,D01,1,1,1
2484,-0.3,1645442879.671875,P18,D01,1,1,1
2485,-0.25,1645442879.6875,P18,D01,1,1,1
2486,-0.14,1645442879.703125,P18,D01,1,1,1
2487,-0.06,1645442879.71875,P18,D01,1,1,1
2488,-0.06,1645442879.734375,P18,D01,1,1,1
2489,-0.16,1645442879.75,P18,D01,1,1,1
2490,-0.3,1645442879.765625,P18,D01,1,1,1
2491,-0.41,1645442879.78125,P18,D01,1,1,1
2492,-0.45,1645442879.796875,P18,D01,1,1,1
2493,-0.45,1645442879.8125,P18,D01,1,1,1
2494,-0.45,1645442879.828125,P18,D01,1,1,1
2495,-0.45,1645442879.84375,P18,D01,1,1,1
2496,-0.42,1645442879.859375,P18,D01,1,1,1
2497,-0.27,1645442879.875,P18,D01,1,1,1
2498,0.03,1645442879.890625,P18,D01,1,1,1
2499,0.45,1645442879.90625,P18,D01,1,1,1
2500,0.85,1645442879.921875,P18,D01,1,1,1
2501,1.08,1645442879.9375,P18,D01,1,1,1
2502,1.06,1645442879.953125,P18,D01,1,1,1
2503,0.81,1645442879.96875,P18,D01,1,1,1
2504,0.42,1645442879.984375,P18,D01,1,1,1
2505,0.01,1645442880.0,P18,D01,1,1,1
2506,-0.29,1645442880.015625,P18,D01,1,1,1
2507,-0.43,1645442880.03125,P18,D01,1,1,1
2508,-0.38,1645442880.046875,P18,D01,1,1,1
2509,-0.14,1645442880.0625,P18,D01,1,1,1
2510,0.26,1645442880.078125,P18,D01,1,1,1
2511,0.76,1645442880.09375,P18,D01,1,1,1
2512,1.27,1645442880.109375,P18,D01,1,1,1
2513,1.68,1645442880.125,P18,D01,1,1,1
2514,1.94,1645442880.140625,P18,D01,1,1,1
2515,2.02,1645442880.15625,P18,D01,1,1,1
2516,1.94,1645442880.171875,P18,D01,1,1,1
2517,1.76,1645442880.1875,P18,D01,1,1,1
2518,1.51,1645442880.203125,P18,D01,1,1,1
2519,1.24,1645442880.21875,P18,D01,1,1,1
2520,0.98,1645442880.234375,P18,D01,1,1,1
2521,0.73,1645442880.25,P18,D01,1,1,1
2522,0.5,1645442880.265625,P18,D01,1,1,1
2523,0.25,1645442880.28125,P18,D01,1,1,1
2524,-0.06,1645442880.296875,P18,D01,1,1,1
2525,-0.46,1645442880.3125,P18,D01,1,1,1
2526,-0.92,1645442880.328125,P18,D01,1,1,1
2527,-1.37,1645442880.34375,P18,D01,1,1,1
2528,-1.74,1645442880.359375,P18,D01,1,1,1
2529,-1.98,1645442880.375,P18,D01,1,1,1
2530,-2.1,1645442880.390625,P18,D01,1,1,1
2531,-2.13,1645442880.40625,P18,D01,1,1,1
2532,-2.09,1645442880.421875,P18,D01,1,1,1
2533,-1.98,1645442880.4375,P18,D01,1,1,1
2534,-1.77,1645442880.453125,P18,D01,1,1,1
2535,-1.47,1645442880.46875,P18,D01,1,1,1
2536,-1.11,1645442880.484375,P18,D01,1,1,1
2537,-0.75,1645442880.5,P18,D01,1,1,1
2538,-0.45,1645442880.515625,P18,D01,1,1,1
2539,-0.24,1645442880.53125,P18,D01,1,1,1
2540,-0.16,1645442880.546875,P18,D01,1,1,1
2541,-0.23,1645442880.5625,P18,D01,1,1,1
2542,-0.46,1645442880.578125,P18,D01,1,1,1
2543,-0.87,1645442880.59375,P18,D01,1,1,1
2544,-1.43,1645442880.609375,P18,D01,1,1,1
2545,-2.05,1645442880.625,P18,D01,1,1,1
2546,-2.58,1645442880.640625,P18,D01,1,1,1
2547,-2.87,1645442880.65625,P18,D01,1,1,1
2548,-2.81,1645442880.671875,P18,D01,1,1,1
2549,-2.44,1645442880.6875,P18,D01,1,1,1
2550,-1.91,1645442880.703125,P18,D01,1,1,1
2551,-1.47,1645442880.71875,P18,D01,1,1,1
2552,-1.31,1645442880.734375,P18,D01,1,1,1
2553,-1.53,1645442880.75,P18,D01,1,1,1
2554,-2.08,1645442880.765625,P18,D01,1,1,1
2555,-2.76,1645442880.78125,P18,D01,1,1,1
2556,-3.37,1645442880.796875,P18,D01,1,1,1
2557,-3.71,1645442880.8125,P18,D01,1,1,1
2558,-3.71,1645442880.828125,P18,D01,1,1,1
2559,-3.38,1645442880.84375,P18,D01,1,1,1
2560,-2.83,1645442880.859375,P18,D01,1,1,1
2561,-2.14,1645442880.875,P18,D01,1,1,1
2562,-1.4,1645442880.890625,P18,D01,1,1,1
2563,-0.66,1645442880.90625,P18,D01,1,1,1
2564,0.03,1645442880.921875,P18,D01,1,1,1
2565,0.66,1645442880.9375,P18,D01,1,1,1
2566,1.22,1645442880.953125,P18,D01,1,1,1
2567,1.71,1645442880.96875,P18,D01,1,1,1
2568,2.15,1645442880.984375,P18,D01,1,1,1
2569,2.53,1645442881.0,P18,D01,1,1,1
2570,2.79,1645442881.015625,P18,D01,1,1,1
2571,2.87,1645442881.03125,P18,D01,1,1,1
2572,2.74,1645442881.046875,P18,D01,1,1,1
2573,2.38,1645442881.0625,P18,D01,1,1,1
2574,1.85,1645442881.078125,P18,D01,1,1,1
2575,1.24,1645442881.09375,P18,D01,1,1,1
2576,0.6,1645442881.109375,P18,D01,1,1,1
2577,-0.0,1645442881.125,P18,D01,1,1,1
2578,-0.56,1645442881.140625,P18,D01,1,1,1
2579,-1.07,1645442881.15625,P18,D01,1,1,1
2580,-1.51,1645442881.171875,P18,D01,1,1,1
2581,-1.86,1645442881.1875,P18,D01,1,1,1
2582,-2.1,1645442881.203125,P18,D01,1,1,1
2583,-2.25,1645442881.21875,P18,D01,1,1,1
2584,-2.37,1645442881.234375,P18,D01,1,1,1
2585,-2.46,1645442881.25,P18,D01,1,1,1
2586,-2.51,1645442881.265625,P18,D01,1,1,1
2587,-2.44,1645442881.28125,P18,D01,1,1,1
2588,-2.14,1645442881.296875,P18,D01,1,1,1
2589,-1.57,1645442881.3125,P18,D01,1,1,1
2590,-0.8,1645442881.328125,P18,D01,1,1,1
2591,0.04,1645442881.34375,P18,D01,1,1,1
2592,0.79,1645442881.359375,P18,D01,1,1,1
2593,1.37,1645442881.375,P18,D01,1,1,1
2594,1.78,1645442881.390625,P18,D01,1,1,1
2595,2.13,1645442881.40625,P18,D01,1,1,1
2596,2.52,1645442881.421875,P18,D01,1,1,1
2597,3.0,1645442881.4375,P18,D01,1,1,1
2598,3.53,1645442881.453125,P18,D01,1,1,1
2599,3.99,1645442881.46875,P18,D01,1,1,1
2600,4.26,1645442881.484375,P18,D01,1,1,1
2601,4.29,1645442881.5,P18,D01,1,1,1
2602,4.07,1645442881.515625,P18,D01,1,1,1
2603,3.72,1645442881.53125,P18,D01,1,1,1
2604,3.32,1645442881.546875,P18,D01,1,1,1
2605,3.0,1645442881.5625,P18,D01,1,1,1
2606,2.8,1645442881.578125,P18,D01,1,1,1
2607,2.7,1645442881.59375,P18,D01,1,1,1
2608,2.61,1645442881.609375,P18,D01,1,1,1
2609,2.43,1645442881.625,P18,D01,1,1,1
2610,2.12,1645442881.640625,P18,D01,1,1,1
2611,1.69,1645442881.65625,P18,D01,1,1,1
2612,1.27,1645442881.671875,P18,D01,1,1,1
2613,1.01,1645442881.6875,P18,D01,1,1,1
2614,0.97,1645442881.703125,P18,D01,1,1,1
2615,1.13,1645442881.71875,P18,D01,1,1,1
2616,1.32,1645442881.734375,P18,D01,1,1,1
2617,1.37,1645442881.75,P18,D01,1,1,1
2618,1.18,1645442881.765625,P18,D01,1,1,1
2619,0.75,1645442881.78125,P18,D01,1,1,1
2620,0.18,1645442881.796875,P18,D01,1,1,1
2621,-0.44,1645442881.8125,P18,D01,1,1,1
2622,-1.04,1645442881.828125,P18,D01,1,1,1
2623,-1.62,1645442881.84375,P18,D01,1,1,1
2624,-2.17,1645442881.859375,P18,D01,1,1,1
2625,-2.64,1645442881.875,P18,D01,1,1,1
2626,-2.93,1645442881.890625,P18,D01,1,1,1
2627,-2.94,1645442881.90625,P18,D01,1,1,1
2628,-2.64,1645442881.921875,P18,D01,1,1,1
2629,-2.06,1645442881.9375,P18,D01,1,1,1
2630,-1.33,1645442881.953125,P18,D01,1,1,1
2631,-0.64,1645442881.96875,P18,D01,1,1,1
2632,-0.11,1645442881.984375,P18,D01,1,1,1
2633,0.14,1645442882.0,P18,D01,1,1,1
2634,0.12,1645442882.015625,P18,D01,1,1,1
2635,-0.13,1645442882.03125,P18,D01,1,1,1
2636,-0.51,1645442882.046875,P18,D01,1,1,1
2637,-0.88,1645442882.0625,P18,D01,1,1,1
2638,-1.1,1645442882.078125,P18,D01,1,1,1
2639,-1.12,1645442882.09375,P18,D01,1,1,1
2640,-0.96,1645442882.109375,P18,D01,1,1,1
2641,-0.72,1645442882.125,P18,D01,1,1,1
2642,-0.53,1645442882.140625,P18,D01,1,1,1
2643,-0.48,1645442882.15625,P18,D01,1,1,1
2644,-0.58,1645442882.171875,P18,D01,1,1,1
2645,-0.81,1645442882.1875,P18,D01,1,1,1
2646,-1.1,1645442882.203125,P18,D01,1,1,1
2647,-1.45,1645442882.21875,P18,D01,1,1,1
2648,-1.85,1645442882.234375,P18,D01,1,1,1
2649,-2.31,1645442882.25,P18,D01,1,1,1
2650,-2.8,1645442882.265625,P18,D01,1,1,1
2651,-3.28,1645442882.28125,P18,D01,1,1,1
2652,-3.68,1645442882.296875,P18,D01,1,1,1
2653,-3.98,1645442882.3125,P18,D01,1,1,1
2654,-4.21,1645442882.328125,P18,D01,1,1,1
2655,-4.44,1645442882.34375,P18,D01,1,1,1
2656,-4.74,1645442882.359375,P18,D01,1,1,1
2657,-5.11,1645442882.375,P18,D01,1,1,1
2658,-5.46,1645442882.390625,P18,D01,1,1,1
2659,-5.62,1645442882.40625,P18,D01,1,1,1
2660,-5.37,1645442882.421875,P18,D01,1,1,1
2661,-4.56,1645442882.4375,P18,D01,1,1,1
2662,-3.18,1645442882.453125,P18,D01,1,1,1
2663,-1.35,1645442882.46875,P18,D01,1,1,1
2664,0.68,1645442882.484375,P18,D01,1,1,1
2665,2.59,1645442882.5,P18,D01,1,1,1
2666,4.11,1645442882.515625,P18,D01,1,1,1
2667,5.11,1645442882.53125,P18,D01,1,1,1
2668,5.58,1645442882.546875,P18,D01,1,1,1
2669,5.62,1645442882.5625,P18,D01,1,1,1
2670,5.41,1645442882.578125,P18,D01,1,1,1
2671,5.08,1645442882.59375,P18,D01,1,1,1
2672,4.72,1645442882.609375,P18,D01,1,1,1
2673,4.33,1645442882.625,P18,D01,1,1,1
2674,3.88,1645442882.640625,P18,D01,1,1,1
2675,3.37,1645442882.65625,P18,D01,1,1,1
2676,2.87,1645442882.671875,P18,D01,1,1,1
2677,2.46,1645442882.6875,P18,D01,1,1,1
2678,2.27,1645442882.703125,P18,D01,1,1,1
2679,2.33,1645442882.71875,P18,D01,1,1,1
2680,2.56,1645442882.734375,P18,D01,1,1,1
2681,2.78,1645442882.75,P18,D01,1,1,1
2682,2.8,1645442882.765625,P18,D01,1,1,1
2683,2.5,1645442882.78125,P18,D01,1,1,1
2684,1.9,1645442882.796875,P18,D01,1,1,1
2685,1.15,1645442882.8125,P18,D01,1,1,1
2686,0.48,1645442882.828125,P18,D01,1,1,1
2687,0.09,1645442882.84375,P18,D01,1,1,1
2688,0.07,1645442882.859375,P18,D01,1,1,1
2689,0.37,1645442882.875,P18,D01,1,1,1
2690,0.82,1645442882.890625,P18,D01,1,1,1
2691,1.23,1645442882.90625,P18,D01,1,1,1
2692,1.41,1645442882.921875,P18,D01,1,1,1
2693,1.25,1645442882.9375,P18,D01,1,1,1
2694,0.76,1645442882.953125,P18,D01,1,1,1
2695,0.05,1645442882.96875,P18,D01,1,1,1
2696,-0.67,1645442882.984375,P18,D01,1,1,1
2697,-1.21,1645442883.0,P18,D01,1,1,1
2698,-1.45,1645442883.015625,P18,D01,1,1,1
2699,-1.39,1645442883.03125,P18,D01,1,1,1
2700,-1.15,1645442883.046875,P18,D01,1,1,1
2701,-0.92,1645442883.0625,P18,D01,1,1,1
2702,-0.85,1645442883.078125,P18,D01,1,1,1
2703,-1.01,1645442883.09375,P18,D01,1,1,1
2704,-1.36,1645442883.109375,P18,D01,1,1,1
2705,-1.78,1645442883.125,P18,D01,1,1,1
2706,-2.11,1645442883.140625,P18,D01,1,1,1
2707,-2.26,1645442883.15625,P18,D01,1,1,1
2708,-2.2,1645442883.171875,P18,D01,1,1,1
2709,-1.99,1645442883.1875,P18,D01,1,1,1
2710,-1.76,1645442883.203125,P18,D01,1,1,1
2711,-1.6,1645442883.21875,P18,D01,1,1,1
2712,-1.6,1645442883.234375,P18,D01,1,1,1
2713,-1.75,1645442883.25,P18,D01,1,1,1
2714,-2.03,1645442883.265625,P18,D01,1,1,1
2715,-2.36,1645442883.28125,P18,D01,1,1,1
2716,-2.63,1645442883.296875,P18,D01,1,1,1
2717,-2.71,1645442883.3125,P18,D01,1,1,1
2718,-2.47,1645442883.328125,P18,D01,1,1,1
2719,-1.84,1645442883.34375,P18,D01,1,1,1
2720,-0.84,1645442883.359375,P18,D01,1,1,1
2721,0.4,1645442883.375,P18,D01,1,1,1
2722,1.61,1645442883.390625,P18,D01,1,1,1
2723,2.55,1645442883.40625,P18,D01,1,1,1
2724,3.05,1645442883.421875,P18,D01,1,1,1
2725,3.06,1645442883.4375,P18,D01,1,1,1
2726,2.71,1645442883.453125,P18,D01,1,1,1
2727,2.19,1645442883.46875,P18,D01,1,1,1
2728,1.7,1645442883.484375,P18,D01,1,1,1
2729,1.39,1645442883.5,P18,D01,1,1,1
2730,1.37,1645442883.515625,P18,D01,1,1,1
2731,1.68,1645442883.53125,P18,D01,1,1,1
2732,2.34,1645442883.546875,P18,D01,1,1,1
2733,3.28,1645442883.5625,P18,D01,1,1,1
2734,4.35,1645442883.578125,P18,D01,1,1,1
2735,5.3,1645442883.59375,P18,D01,1,1,1
2736,5.92,1645442883.609375,P18,D01,1,1,1
2737,6.09,1645442883.625,P18,D01,1,1,1
2738,5.89,1645442883.640625,P18,D01,1,1,1
2739,5.57,1645442883.65625,P18,D01,1,1,1
2740,5.43,1645442883.671875,P18,D01,1,1,1
2741,5.71,1645442883.6875,P18,D01,1,1,1
2742,6.49,1645442883.703125,P18,D01,1,1,1
2743,7.68,1645442883.71875,P18,D01,1,1,1
2744,9.12,1645442883.734375,P18,D01,1,1,1
2745,10.6,1645442883.75,P18,D01,1,1,1
2746,11.96,1645442883.765625,P18,D01,1,1,1
2747,13.05,1645442883.78125,P18,D01,1,1,1
2748,13.76,1645442883.796875,P18,D01,1,1,1
2749,13.96,1645442883.8125,P18,D01,1,1,1
2750,13.61,1645442883.828125,P18,D01,1,1,1
2751,12.77,1645442883.84375,P18,D01,1,1,1
2752,11.63,1645442883.859375,P18,D01,1,1,1
2753,10.46,1645442883.875,P18,D01,1,1,1
2754,9.48,1645442883.890625,P18,D01,1,1,1
2755,8.79,1645442883.90625,P18,D01,1,1,1
2756,8.31,1645442883.921875,P18,D01,1,1,1
2757,7.79,1645442883.9375,P18,D01,1,1,1
2758,6.99,1645442883.953125,P18,D01,1,1,1
2759,5.78,1645442883.96875,P18,D01,1,1,1
2760,4.21,1645442883.984375,P18,D01,1,1,1
2761,2.51,1645442884.0,P18,D01,1,1,1
2762,0.99,1645442884.015625,P18,D01,1,1,1
2763,-0.08,1645442884.03125,P18,D01,1,1,1
2764,-0.57,1645442884.046875,P18,D01,1,1,1
2765,-0.51,1645442884.0625,P18,D01,1,1,1
2766,-0.01,1645442884.078125,P18,D01,1,1,1
2767,0.8,1645442884.09375,P18,D01,1,1,1
2768,1.81,1645442884.109375,P18,D01,1,1,1
2769,2.98,1645442884.125,P18,D01,1,1,1
2770,4.28,1645442884.140625,P18,D01,1,1,1
2771,5.67,1645442884.15625,P18,D01,1,1,1
2772,7.05,1645442884.171875,P18,D01,1,1,1
2773,8.35,1645442884.1875,P18,D01,1,1,1
2774,9.53,1645442884.203125,P18,D01,1,1,1
2775,10.59,1645442884.21875,P18,D01,1,1,1
2776,11.59,1645442884.234375,P18,D01,1,1,1
2777,12.62,1645442884.25,P18,D01,1,1,1
2778,13.68,1645442884.265625,P18,D01,1,1,1
2779,14.69,1645442884.28125,P18,D01,1,1,1
2780,15.48,1645442884.296875,P18,D01,1,1,1
2781,15.82,1645442884.3125,P18,D01,1,1,1
2782,15.57,1645442884.328125,P18,D01,1,1,1
2783,14.7,1645442884.34375,P18,D01,1,1,1
2784,13.36,1645442884.359375,P18,D01,1,1,1
2785,11.83,1645442884.375,P18,D01,1,1,1
2786,10.45,1645442884.390625,P18,D01,1,1,1
2787,9.48,1645442884.40625,P18,D01,1,1,1
2788,9.08,1645442884.421875,P18,D01,1,1,1
2789,9.24,1645442884.4375,P18,D01,1,1,1
2790,9.79,1645442884.453125,P18,D01,1,1,1
2791,10.53,1645442884.46875,P18,D01,1,1,1
2792,11.23,1645442884.484375,P18,D01,1,1,1
2793,11.79,1645442884.5,P18,D01,1,1,1
2794,12.13,1645442884.515625,P18,D01,1,1,1
2795,12.14,1645442884.53125,P18,D01,1,1,1
2796,11.56,1645442884.546875,P18,D01,1,1,1
2797,9.99,1645442884.5625,P18,D01,1,1,1
2798,7.01,1645442884.578125,P18,D01,1,1,1
2799,2.4,1645442884.59375,P18,D01,1,1,1
2800,-3.72,1645442884.609375,P18,D01,1,1,1
2801,-10.77,1645442884.625,P18,D01,1,1,1
2802,-17.93,1645442884.640625,P18,D01,1,1,1
2803,-24.32,1645442884.65625,P18,D01,1,1,1
2804,-29.32,1645442884.671875,P18,D01,1,1,1
2805,-32.7,1645442884.6875,P18,D01,1,1,1
2806,-34.58,1645442884.703125,P18,D01,1,1,1
2807,-35.27,1645442884.71875,P18,D01,1,1,1
2808,-35.09,1645442884.734375,P18,D01,1,1,1
2809,-34.26,1645442884.75,P18,D01,1,1,1
2810,-32.88,1645442884.765625,P18,D01,1,1,1
2811,-31.04,1645442884.78125,P18,D01,1,1,1
2812,-28.89,1645442884.796875,P18,D01,1,1,1
2813,-26.64,1645442884.8125,P18,D01,1,1,1
2814,-24.56,1645442884.828125,P18,D01,1,1,1
2815,-22.82,1645442884.84375,P18,D01,1,1,1
2816,-21.42,1645442884.859375,P18,D01,1,1,1
2817,-20.19,1645442884.875,P18,D01,1,1,1
2818,-18.89,1645442884.890625,P18,D01,1,1,1
2819,-17.32,1645442884.90625,P18,D01,1,1,1
2820,-15.49,1645442884.921875,P18,D01,1,1,1
2821,-13.56,1645442884.9375,P18,D01,1,1,1
2822,-11.81,1645442884.953125,P18,D01,1,1,1
2823,-10.43,1645442884.96875,P18,D01,1,1,1
2824,-9.42,1645442884.984375,P18,D01,1,1,1
2825,-8.63,1645442885.0,P18,D01,1,1,1
2826,-7.84,1645442885.015625,P18,D01,1,1,1
2827,-6.91,1645442885.03125,P18,D01,1,1,1
2828,-5.86,1645442885.046875,P18,D01,1,1,1
2829,-4.84,1645442885.0625,P18,D01,1,1,1
2830,-4.04,1645442885.078125,P18,D01,1,1,1
2831,-3.58,1645442885.09375,P18,D01,1,1,1
2832,-3.5,1645442885.109375,P18,D01,1,1,1
2833,-3.74,1645442885.125,P18,D01,1,1,1
2834,-4.18,1645442885.140625,P18,D01,1,1,1
2835,-4.69,1645442885.15625,P18,D01,1,1,1
2836,-5.13,1645442885.171875,P18,D01,1,1,1
2837,-5.38,1645442885.1875,P18,D01,1,1,1
2838,-5.36,1645442885.203125,P18,D01,1,1,1
2839,-5.06,1645442885.21875,P18,D01,1,1,1
2840,-4.54,1645442885.234375,P18,D01,1,1,1
2841,-3.91,1645442885.25,P18,D01,1,1,1
2842,-3.26,1645442885.265625,P18,D01,1,1,1
2843,-2.7,1645442885.28125,P18,D01,1,1,1
2844,-2.26,1645442885.296875,P18,D01,1,1,1
2845,-1.95,1645442885.3125,P18,D01,1,1,1
2846,-1.74,1645442885.328125,P18,D01,1,1,1
2847,-1.62,1645442885.34375,P18,D01,1,1,1
2848,-1.54,1645442885.359375,P18,D01,1,1,1
2849,-1.42,1645442885.375,P18,D01,1,1,1
2850,-1.2,1645442885.390625,P18,D01,1,1,1
2851,-0.83,1645442885.40625,P18,D01,1,1,1
2852,-0.32,1645442885.421875,P18,D01,1,1,1
2853,0.26,1645442885.4375,P18,D01,1,1,1
2854,0.8,1645442885.453125,P18,D01,1,1,1
2855,1.24,1645442885.46875,P18,D01,1,1,1
2856,1.56,1645442885.484375,P18,D01,1,1,1
2857,1.82,1645442885.5,P18,D01,1,1,1
2858,2.1,1645442885.515625,P18,D01,1,1,1
2859,2.46,1645442885.53125,P18,D01,1,1,1
2860,2.88,1645442885.546875,P18,D01,1,1,1
2861,3.29,1645442885.5625,P18,D01,1,1,1
2862,3.63,1645442885.578125,P18,D01,1,1,1
2863,3.87,1645442885.59375,P18,D01,1,1,1
2864,4.05,1645442885.609375,P18,D01,1,1,1
2865,4.24,1645442885.625,P18,D01,1,1,1
2866,4.44,1645442885.640625,P18,D01,1,1,1
2867,4.59,1645442885.65625,P18,D01,1,1,1
2868,4.6,1645442885.671875,P18,D01,1,1,1
2869,4.4,1645442885.6875,P18,D01,1,1,1
2870,4.02,1645442885.703125,P18,D01,1,1,1
2871,3.55,1645442885.71875,P18,D01,1,1,1
2872,3.15,1645442885.734375,P18,D01,1,1,1
2873,2.88,1645442885.75,P18,D01,1,1,1
2874,2.7,1645442885.765625,P18,D01,1,1,1
2875,2.5,1645442885.78125,P18,D01,1,1,1
2876,2.17,1645442885.796875,P18,D01,1,1,1
2877,1.73,1645442885.8125,P18,D01,1,1,1
2878,1.3,1645442885.828125,P18,D01,1,1,1
2879,1.02,1645442885.84375,P18,D01,1,1,1
2880,0.95,1645442885.859375,P18,D01,1,1,1
2881,1.03,1645442885.875,P18,D01,1,1,1
2882,1.07,1645442885.890625,P18,D01,1,1,1
2883,0.9,1645442885.90625,P18,D01,1,1,1
2884,0.44,1645442885.921875,P18,D01,1,1,1
2885,-0.23,1645442885.9375,P18,D01,1,1,1
2886,-0.91,1645442885.953125,P18,D01,1,1,1
2887,-1.44,1645442885.96875,P18,D01,1,1,1
2888,-1.74,1645442885.984375,P18,D01,1,1,1
2889,-1.85,1645442886.0,P18,D01,1,1,1
2890,-1.89,1645442886.015625,P18,D01,1,1,1
2891,-1.94,1645442886.03125,P18,D01,1,1,1
2892,-2.09,1645442886.046875,P18,D01,1,1,1
2893,-2.32,1645442886.0625,P18,D01,1,1,1
2894,-2.59,1645442886.078125,P18,D01,1,1,1
2895,-2.84,1645442886.09375,P18,D01,1,1,1
2896,-3.01,1645442886.109375,P18,D01,1,1,1
2897,-3.04,1645442886.125,P18,D01,1,1,1
2898,-2.9,1645442886.140625,P18,D01,1,1,1
2899,-2.57,1645442886.15625,P18,D01,1,1,1
2900,-2.08,1645442886.171875,P18,D01,1,1,1
2901,-1.49,1645442886.1875,P18,D01,1,1,1
2902,-0.88,1645442886.203125,P18,D01,1,1,1
2903,-0.31,1645442886.21875,P18,D01,1,1,1
2904,0.2,1645442886.234375,P18,D01,1,1,1
2905,0.67,1645442886.25,P18,D01,1,1,1
2906,1.11,1645442886.265625,P18,D01,1,1,1
2907,1.53,1645442886.28125,P18,D01,1,1,1
