,data,timestamp,participant,document,val,arou,eng
0,-0.66,1645444614.96875,P18,D07,1,0,1
1,-0.79,1645444614.984375,P18,D07,1,0,1
2,-0.7,1645444615.0,P18,D07,1,0,1
3,-0.42,1645444615.015625,P18,D07,1,0,1
4,-0.02,1645444615.03125,P18,D07,1,0,1
5,0.42,1645444615.046875,P18,D07,1,0,1
6,0.8,1645444615.0625,P18,D07,1,0,1
7,1.09,1645444615.078125,P18,D07,1,0,1
8,1.25,1645444615.09375,P18,D07,1,0,1
9,1.28,1645444615.109375,P18,D07,1,0,1
10,1.19,1645444615.125,P18,D07,1,0,1
11,0.97,1645444615.140625,P18,D07,1,0,1
12,0.66,1645444615.15625,P18,D07,1,0,1
13,0.28,1645444615.171875,P18,D07,1,0,1
14,-0.11,1645444615.1875,P18,D07,1,0,1
15,-0.43,1645444615.203125,P18,D07,1,0,1
16,-0.6,1645444615.21875,P18,D07,1,0,1
17,-0.6,1645444615.234375,P18,D07,1,0,1
18,-0.47,1645444615.25,P18,D07,1,0,1
19,-0.29,1645444615.265625,P18,D07,1,0,1
20,-0.17,1645444615.28125,P18,D07,1,0,1
21,-0.17,1645444615.296875,P18,D07,1,0,1
22,-0.25,1645444615.3125,P18,D07,1,0,1
23,-0.34,1645444615.328125,P18,D07,1,0,1
24,-0.35,1645444615.34375,P18,D07,1,0,1
25,-0.25,1645444615.359375,P18,D07,1,0,1
26,-0.1,1645444615.375,P18,D07,1,0,1
27,0.03,1645444615.390625,P18,D07,1,0,1
28,0.06,1645444615.40625,P18,D07,1,0,1
29,0.02,1645444615.421875,P18,D07,1,0,1
30,-0.03,1645444615.4375,P18,D07,1,0,1
31,-0.0,1645444615.453125,P18,D07,1,0,1
32,0.11,1645444615.46875,P18,D07,1,0,1
33,0.25,1645444615.484375,P18,D07,1,0,1
34,0.36,1645444615.5,P18,D07,1,0,1
35,0.36,1645444615.515625,P18,D07,1,0,1
36,0.27,1645444615.53125,P18,D07,1,0,1
37,0.14,1645444615.546875,P18,D07,1,0,1
38,0.05,1645444615.5625,P18,D07,1,0,1
39,0.05,1645444615.578125,P18,D07,1,0,1
40,0.12,1645444615.59375,P18,D07,1,0,1
41,0.19,1645444615.609375,P18,D07,1,0,1
42,0.18,1645444615.625,P18,D07,1,0,1
43,0.07,1645444615.640625,P18,D07,1,0,1
44,-0.09,1645444615.65625,P18,D07,1,0,1
45,-0.21,1645444615.671875,P18,D07,1,0,1
46,-0.23,1645444615.6875,P18,D07,1,0,1
47,-0.12,1645444615.703125,P18,D07,1,0,1
48,0.07,1645444615.71875,P18,D07,1,0,1
49,0.25,1645444615.734375,P18,D07,1,0,1
50,0.36,1645444615.75,P18,D07,1,0,1
51,0.36,1645444615.765625,P18,D07,1,0,1
52,0.28,1645444615.78125,P18,D07,1,0,1
53,0.14,1645444615.796875,P18,D07,1,0,1
54,-0.02,1645444615.8125,P18,D07,1,0,1
55,-0.18,1645444615.828125,P18,D07,1,0,1
56,-0.34,1645444615.84375,P18,D07,1,0,1
57,-0.48,1645444615.859375,P18,D07,1,0,1
58,-0.57,1645444615.875,P18,D07,1,0,1
59,-0.55,1645444615.890625,P18,D07,1,0,1
60,-0.4,1645444615.90625,P18,D07,1,0,1
61,-0.13,1645444615.921875,P18,D07,1,0,1
62,0.2,1645444615.9375,P18,D07,1,0,1
63,0.5,1645444615.953125,P18,D07,1,0,1
64,0.69,1645444615.96875,P18,D07,1,0,1
65,0.73,1645444615.984375,P18,D07,1,0,1
66,0.59,1645444616.0,P18,D07,1,0,1
67,0.29,1645444616.015625,P18,D07,1,0,1
68,-0.07,1645444616.03125,P18,D07,1,0,1
69,-0.41,1645444616.046875,P18,D07,1,0,1
70,-0.61,1645444616.0625,P18,D07,1,0,1
71,-0.65,1645444616.078125,P18,D07,1,0,1
72,-0.55,1645444616.09375,P18,D07,1,0,1
73,-0.4,1645444616.109375,P18,D07,1,0,1
74,-0.29,1645444616.125,P18,D07,1,0,1
75,-0.28,1645444616.140625,P18,D07,1,0,1
76,-0.36,1645444616.15625,P18,D07,1,0,1
77,-0.46,1645444616.171875,P18,D07,1,0,1
78,-0.5,1645444616.1875,P18,D07,1,0,1
79,-0.4,1645444616.203125,P18,D07,1,0,1
80,-0.19,1645444616.21875,P18,D07,1,0,1
81,0.07,1645444616.234375,P18,D07,1,0,1
82,0.27,1645444616.25,P18,D07,1,0,1
83,0.35,1645444616.265625,P18,D07,1,0,1
84,0.3,1645444616.28125,P18,D07,1,0,1
85,0.17,1645444616.296875,P18,D07,1,0,1
86,0.05,1645444616.3125,P18,D07,1,0,1
87,-0.01,1645444616.328125,P18,D07,1,0,1
88,-0.04,1645444616.34375,P18,D07,1,0,1
89,-0.07,1645444616.359375,P18,D07,1,0,1
90,-0.16,1645444616.375,P18,D07,1,0,1
91,-0.31,1645444616.390625,P18,D07,1,0,1
92,-0.48,1645444616.40625,P18,D07,1,0,1
93,-0.56,1645444616.421875,P18,D07,1,0,1
94,-0.51,1645444616.4375,P18,D07,1,0,1
95,-0.33,1645444616.453125,P18,D07,1,0,1
96,-0.1,1645444616.46875,P18,D07,1,0,1
97,0.1,1645444616.484375,P18,D07,1,0,1
98,0.2,1645444616.5,P18,D07,1,0,1
99,0.2,1645444616.515625,P18,D07,1,0,1
100,0.14,1645444616.53125,P18,D07,1,0,1
101,0.09,1645444616.546875,P18,D07,1,0,1
102,0.11,1645444616.5625,P18,D07,1,0,1
103,0.19,1645444616.578125,P18,D07,1,0,1
104,0.26,1645444616.59375,P18,D07,1,0,1
105,0.25,1645444616.609375,P18,D07,1,0,1
106,0.09,1645444616.625,P18,D07,1,0,1
107,-0.21,1645444616.640625,P18,D07,1,0,1
108,-0.57,1645444616.65625,P18,D07,1,0,1
109,-0.85,1645444616.671875,P18,D07,1,0,1
110,-0.93,1645444616.6875,P18,D07,1,0,1
111,-0.78,1645444616.703125,P18,D07,1,0,1
112,-0.45,1645444616.71875,P18,D07,1,0,1
113,-0.04,1645444616.734375,P18,D07,1,0,1
114,0.31,1645444616.75,P18,D07,1,0,1
115,0.55,1645444616.765625,P18,D07,1,0,1
116,0.67,1645444616.78125,P18,D07,1,0,1
117,0.7,1645444616.796875,P18,D07,1,0,1
118,0.65,1645444616.8125,P18,D07,1,0,1
119,0.51,1645444616.828125,P18,D07,1,0,1
120,0.28,1645444616.84375,P18,D07,1,0,1
121,0.0,1645444616.859375,P18,D07,1,0,1
122,-0.25,1645444616.875,P18,D07,1,0,1
123,-0.37,1645444616.890625,P18,D07,1,0,1
124,-0.35,1645444616.90625,P18,D07,1,0,1
125,-0.22,1645444616.921875,P18,D07,1,0,1
126,-0.07,1645444616.9375,P18,D07,1,0,1
127,0.04,1645444616.953125,P18,D07,1,0,1
128,0.08,1645444616.96875,P18,D07,1,0,1
129,0.09,1645444616.984375,P18,D07,1,0,1
130,0.14,1645444617.0,P18,D07,1,0,1
131,0.25,1645444617.015625,P18,D07,1,0,1
132,0.36,1645444617.03125,P18,D07,1,0,1
133,0.41,1645444617.046875,P18,D07,1,0,1
134,0.39,1645444617.0625,P18,D07,1,0,1
135,0.34,1645444617.078125,P18,D07,1,0,1
136,0.32,1645444617.09375,P18,D07,1,0,1
137,0.38,1645444617.109375,P18,D07,1,0,1
138,0.48,1645444617.125,P18,D07,1,0,1
139,0.52,1645444617.140625,P18,D07,1,0,1
140,0.42,1645444617.15625,P18,D07,1,0,1
141,0.2,1645444617.171875,P18,D07,1,0,1
142,-0.04,1645444617.1875,P18,D07,1,0,1
143,-0.18,1645444617.203125,P18,D07,1,0,1
144,-0.11,1645444617.21875,P18,D07,1,0,1
145,0.12,1645444617.234375,P18,D07,1,0,1
146,0.38,1645444617.25,P18,D07,1,0,1
147,0.51,1645444617.265625,P18,D07,1,0,1
148,0.43,1645444617.28125,P18,D07,1,0,1
149,0.14,1645444617.296875,P18,D07,1,0,1
150,-0.23,1645444617.3125,P18,D07,1,0,1
151,-0.57,1645444617.328125,P18,D07,1,0,1
152,-0.77,1645444617.34375,P18,D07,1,0,1
153,-0.82,1645444617.359375,P18,D07,1,0,1
154,-0.76,1645444617.375,P18,D07,1,0,1
155,-0.64,1645444617.390625,P18,D07,1,0,1
156,-0.52,1645444617.40625,P18,D07,1,0,1
157,-0.42,1645444617.421875,P18,D07,1,0,1
158,-0.32,1645444617.4375,P18,D07,1,0,1
159,-0.19,1645444617.453125,P18,D07,1,0,1
160,-0.02,1645444617.46875,P18,D07,1,0,1
161,0.17,1645444617.484375,P18,D07,1,0,1
162,0.34,1645444617.5,P18,D07,1,0,1
163,0.42,1645444617.515625,P18,D07,1,0,1
164,0.34,1645444617.53125,P18,D07,1,0,1
165,0.09,1645444617.546875,P18,D07,1,0,1
166,-0.31,1645444617.5625,P18,D07,1,0,1
167,-0.76,1645444617.578125,P18,D07,1,0,1
168,-1.1,1645444617.59375,P18,D07,1,0,1
169,-1.22,1645444617.609375,P18,D07,1,0,1
170,-1.05,1645444617.625,P18,D07,1,0,1
171,-0.64,1645444617.640625,P18,D07,1,0,1
172,-0.14,1645444617.65625,P18,D07,1,0,1
173,0.26,1645444617.671875,P18,D07,1,0,1
174,0.43,1645444617.6875,P18,D07,1,0,1
175,0.35,1645444617.703125,P18,D07,1,0,1
176,0.09,1645444617.71875,P18,D07,1,0,1
177,-0.18,1645444617.734375,P18,D07,1,0,1
178,-0.33,1645444617.75,P18,D07,1,0,1
179,-0.28,1645444617.765625,P18,D07,1,0,1
180,-0.05,1645444617.78125,P18,D07,1,0,1
181,0.28,1645444617.796875,P18,D07,1,0,1
182,0.61,1645444617.8125,P18,D07,1,0,1
183,0.88,1645444617.828125,P18,D07,1,0,1
184,1.04,1645444617.84375,P18,D07,1,0,1
185,1.06,1645444617.859375,P18,D07,1,0,1
186,0.92,1645444617.875,P18,D07,1,0,1
187,0.61,1645444617.890625,P18,D07,1,0,1
188,0.16,1645444617.90625,P18,D07,1,0,1
189,-0.34,1645444617.921875,P18,D07,1,0,1
190,-0.75,1645444617.9375,P18,D07,1,0,1
191,-0.95,1645444617.953125,P18,D07,1,0,1
192,-0.83,1645444617.96875,P18,D07,1,0,1
193,-0.43,1645444617.984375,P18,D07,1,0,1
194,0.13,1645444618.0,P18,D07,1,0,1
195,0.65,1645444618.015625,P18,D07,1,0,1
196,0.96,1645444618.03125,P18,D07,1,0,1
197,0.99,1645444618.046875,P18,D07,1,0,1
198,0.79,1645444618.0625,P18,D07,1,0,1
199,0.5,1645444618.078125,P18,D07,1,0,1
200,0.24,1645444618.09375,P18,D07,1,0,1
201,0.06,1645444618.109375,P18,D07,1,0,1
202,-0.06,1645444618.125,P18,D07,1,0,1
203,-0.18,1645444618.140625,P18,D07,1,0,1
204,-0.31,1645444618.15625,P18,D07,1,0,1
205,-0.4,1645444618.171875,P18,D07,1,0,1
206,-0.36,1645444618.1875,P18,D07,1,0,1
207,-0.18,1645444618.203125,P18,D07,1,0,1
208,0.08,1645444618.21875,P18,D07,1,0,1
209,0.28,1645444618.234375,P18,D07,1,0,1
210,0.29,1645444618.25,P18,D07,1,0,1
211,0.06,1645444618.265625,P18,D07,1,0,1
212,-0.3,1645444618.28125,P18,D07,1,0,1
213,-0.63,1645444618.296875,P18,D07,1,0,1
214,-0.78,1645444618.3125,P18,D07,1,0,1
215,-0.69,1645444618.328125,P18,D07,1,0,1
216,-0.41,1645444618.34375,P18,D07,1,0,1
217,-0.04,1645444618.359375,P18,D07,1,0,1
218,0.33,1645444618.375,P18,D07,1,0,1
219,0.62,1645444618.390625,P18,D07,1,0,1
220,0.81,1645444618.40625,P18,D07,1,0,1
221,0.9,1645444618.421875,P18,D07,1,0,1
222,0.9,1645444618.4375,P18,D07,1,0,1
223,0.8,1645444618.453125,P18,D07,1,0,1
224,0.63,1645444618.46875,P18,D07,1,0,1
225,0.45,1645444618.484375,P18,D07,1,0,1
226,0.3,1645444618.5,P18,D07,1,0,1
227,0.19,1645444618.515625,P18,D07,1,0,1
228,0.12,1645444618.53125,P18,D07,1,0,1
229,0.08,1645444618.546875,P18,D07,1,0,1
230,0.06,1645444618.5625,P18,D07,1,0,1
231,0.05,1645444618.578125,P18,D07,1,0,1
232,0.05,1645444618.59375,P18,D07,1,0,1
233,0.01,1645444618.609375,P18,D07,1,0,1
234,-0.13,1645444618.625,P18,D07,1,0,1
235,-0.42,1645444618.640625,P18,D07,1,0,1
236,-0.85,1645444618.65625,P18,D07,1,0,1
237,-1.31,1645444618.671875,P18,D07,1,0,1
238,-1.66,1645444618.6875,P18,D07,1,0,1
239,-1.78,1645444618.703125,P18,D07,1,0,1
240,-1.61,1645444618.71875,P18,D07,1,0,1
241,-1.19,1645444618.734375,P18,D07,1,0,1
242,-0.68,1645444618.75,P18,D07,1,0,1
243,-0.22,1645444618.765625,P18,D07,1,0,1
244,0.07,1645444618.78125,P18,D07,1,0,1
245,0.18,1645444618.796875,P18,D07,1,0,1
246,0.15,1645444618.8125,P18,D07,1,0,1
247,0.06,1645444618.828125,P18,D07,1,0,1
248,-0.03,1645444618.84375,P18,D07,1,0,1
249,-0.1,1645444618.859375,P18,D07,1,0,1
250,-0.16,1645444618.875,P18,D07,1,0,1
251,-0.21,1645444618.890625,P18,D07,1,0,1
252,-0.25,1645444618.90625,P18,D07,1,0,1
253,-0.25,1645444618.921875,P18,D07,1,0,1
254,-0.2,1645444618.9375,P18,D07,1,0,1
255,-0.1,1645444618.953125,P18,D07,1,0,1
256,0.04,1645444618.96875,P18,D07,1,0,1
257,0.2,1645444618.984375,P18,D07,1,0,1
258,0.37,1645444619.0,P18,D07,1,0,1
259,0.56,1645444619.015625,P18,D07,1,0,1
260,0.71,1645444619.03125,P18,D07,1,0,1
261,0.75,1645444619.046875,P18,D07,1,0,1
262,0.61,1645444619.0625,P18,D07,1,0,1
263,0.27,1645444619.078125,P18,D07,1,0,1
264,-0.18,1645444619.09375,P18,D07,1,0,1
265,-0.6,1645444619.109375,P18,D07,1,0,1
266,-0.86,1645444619.125,P18,D07,1,0,1
267,-0.91,1645444619.140625,P18,D07,1,0,1
268,-0.8,1645444619.15625,P18,D07,1,0,1
269,-0.61,1645444619.171875,P18,D07,1,0,1
270,-0.39,1645444619.1875,P18,D07,1,0,1
271,-0.13,1645444619.203125,P18,D07,1,0,1
272,0.21,1645444619.21875,P18,D07,1,0,1
273,0.66,1645444619.234375,P18,D07,1,0,1
274,1.14,1645444619.25,P18,D07,1,0,1
275,1.53,1645444619.265625,P18,D07,1,0,1
276,1.69,1645444619.28125,P18,D07,1,0,1
277,1.53,1645444619.296875,P18,D07,1,0,1
278,1.12,1645444619.3125,P18,D07,1,0,1
279,0.61,1645444619.328125,P18,D07,1,0,1
280,0.18,1645444619.34375,P18,D07,1,0,1
281,-0.03,1645444619.359375,P18,D07,1,0,1
282,0.01,1645444619.375,P18,D07,1,0,1
283,0.21,1645444619.390625,P18,D07,1,0,1
284,0.48,1645444619.40625,P18,D07,1,0,1
285,0.68,1645444619.421875,P18,D07,1,0,1
286,0.76,1645444619.4375,P18,D07,1,0,1
287,0.7,1645444619.453125,P18,D07,1,0,1
288,0.53,1645444619.46875,P18,D07,1,0,1
289,0.3,1645444619.484375,P18,D07,1,0,1
290,0.02,1645444619.5,P18,D07,1,0,1
291,-0.27,1645444619.515625,P18,D07,1,0,1
292,-0.55,1645444619.53125,P18,D07,1,0,1
293,-0.79,1645444619.546875,P18,D07,1,0,1
294,-0.94,1645444619.5625,P18,D07,1,0,1
295,-0.97,1645444619.578125,P18,D07,1,0,1
296,-0.88,1645444619.59375,P18,D07,1,0,1
297,-0.72,1645444619.609375,P18,D07,1,0,1
298,-0.59,1645444619.625,P18,D07,1,0,1
299,-0.52,1645444619.640625,P18,D07,1,0,1
300,-0.54,1645444619.65625,P18,D07,1,0,1
301,-0.58,1645444619.671875,P18,D07,1,0,1
302,-0.59,1645444619.6875,P18,D07,1,0,1
303,-0.49,1645444619.703125,P18,D07,1,0,1
304,-0.31,1645444619.71875,P18,D07,1,0,1
305,-0.15,1645444619.734375,P18,D07,1,0,1
306,-0.13,1645444619.75,P18,D07,1,0,1
307,-0.35,1645444619.765625,P18,D07,1,0,1
308,-0.81,1645444619.78125,P18,D07,1,0,1
309,-1.42,1645444619.796875,P18,D07,1,0,1
310,-2.0,1645444619.8125,P18,D07,1,0,1
311,-2.44,1645444619.828125,P18,D07,1,0,1
312,-2.66,1645444619.84375,P18,D07,1,0,1
313,-2.68,1645444619.859375,P18,D07,1,0,1
314,-2.57,1645444619.875,P18,D07,1,0,1
315,-2.43,1645444619.890625,P18,D07,1,0,1
316,-2.33,1645444619.90625,P18,D07,1,0,1
317,-2.32,1645444619.921875,P18,D07,1,0,1
318,-2.44,1645444619.9375,P18,D07,1,0,1
319,-2.7,1645444619.953125,P18,D07,1,0,1
320,-3.1,1645444619.96875,P18,D07,1,0,1
321,-3.6,1645444619.984375,P18,D07,1,0,1
322,-4.1,1645444620.0,P18,D07,1,0,1
323,-4.5,1645444620.015625,P18,D07,1,0,1
324,-4.71,1645444620.03125,P18,D07,1,0,1
325,-4.68,1645444620.046875,P18,D07,1,0,1
326,-4.44,1645444620.0625,P18,D07,1,0,1
327,-4.1,1645444620.078125,P18,D07,1,0,1
328,-3.81,1645444620.09375,P18,D07,1,0,1
329,-3.7,1645444620.109375,P18,D07,1,0,1
330,-3.85,1645444620.125,P18,D07,1,0,1
331,-4.24,1645444620.140625,P18,D07,1,0,1
332,-4.81,1645444620.15625,P18,D07,1,0,1
333,-5.43,1645444620.171875,P18,D07,1,0,1
334,-5.99,1645444620.1875,P18,D07,1,0,1
335,-6.43,1645444620.203125,P18,D07,1,0,1
336,-6.76,1645444620.21875,P18,D07,1,0,1
337,-7.05,1645444620.234375,P18,D07,1,0,1
338,-7.38,1645444620.25,P18,D07,1,0,1
339,-7.8,1645444620.265625,P18,D07,1,0,1
340,-8.3,1645444620.28125,P18,D07,1,0,1
341,-8.77,1645444620.296875,P18,D07,1,0,1
342,-9.12,1645444620.3125,P18,D07,1,0,1
343,-9.28,1645444620.328125,P18,D07,1,0,1
344,-9.22,1645444620.34375,P18,D07,1,0,1
345,-8.92,1645444620.359375,P18,D07,1,0,1
346,-8.31,1645444620.375,P18,D07,1,0,1
347,-7.21,1645444620.390625,P18,D07,1,0,1
348,-5.43,1645444620.40625,P18,D07,1,0,1
349,-2.83,1645444620.421875,P18,D07,1,0,1
350,0.59,1645444620.4375,P18,D07,1,0,1
351,4.6,1645444620.453125,P18,D07,1,0,1
352,8.77,1645444620.46875,P18,D07,1,0,1
353,12.6,1645444620.484375,P18,D07,1,0,1
354,15.69,1645444620.5,P18,D07,1,0,1
355,17.84,1645444620.515625,P18,D07,1,0,1
356,19.1,1645444620.53125,P18,D07,1,0,1
357,19.7,1645444620.546875,P18,D07,1,0,1
358,19.94,1645444620.5625,P18,D07,1,0,1
359,20.02,1645444620.578125,P18,D07,1,0,1
360,20.03,1645444620.59375,P18,D07,1,0,1
361,19.91,1645444620.609375,P18,D07,1,0,1
362,19.56,1645444620.625,P18,D07,1,0,1
363,18.91,1645444620.640625,P18,D07,1,0,1
364,17.93,1645444620.65625,P18,D07,1,0,1
365,16.63,1645444620.671875,P18,D07,1,0,1
366,15.01,1645444620.6875,P18,D07,1,0,1
367,13.04,1645444620.703125,P18,D07,1,0,1
368,10.72,1645444620.71875,P18,D07,1,0,1
369,8.1,1645444620.734375,P18,D07,1,0,1
370,5.27,1645444620.75,P18,D07,1,0,1
371,2.4,1645444620.765625,P18,D07,1,0,1
372,-0.4,1645444620.78125,P18,D07,1,0,1
373,-3.03,1645444620.796875,P18,D07,1,0,1
374,-5.47,1645444620.8125,P18,D07,1,0,1
375,-7.66,1645444620.828125,P18,D07,1,0,1
376,-9.57,1645444620.84375,P18,D07,1,0,1
377,-11.11,1645444620.859375,P18,D07,1,0,1
378,-12.23,1645444620.875,P18,D07,1,0,1
379,-12.92,1645444620.890625,P18,D07,1,0,1
380,-13.27,1645444620.90625,P18,D07,1,0,1
381,-13.38,1645444620.921875,P18,D07,1,0,1
382,-13.37,1645444620.9375,P18,D07,1,0,1
383,-13.33,1645444620.953125,P18,D07,1,0,1
384,-13.3,1645444620.96875,P18,D07,1,0,1
385,-13.31,1645444620.984375,P18,D07,1,0,1
386,-13.33,1645444621.0,P18,D07,1,0,1
387,-13.36,1645444621.015625,P18,D07,1,0,1
388,-13.32,1645444621.03125,P18,D07,1,0,1
389,-13.12,1645444621.046875,P18,D07,1,0,1
390,-12.65,1645444621.0625,P18,D07,1,0,1
391,-11.8,1645444621.078125,P18,D07,1,0,1
392,-10.46,1645444621.09375,P18,D07,1,0,1
393,-8.56,1645444621.109375,P18,D07,1,0,1
394,-6.11,1645444621.125,P18,D07,1,0,1
395,-3.24,1645444621.140625,P18,D07,1,0,1
396,-0.19,1645444621.15625,P18,D07,1,0,1
397,2.72,1645444621.171875,P18,D07,1,0,1
398,5.21,1645444621.1875,P18,D07,1,0,1
399,7.08,1645444621.203125,P18,D07,1,0,1
400,8.3,1645444621.21875,P18,D07,1,0,1
401,8.96,1645444621.234375,P18,D07,1,0,1
402,9.23,1645444621.25,P18,D07,1,0,1
403,9.3,1645444621.265625,P18,D07,1,0,1
404,9.27,1645444621.28125,P18,D07,1,0,1
405,9.19,1645444621.296875,P18,D07,1,0,1
406,9.05,1645444621.3125,P18,D07,1,0,1
407,8.82,1645444621.328125,P18,D07,1,0,1
408,8.45,1645444621.34375,P18,D07,1,0,1
409,7.96,1645444621.359375,P18,D07,1,0,1
410,7.36,1645444621.375,P18,D07,1,0,1
411,6.75,1645444621.390625,P18,D07,1,0,1
412,6.21,1645444621.40625,P18,D07,1,0,1
413,5.81,1645444621.421875,P18,D07,1,0,1
414,5.61,1645444621.4375,P18,D07,1,0,1
415,5.59,1645444621.453125,P18,D07,1,0,1
416,5.7,1645444621.46875,P18,D07,1,0,1
417,5.86,1645444621.484375,P18,D07,1,0,1
418,6.05,1645444621.5,P18,D07,1,0,1
419,6.3,1645444621.515625,P18,D07,1,0,1
420,6.69,1645444621.53125,P18,D07,1,0,1
421,7.28,1645444621.546875,P18,D07,1,0,1
422,8.04,1645444621.5625,P18,D07,1,0,1
423,8.78,1645444621.578125,P18,D07,1,0,1
424,9.23,1645444621.59375,P18,D07,1,0,1
425,9.1,1645444621.609375,P18,D07,1,0,1
426,8.23,1645444621.625,P18,D07,1,0,1
427,6.63,1645444621.640625,P18,D07,1,0,1
428,4.55,1645444621.65625,P18,D07,1,0,1
429,2.33,1645444621.671875,P18,D07,1,0,1
430,0.31,1645444621.6875,P18,D07,1,0,1
431,-1.32,1645444621.703125,P18,D07,1,0,1
432,-2.57,1645444621.71875,P18,D07,1,0,1
433,-3.57,1645444621.734375,P18,D07,1,0,1
434,-4.46,1645444621.75,P18,D07,1,0,1
435,-5.31,1645444621.765625,P18,D07,1,0,1
436,-6.03,1645444621.78125,P18,D07,1,0,1
437,-6.48,1645444621.796875,P18,D07,1,0,1
438,-6.55,1645444621.8125,P18,D07,1,0,1
439,-6.24,1645444621.828125,P18,D07,1,0,1
440,-5.7,1645444621.84375,P18,D07,1,0,1
441,-5.1,1645444621.859375,P18,D07,1,0,1
442,-4.57,1645444621.875,P18,D07,1,0,1
443,-4.16,1645444621.890625,P18,D07,1,0,1
444,-3.81,1645444621.90625,P18,D07,1,0,1
445,-3.44,1645444621.921875,P18,D07,1,0,1
446,-3.06,1645444621.9375,P18,D07,1,0,1
447,-2.69,1645444621.953125,P18,D07,1,0,1
448,-2.42,1645444621.96875,P18,D07,1,0,1
449,-2.31,1645444621.984375,P18,D07,1,0,1
450,-2.36,1645444622.0,P18,D07,1,0,1
451,-2.54,1645444622.015625,P18,D07,1,0,1
452,-2.75,1645444622.03125,P18,D07,1,0,1
453,-2.97,1645444622.046875,P18,D07,1,0,1
454,-3.17,1645444622.0625,P18,D07,1,0,1
455,-3.38,1645444622.078125,P18,D07,1,0,1
456,-3.63,1645444622.09375,P18,D07,1,0,1
457,-3.91,1645444622.109375,P18,D07,1,0,1
458,-4.18,1645444622.125,P18,D07,1,0,1
459,-4.41,1645444622.140625,P18,D07,1,0,1
460,-4.52,1645444622.15625,P18,D07,1,0,1
461,-4.49,1645444622.171875,P18,D07,1,0,1
462,-4.28,1645444622.1875,P18,D07,1,0,1
463,-3.85,1645444622.203125,P18,D07,1,0,1
464,-3.15,1645444622.21875,P18,D07,1,0,1
465,-2.09,1645444622.234375,P18,D07,1,0,1
466,-0.64,1645444622.25,P18,D07,1,0,1
467,1.14,1645444622.265625,P18,D07,1,0,1
468,3.02,1645444622.28125,P18,D07,1,0,1
469,4.71,1645444622.296875,P18,D07,1,0,1
470,5.9,1645444622.3125,P18,D07,1,0,1
471,6.41,1645444622.328125,P18,D07,1,0,1
472,6.28,1645444622.34375,P18,D07,1,0,1
473,5.71,1645444622.359375,P18,D07,1,0,1
474,5.01,1645444622.375,P18,D07,1,0,1
475,4.45,1645444622.390625,P18,D07,1,0,1
476,4.21,1645444622.40625,P18,D07,1,0,1
477,4.36,1645444622.421875,P18,D07,1,0,1
478,4.82,1645444622.4375,P18,D07,1,0,1
479,5.44,1645444622.453125,P18,D07,1,0,1
480,6.0,1645444622.46875,P18,D07,1,0,1
481,6.27,1645444622.484375,P18,D07,1,0,1
482,6.03,1645444622.5,P18,D07,1,0,1
483,5.17,1645444622.515625,P18,D07,1,0,1
484,3.72,1645444622.53125,P18,D07,1,0,1
485,1.85,1645444622.546875,P18,D07,1,0,1
486,-0.18,1645444622.5625,P18,D07,1,0,1
487,-2.09,1645444622.578125,P18,D07,1,0,1
488,-3.71,1645444622.59375,P18,D07,1,0,1
489,-4.93,1645444622.609375,P18,D07,1,0,1
490,-5.77,1645444622.625,P18,D07,1,0,1
491,-6.3,1645444622.640625,P18,D07,1,0,1
492,-6.57,1645444622.65625,P18,D07,1,0,1
493,-6.64,1645444622.671875,P18,D07,1,0,1
494,-6.53,1645444622.6875,P18,D07,1,0,1
495,-6.31,1645444622.703125,P18,D07,1,0,1
496,-6.03,1645444622.71875,P18,D07,1,0,1
497,-5.78,1645444622.734375,P18,D07,1,0,1
498,-5.65,1645444622.75,P18,D07,1,0,1
499,-5.66,1645444622.765625,P18,D07,1,0,1
500,-5.81,1645444622.78125,P18,D07,1,0,1
501,-6.07,1645444622.796875,P18,D07,1,0,1
502,-6.4,1645444622.8125,P18,D07,1,0,1
503,-6.75,1645444622.828125,P18,D07,1,0,1
504,-7.09,1645444622.84375,P18,D07,1,0,1
505,-7.38,1645444622.859375,P18,D07,1,0,1
506,-7.59,1645444622.875,P18,D07,1,0,1
507,-7.69,1645444622.890625,P18,D07,1,0,1
508,-7.64,1645444622.90625,P18,D07,1,0,1
509,-7.45,1645444622.921875,P18,D07,1,0,1
510,-7.12,1645444622.9375,P18,D07,1,0,1
511,-6.65,1645444622.953125,P18,D07,1,0,1
512,-5.97,1645444622.96875,P18,D07,1,0,1
513,-4.95,1645444622.984375,P18,D07,1,0,1
514,-3.45,1645444623.0,P18,D07,1,0,1
515,-1.36,1645444623.015625,P18,D07,1,0,1
516,1.31,1645444623.03125,P18,D07,1,0,1
517,4.41,1645444623.046875,P18,D07,1,0,1
518,7.65,1645444623.0625,P18,D07,1,0,1
519,10.61,1645444623.078125,P18,D07,1,0,1
520,12.94,1645444623.09375,P18,D07,1,0,1
521,14.34,1645444623.109375,P18,D07,1,0,1
522,14.74,1645444623.125,P18,D07,1,0,1
523,14.28,1645444623.140625,P18,D07,1,0,1
524,13.24,1645444623.15625,P18,D07,1,0,1
525,11.93,1645444623.171875,P18,D07,1,0,1
526,10.61,1645444623.1875,P18,D07,1,0,1
527,9.36,1645444623.203125,P18,D07,1,0,1
528,8.15,1645444623.21875,P18,D07,1,0,1
529,6.87,1645444623.234375,P18,D07,1,0,1
530,5.45,1645444623.25,P18,D07,1,0,1
531,3.87,1645444623.265625,P18,D07,1,0,1
532,2.22,1645444623.28125,P18,D07,1,0,1
533,0.58,1645444623.296875,P18,D07,1,0,1
534,-0.96,1645444623.3125,P18,D07,1,0,1
535,-2.33,1645444623.328125,P18,D07,1,0,1
536,-3.46,1645444623.34375,P18,D07,1,0,1
537,-4.28,1645444623.359375,P18,D07,1,0,1
538,-4.69,1645444623.375,P18,D07,1,0,1
539,-4.61,1645444623.390625,P18,D07,1,0,1
540,-4.08,1645444623.40625,P18,D07,1,0,1
541,-3.22,1645444623.421875,P18,D07,1,0,1
542,-2.24,1645444623.4375,P18,D07,1,0,1
543,-1.38,1645444623.453125,P18,D07,1,0,1
544,-0.81,1645444623.46875,P18,D07,1,0,1
545,-0.55,1645444623.484375,P18,D07,1,0,1
546,-0.53,1645444623.5,P18,D07,1,0,1
547,-0.56,1645444623.515625,P18,D07,1,0,1
548,-0.49,1645444623.53125,P18,D07,1,0,1
549,-0.24,1645444623.546875,P18,D07,1,0,1
550,0.17,1645444623.5625,P18,D07,1,0,1
551,0.63,1645444623.578125,P18,D07,1,0,1
552,1.02,1645444623.59375,P18,D07,1,0,1
553,1.27,1645444623.609375,P18,D07,1,0,1
554,1.36,1645444623.625,P18,D07,1,0,1
555,1.33,1645444623.640625,P18,D07,1,0,1
556,1.2,1645444623.65625,P18,D07,1,0,1
557,1.03,1645444623.671875,P18,D07,1,0,1
558,0.81,1645444623.6875,P18,D07,1,0,1
559,0.58,1645444623.703125,P18,D07,1,0,1
560,0.4,1645444623.71875,P18,D07,1,0,1
561,0.32,1645444623.734375,P18,D07,1,0,1
562,0.4,1645444623.75,P18,D07,1,0,1
563,0.62,1645444623.765625,P18,D07,1,0,1
564,0.91,1645444623.78125,P18,D07,1,0,1
565,1.19,1645444623.796875,P18,D07,1,0,1
566,1.39,1645444623.8125,P18,D07,1,0,1
567,1.48,1645444623.828125,P18,D07,1,0,1
568,1.49,1645444623.84375,P18,D07,1,0,1
569,1.51,1645444623.859375,P18,D07,1,0,1
570,1.63,1645444623.875,P18,D07,1,0,1
571,1.93,1645444623.890625,P18,D07,1,0,1
572,2.44,1645444623.90625,P18,D07,1,0,1
573,3.11,1645444623.921875,P18,D07,1,0,1
574,3.82,1645444623.9375,P18,D07,1,0,1
575,4.43,1645444623.953125,P18,D07,1,0,1
576,4.82,1645444623.96875,P18,D07,1,0,1
577,5.01,1645444623.984375,P18,D07,1,0,1
578,5.1,1645444624.0,P18,D07,1,0,1
579,5.21,1645444624.015625,P18,D07,1,0,1
580,5.44,1645444624.03125,P18,D07,1,0,1
581,5.79,1645444624.046875,P18,D07,1,0,1
582,6.16,1645444624.0625,P18,D07,1,0,1
583,6.44,1645444624.078125,P18,D07,1,0,1
584,6.59,1645444624.09375,P18,D07,1,0,1
585,6.66,1645444624.109375,P18,D07,1,0,1
586,6.77,1645444624.125,P18,D07,1,0,1
587,6.99,1645444624.140625,P18,D07,1,0,1
588,7.3,1645444624.15625,P18,D07,1,0,1
589,7.56,1645444624.171875,P18,D07,1,0,1
590,7.61,1645444624.1875,P18,D07,1,0,1
591,7.31,1645444624.203125,P18,D07,1,0,1
592,6.62,1645444624.21875,P18,D07,1,0,1
593,5.58,1645444624.234375,P18,D07,1,0,1
594,4.28,1645444624.25,P18,D07,1,0,1
595,2.84,1645444624.265625,P18,D07,1,0,1
596,1.35,1645444624.28125,P18,D07,1,0,1
597,-0.06,1645444624.296875,P18,D07,1,0,1
598,-1.33,1645444624.3125,P18,D07,1,0,1
599,-2.39,1645444624.328125,P18,D07,1,0,1
600,-3.24,1645444624.34375,P18,D07,1,0,1
601,-3.96,1645444624.359375,P18,D07,1,0,1
602,-4.59,1645444624.375,P18,D07,1,0,1
603,-5.21,1645444624.390625,P18,D07,1,0,1
604,-5.78,1645444624.40625,P18,D07,1,0,1
605,-6.22,1645444624.421875,P18,D07,1,0,1
606,-6.44,1645444624.4375,P18,D07,1,0,1
607,-6.36,1645444624.453125,P18,D07,1,0,1
608,-5.98,1645444624.46875,P18,D07,1,0,1
609,-5.37,1645444624.484375,P18,D07,1,0,1
610,-4.6,1645444624.5,P18,D07,1,0,1
611,-3.75,1645444624.515625,P18,D07,1,0,1
612,-2.84,1645444624.53125,P18,D07,1,0,1
613,-1.92,1645444624.546875,P18,D07,1,0,1
614,-1.05,1645444624.5625,P18,D07,1,0,1
615,-0.32,1645444624.578125,P18,D07,1,0,1
616,0.17,1645444624.59375,P18,D07,1,0,1
617,0.34,1645444624.609375,P18,D07,1,0,1
618,0.22,1645444624.625,P18,D07,1,0,1
619,-0.16,1645444624.640625,P18,D07,1,0,1
620,-0.71,1645444624.65625,P18,D07,1,0,1
621,-1.4,1645444624.671875,P18,D07,1,0,1
622,-2.18,1645444624.6875,P18,D07,1,0,1
623,-2.98,1645444624.703125,P18,D07,1,0,1
624,-3.72,1645444624.71875,P18,D07,1,0,1
625,-4.26,1645444624.734375,P18,D07,1,0,1
626,-4.48,1645444624.75,P18,D07,1,0,1
627,-4.36,1645444624.765625,P18,D07,1,0,1
628,-3.96,1645444624.78125,P18,D07,1,0,1
629,-3.46,1645444624.796875,P18,D07,1,0,1
630,-3.01,1645444624.8125,P18,D07,1,0,1
631,-2.73,1645444624.828125,P18,D07,1,0,1
632,-2.63,1645444624.84375,P18,D07,1,0,1
633,-2.67,1645444624.859375,P18,D07,1,0,1
634,-2.82,1645444624.875,P18,D07,1,0,1
635,-3.04,1645444624.890625,P18,D07,1,0,1
636,-3.31,1645444624.90625,P18,D07,1,0,1
637,-3.58,1645444624.921875,P18,D07,1,0,1
638,-3.75,1645444624.9375,P18,D07,1,0,1
639,-3.71,1645444624.953125,P18,D07,1,0,1
640,-3.43,1645444624.96875,P18,D07,1,0,1
641,-2.93,1645444624.984375,P18,D07,1,0,1
642,-2.37,1645444625.0,P18,D07,1,0,1
643,-1.92,1645444625.015625,P18,D07,1,0,1
644,-1.71,1645444625.03125,P18,D07,1,0,1
645,-1.76,1645444625.046875,P18,D07,1,0,1
646,-1.95,1645444625.0625,P18,D07,1,0,1
647,-2.12,1645444625.078125,P18,D07,1,0,1
648,-2.09,1645444625.09375,P18,D07,1,0,1
649,-1.8,1645444625.109375,P18,D07,1,0,1
650,-1.27,1645444625.125,P18,D07,1,0,1
651,-0.61,1645444625.140625,P18,D07,1,0,1
652,0.08,1645444625.15625,P18,D07,1,0,1
653,0.74,1645444625.171875,P18,D07,1,0,1
654,1.35,1645444625.1875,P18,D07,1,0,1
655,1.9,1645444625.203125,P18,D07,1,0,1
656,2.34,1645444625.21875,P18,D07,1,0,1
657,2.61,1645444625.234375,P18,D07,1,0,1
658,2.62,1645444625.25,P18,D07,1,0,1
659,2.37,1645444625.265625,P18,D07,1,0,1
660,1.92,1645444625.28125,P18,D07,1,0,1
661,1.43,1645444625.296875,P18,D07,1,0,1
662,1.02,1645444625.3125,P18,D07,1,0,1
663,0.78,1645444625.328125,P18,D07,1,0,1
664,0.73,1645444625.34375,P18,D07,1,0,1
665,0.8,1645444625.359375,P18,D07,1,0,1
666,0.91,1645444625.375,P18,D07,1,0,1
667,0.95,1645444625.390625,P18,D07,1,0,1
668,0.88,1645444625.40625,P18,D07,1,0,1
669,0.66,1645444625.421875,P18,D07,1,0,1
670,0.31,1645444625.4375,P18,D07,1,0,1
671,-0.12,1645444625.453125,P18,D07,1,0,1
672,-0.53,1645444625.46875,P18,D07,1,0,1
673,-0.82,1645444625.484375,P18,D07,1,0,1
674,-0.92,1645444625.5,P18,D07,1,0,1
675,-0.8,1645444625.515625,P18,D07,1,0,1
676,-0.48,1645444625.53125,P18,D07,1,0,1
677,-0.03,1645444625.546875,P18,D07,1,0,1
678,0.45,1645444625.5625,P18,D07,1,0,1
679,0.85,1645444625.578125,P18,D07,1,0,1
680,1.07,1645444625.59375,P18,D07,1,0,1
681,1.02,1645444625.609375,P18,D07,1,0,1
682,0.7,1645444625.625,P18,D07,1,0,1
683,0.16,1645444625.640625,P18,D07,1,0,1
684,-0.45,1645444625.65625,P18,D07,1,0,1
685,-1.0,1645444625.671875,P18,D07,1,0,1
686,-1.33,1645444625.6875,P18,D07,1,0,1
687,-1.39,1645444625.703125,P18,D07,1,0,1
688,-1.23,1645444625.71875,P18,D07,1,0,1
689,-0.92,1645444625.734375,P18,D07,1,0,1
690,-0.56,1645444625.75,P18,D07,1,0,1
691,-0.19,1645444625.765625,P18,D07,1,0,1
692,0.14,1645444625.78125,P18,D07,1,0,1
693,0.43,1645444625.796875,P18,D07,1,0,1
694,0.64,1645444625.8125,P18,D07,1,0,1
695,0.72,1645444625.828125,P18,D07,1,0,1
696,0.65,1645444625.84375,P18,D07,1,0,1
697,0.45,1645444625.859375,P18,D07,1,0,1
698,0.19,1645444625.875,P18,D07,1,0,1
699,-0.03,1645444625.890625,P18,D07,1,0,1
700,-0.17,1645444625.90625,P18,D07,1,0,1
701,-0.2,1645444625.921875,P18,D07,1,0,1
702,-0.2,1645444625.9375,P18,D07,1,0,1
703,-0.2,1645444625.953125,P18,D07,1,0,1
704,-0.24,1645444625.96875,P18,D07,1,0,1
705,-0.3,1645444625.984375,P18,D07,1,0,1
706,-0.3,1645444626.0,P18,D07,1,0,1
707,-0.2,1645444626.015625,P18,D07,1,0,1
708,-0.01,1645444626.03125,P18,D07,1,0,1
709,0.22,1645444626.046875,P18,D07,1,0,1
710,0.46,1645444626.0625,P18,D07,1,0,1
711,0.66,1645444626.078125,P18,D07,1,0,1
712,0.81,1645444626.09375,P18,D07,1,0,1
713,0.92,1645444626.109375,P18,D07,1,0,1
714,0.97,1645444626.125,P18,D07,1,0,1
715,0.95,1645444626.140625,P18,D07,1,0,1
716,0.87,1645444626.15625,P18,D07,1,0,1
717,0.73,1645444626.171875,P18,D07,1,0,1
718,0.58,1645444626.1875,P18,D07,1,0,1
719,0.44,1645444626.203125,P18,D07,1,0,1
720,0.36,1645444626.21875,P18,D07,1,0,1
721,0.36,1645444626.234375,P18,D07,1,0,1
722,0.44,1645444626.25,P18,D07,1,0,1
723,0.59,1645444626.265625,P18,D07,1,0,1
724,0.79,1645444626.28125,P18,D07,1,0,1
725,0.99,1645444626.296875,P18,D07,1,0,1
726,1.16,1645444626.3125,P18,D07,1,0,1
727,1.23,1645444626.328125,P18,D07,1,0,1
728,1.2,1645444626.34375,P18,D07,1,0,1
729,1.09,1645444626.359375,P18,D07,1,0,1
730,0.98,1645444626.375,P18,D07,1,0,1
731,0.91,1645444626.390625,P18,D07,1,0,1
732,0.89,1645444626.40625,P18,D07,1,0,1
733,0.89,1645444626.421875,P18,D07,1,0,1
734,0.85,1645444626.4375,P18,D07,1,0,1
735,0.73,1645444626.453125,P18,D07,1,0,1
736,0.54,1645444626.46875,P18,D07,1,0,1
737,0.33,1645444626.484375,P18,D07,1,0,1
738,0.16,1645444626.5,P18,D07,1,0,1
739,0.05,1645444626.515625,P18,D07,1,0,1
740,-0.02,1645444626.53125,P18,D07,1,0,1
741,-0.09,1645444626.546875,P18,D07,1,0,1
742,-0.17,1645444626.5625,P18,D07,1,0,1
743,-0.25,1645444626.578125,P18,D07,1,0,1
744,-0.31,1645444626.59375,P18,D07,1,0,1
745,-0.34,1645444626.609375,P18,D07,1,0,1
746,-0.35,1645444626.625,P18,D07,1,0,1
747,-0.38,1645444626.640625,P18,D07,1,0,1
748,-0.43,1645444626.65625,P18,D07,1,0,1
749,-0.48,1645444626.671875,P18,D07,1,0,1
750,-0.48,1645444626.6875,P18,D07,1,0,1
751,-0.39,1645444626.703125,P18,D07,1,0,1
752,-0.2,1645444626.71875,P18,D07,1,0,1
753,0.07,1645444626.734375,P18,D07,1,0,1
754,0.37,1645444626.75,P18,D07,1,0,1
755,0.68,1645444626.765625,P18,D07,1,0,1
756,0.97,1645444626.78125,P18,D07,1,0,1
757,1.23,1645444626.796875,P18,D07,1,0,1
758,1.4,1645444626.8125,P18,D07,1,0,1
759,1.46,1645444626.828125,P18,D07,1,0,1
760,1.37,1645444626.84375,P18,D07,1,0,1
761,1.15,1645444626.859375,P18,D07,1,0,1
762,0.87,1645444626.875,P18,D07,1,0,1
763,0.59,1645444626.890625,P18,D07,1,0,1
764,0.36,1645444626.90625,P18,D07,1,0,1
765,0.21,1645444626.921875,P18,D07,1,0,1
766,0.12,1645444626.9375,P18,D07,1,0,1
767,0.08,1645444626.953125,P18,D07,1,0,1
768,0.1,1645444626.96875,P18,D07,1,0,1
769,0.19,1645444626.984375,P18,D07,1,0,1
770,0.34,1645444627.0,P18,D07,1,0,1
771,0.48,1645444627.015625,P18,D07,1,0,1
772,0.56,1645444627.03125,P18,D07,1,0,1
773,0.54,1645444627.046875,P18,D07,1,0,1
774,0.44,1645444627.0625,P18,D07,1,0,1
775,0.33,1645444627.078125,P18,D07,1,0,1
776,0.24,1645444627.09375,P18,D07,1,0,1
777,0.19,1645444627.109375,P18,D07,1,0,1
778,0.16,1645444627.125,P18,D07,1,0,1
779,0.11,1645444627.140625,P18,D07,1,0,1
780,0.04,1645444627.15625,P18,D07,1,0,1
781,-0.02,1645444627.171875,P18,D07,1,0,1
782,-0.01,1645444627.1875,P18,D07,1,0,1
783,0.08,1645444627.203125,P18,D07,1,0,1
784,0.18,1645444627.21875,P18,D07,1,0,1
785,0.21,1645444627.234375,P18,D07,1,0,1
786,0.07,1645444627.25,P18,D07,1,0,1
787,-0.26,1645444627.265625,P18,D07,1,0,1
788,-0.69,1645444627.28125,P18,D07,1,0,1
789,-1.1,1645444627.296875,P18,D07,1,0,1
790,-1.38,1645444627.3125,P18,D07,1,0,1
791,-1.51,1645444627.328125,P18,D07,1,0,1
792,-1.54,1645444627.34375,P18,D07,1,0,1
793,-1.56,1645444627.359375,P18,D07,1,0,1
794,-1.6,1645444627.375,P18,D07,1,0,1
795,-1.63,1645444627.390625,P18,D07,1,0,1
796,-1.6,1645444627.40625,P18,D07,1,0,1
797,-1.44,1645444627.421875,P18,D07,1,0,1
798,-1.18,1645444627.4375,P18,D07,1,0,1
799,-0.91,1645444627.453125,P18,D07,1,0,1
800,-0.71,1645444627.46875,P18,D07,1,0,1
801,-0.67,1645444627.484375,P18,D07,1,0,1
802,-0.79,1645444627.5,P18,D07,1,0,1
803,-1.06,1645444627.515625,P18,D07,1,0,1
804,-1.46,1645444627.53125,P18,D07,1,0,1
805,-1.94,1645444627.546875,P18,D07,1,0,1
806,-2.47,1645444627.5625,P18,D07,1,0,1
807,-2.95,1645444627.578125,P18,D07,1,0,1
808,-3.28,1645444627.59375,P18,D07,1,0,1
809,-3.35,1645444627.609375,P18,D07,1,0,1
810,-3.16,1645444627.625,P18,D07,1,0,1
811,-2.77,1645444627.640625,P18,D07,1,0,1
812,-2.38,1645444627.65625,P18,D07,1,0,1
813,-2.11,1645444627.671875,P18,D07,1,0,1
814,-2.02,1645444627.6875,P18,D07,1,0,1
815,-2.04,1645444627.703125,P18,D07,1,0,1
816,-2.0,1645444627.71875,P18,D07,1,0,1
817,-1.75,1645444627.734375,P18,D07,1,0,1
818,-1.19,1645444627.75,P18,D07,1,0,1
819,-0.37,1645444627.765625,P18,D07,1,0,1
820,0.61,1645444627.78125,P18,D07,1,0,1
821,1.56,1645444627.796875,P18,D07,1,0,1
822,2.3,1645444627.8125,P18,D07,1,0,1
823,2.74,1645444627.828125,P18,D07,1,0,1
824,2.83,1645444627.84375,P18,D07,1,0,1
825,2.65,1645444627.859375,P18,D07,1,0,1
826,2.32,1645444627.875,P18,D07,1,0,1
827,1.93,1645444627.890625,P18,D07,1,0,1
828,1.56,1645444627.90625,P18,D07,1,0,1
829,1.21,1645444627.921875,P18,D07,1,0,1
830,0.89,1645444627.9375,P18,D07,1,0,1
831,0.6,1645444627.953125,P18,D07,1,0,1
832,0.36,1645444627.96875,P18,D07,1,0,1
833,0.24,1645444627.984375,P18,D07,1,0,1
834,0.25,1645444628.0,P18,D07,1,0,1
835,0.39,1645444628.015625,P18,D07,1,0,1
836,0.6,1645444628.03125,P18,D07,1,0,1
837,0.8,1645444628.046875,P18,D07,1,0,1
838,0.95,1645444628.0625,P18,D07,1,0,1
839,1.04,1645444628.078125,P18,D07,1,0,1
840,1.05,1645444628.09375,P18,D07,1,0,1
841,0.98,1645444628.109375,P18,D07,1,0,1
842,0.82,1645444628.125,P18,D07,1,0,1
843,0.58,1645444628.140625,P18,D07,1,0,1
844,0.27,1645444628.15625,P18,D07,1,0,1
845,-0.06,1645444628.171875,P18,D07,1,0,1
846,-0.33,1645444628.1875,P18,D07,1,0,1
847,-0.52,1645444628.203125,P18,D07,1,0,1
848,-0.6,1645444628.21875,P18,D07,1,0,1
849,-0.61,1645444628.234375,P18,D07,1,0,1
850,-0.55,1645444628.25,P18,D07,1,0,1
851,-0.44,1645444628.265625,P18,D07,1,0,1
852,-0.26,1645444628.28125,P18,D07,1,0,1
853,-0.03,1645444628.296875,P18,D07,1,0,1
854,0.2,1645444628.3125,P18,D07,1,0,1
855,0.35,1645444628.328125,P18,D07,1,0,1
856,0.35,1645444628.34375,P18,D07,1,0,1
857,0.2,1645444628.359375,P18,D07,1,0,1
858,-0.05,1645444628.375,P18,D07,1,0,1
859,-0.31,1645444628.390625,P18,D07,1,0,1
860,-0.52,1645444628.40625,P18,D07,1,0,1
861,-0.66,1645444628.421875,P18,D07,1,0,1
862,-0.75,1645444628.4375,P18,D07,1,0,1
863,-0.8,1645444628.453125,P18,D07,1,0,1
864,-0.79,1645444628.46875,P18,D07,1,0,1
865,-0.72,1645444628.484375,P18,D07,1,0,1
866,-0.59,1645444628.5,P18,D07,1,0,1
867,-0.47,1645444628.515625,P18,D07,1,0,1
868,-0.45,1645444628.53125,P18,D07,1,0,1
869,-0.56,1645444628.546875,P18,D07,1,0,1
870,-0.77,1645444628.5625,P18,D07,1,0,1
871,-0.96,1645444628.578125,P18,D07,1,0,1
872,-0.99,1645444628.59375,P18,D07,1,0,1
873,-0.79,1645444628.609375,P18,D07,1,0,1
874,-0.38,1645444628.625,P18,D07,1,0,1
875,0.16,1645444628.640625,P18,D07,1,0,1
876,0.71,1645444628.65625,P18,D07,1,0,1
877,1.2,1645444628.671875,P18,D07,1,0,1
878,1.6,1645444628.6875,P18,D07,1,0,1
879,1.91,1645444628.703125,P18,D07,1,0,1
880,2.12,1645444628.71875,P18,D07,1,0,1
881,2.19,1645444628.734375,P18,D07,1,0,1
882,2.09,1645444628.75,P18,D07,1,0,1
883,1.8,1645444628.765625,P18,D07,1,0,1
884,1.33,1645444628.78125,P18,D07,1,0,1
885,0.76,1645444628.796875,P18,D07,1,0,1
886,0.22,1645444628.8125,P18,D07,1,0,1
887,-0.2,1645444628.828125,P18,D07,1,0,1
888,-0.39,1645444628.84375,P18,D07,1,0,1
889,-0.34,1645444628.859375,P18,D07,1,0,1
890,-0.14,1645444628.875,P18,D07,1,0,1
891,0.12,1645444628.890625,P18,D07,1,0,1
892,0.29,1645444628.90625,P18,D07,1,0,1
893,0.3,1645444628.921875,P18,D07,1,0,1
894,0.16,1645444628.9375,P18,D07,1,0,1
895,-0.06,1645444628.953125,P18,D07,1,0,1
896,-0.28,1645444628.96875,P18,D07,1,0,1
897,-0.41,1645444628.984375,P18,D07,1,0,1
898,-0.47,1645444629.0,P18,D07,1,0,1
899,-0.47,1645444629.015625,P18,D07,1,0,1
900,-0.46,1645444629.03125,P18,D07,1,0,1
901,-0.44,1645444629.046875,P18,D07,1,0,1
902,-0.41,1645444629.0625,P18,D07,1,0,1
903,-0.35,1645444629.078125,P18,D07,1,0,1
904,-0.25,1645444629.09375,P18,D07,1,0,1
905,-0.15,1645444629.109375,P18,D07,1,0,1
906,-0.08,1645444629.125,P18,D07,1,0,1
907,-0.08,1645444629.140625,P18,D07,1,0,1
908,-0.16,1645444629.15625,P18,D07,1,0,1
909,-0.3,1645444629.171875,P18,D07,1,0,1
910,-0.47,1645444629.1875,P18,D07,1,0,1
911,-0.62,1645444629.203125,P18,D07,1,0,1
912,-0.74,1645444629.21875,P18,D07,1,0,1
913,-0.83,1645444629.234375,P18,D07,1,0,1
914,-0.89,1645444629.25,P18,D07,1,0,1
915,-0.93,1645444629.265625,P18,D07,1,0,1
916,-0.91,1645444629.28125,P18,D07,1,0,1
917,-0.81,1645444629.296875,P18,D07,1,0,1
918,-0.57,1645444629.3125,P18,D07,1,0,1
919,-0.2,1645444629.328125,P18,D07,1,0,1
920,0.23,1645444629.34375,P18,D07,1,0,1
921,0.61,1645444629.359375,P18,D07,1,0,1
922,0.79,1645444629.375,P18,D07,1,0,1
923,0.7,1645444629.390625,P18,D07,1,0,1
924,0.36,1645444629.40625,P18,D07,1,0,1
925,-0.11,1645444629.421875,P18,D07,1,0,1
926,-0.5,1645444629.4375,P18,D07,1,0,1
927,-0.63,1645444629.453125,P18,D07,1,0,1
928,-0.41,1645444629.46875,P18,D07,1,0,1
929,0.13,1645444629.484375,P18,D07,1,0,1
930,0.83,1645444629.5,P18,D07,1,0,1
931,1.48,1645444629.515625,P18,D07,1,0,1
932,1.86,1645444629.53125,P18,D07,1,0,1
933,1.89,1645444629.546875,P18,D07,1,0,1
934,1.6,1645444629.5625,P18,D07,1,0,1
935,1.11,1645444629.578125,P18,D07,1,0,1
936,0.64,1645444629.59375,P18,D07,1,0,1
937,0.33,1645444629.609375,P18,D07,1,0,1
938,0.25,1645444629.625,P18,D07,1,0,1
939,0.39,1645444629.640625,P18,D07,1,0,1
940,0.6,1645444629.65625,P18,D07,1,0,1
941,0.76,1645444629.671875,P18,D07,1,0,1
942,0.78,1645444629.6875,P18,D07,1,0,1
943,0.65,1645444629.703125,P18,D07,1,0,1
944,0.43,1645444629.71875,P18,D07,1,0,1
945,0.19,1645444629.734375,P18,D07,1,0,1
946,-0.05,1645444629.75,P18,D07,1,0,1
947,-0.33,1645444629.765625,P18,D07,1,0,1
948,-0.67,1645444629.78125,P18,D07,1,0,1
949,-1.07,1645444629.796875,P18,D07,1,0,1
950,-1.47,1645444629.8125,P18,D07,1,0,1
951,-1.76,1645444629.828125,P18,D07,1,0,1
952,-1.84,1645444629.84375,P18,D07,1,0,1
953,-1.71,1645444629.859375,P18,D07,1,0,1
954,-1.44,1645444629.875,P18,D07,1,0,1
955,-1.16,1645444629.890625,P18,D07,1,0,1
956,-0.99,1645444629.90625,P18,D07,1,0,1
957,-1.0,1645444629.921875,P18,D07,1,0,1
958,-1.12,1645444629.9375,P18,D07,1,0,1
959,-1.24,1645444629.953125,P18,D07,1,0,1
960,-1.25,1645444629.96875,P18,D07,1,0,1
961,-1.05,1645444629.984375,P18,D07,1,0,1
962,-0.67,1645444630.0,P18,D07,1,0,1
963,-0.16,1645444630.015625,P18,D07,1,0,1
964,0.37,1645444630.03125,P18,D07,1,0,1
965,0.82,1645444630.046875,P18,D07,1,0,1
966,1.11,1645444630.0625,P18,D07,1,0,1
967,1.23,1645444630.078125,P18,D07,1,0,1
968,1.22,1645444630.09375,P18,D07,1,0,1
969,1.17,1645444630.109375,P18,D07,1,0,1
970,1.16,1645444630.125,P18,D07,1,0,1
971,1.26,1645444630.140625,P18,D07,1,0,1
972,1.45,1645444630.15625,P18,D07,1,0,1
973,1.66,1645444630.171875,P18,D07,1,0,1
974,1.79,1645444630.1875,P18,D07,1,0,1
975,1.75,1645444630.203125,P18,D07,1,0,1
976,1.48,1645444630.21875,P18,D07,1,0,1
977,1.0,1645444630.234375,P18,D07,1,0,1
978,0.42,1645444630.25,P18,D07,1,0,1
979,-0.13,1645444630.265625,P18,D07,1,0,1
980,-0.54,1645444630.28125,P18,D07,1,0,1
981,-0.72,1645444630.296875,P18,D07,1,0,1
982,-0.66,1645444630.3125,P18,D07,1,0,1
983,-0.46,1645444630.328125,P18,D07,1,0,1
984,-0.24,1645444630.34375,P18,D07,1,0,1
985,-0.1,1645444630.359375,P18,D07,1,0,1
986,-0.08,1645444630.375,P18,D07,1,0,1
987,-0.14,1645444630.390625,P18,D07,1,0,1
988,-0.19,1645444630.40625,P18,D07,1,0,1
989,-0.15,1645444630.421875,P18,D07,1,0,1
990,0.02,1645444630.4375,P18,D07,1,0,1
991,0.31,1645444630.453125,P18,D07,1,0,1
992,0.64,1645444630.46875,P18,D07,1,0,1
993,0.95,1645444630.484375,P18,D07,1,0,1
994,1.18,1645444630.5,P18,D07,1,0,1
995,1.32,1645444630.515625,P18,D07,1,0,1
996,1.41,1645444630.53125,P18,D07,1,0,1
997,1.48,1645444630.546875,P18,D07,1,0,1
998,1.53,1645444630.5625,P18,D07,1,0,1
999,1.55,1645444630.578125,P18,D07,1,0,1
1000,1.5,1645444630.59375,P18,D07,1,0,1
1001,1.37,1645444630.609375,P18,D07,1,0,1
1002,1.12,1645444630.625,P18,D07,1,0,1
1003,0.77,1645444630.640625,P18,D07,1,0,1
1004,0.31,1645444630.65625,P18,D07,1,0,1
1005,-0.2,1645444630.671875,P18,D07,1,0,1
1006,-0.74,1645444630.6875,P18,D07,1,0,1
1007,-1.25,1645444630.703125,P18,D07,1,0,1
1008,-1.72,1645444630.71875,P18,D07,1,0,1
1009,-2.09,1645444630.734375,P18,D07,1,0,1
1010,-2.34,1645444630.75,P18,D07,1,0,1
1011,-2.41,1645444630.765625,P18,D07,1,0,1
1012,-2.27,1645444630.78125,P18,D07,1,0,1
1013,-1.93,1645444630.796875,P18,D07,1,0,1
1014,-1.42,1645444630.8125,P18,D07,1,0,1
1015,-0.8,1645444630.828125,P18,D07,1,0,1
1016,-0.12,1645444630.84375,P18,D07,1,0,1
1017,0.54,1645444630.859375,P18,D07,1,0,1
1018,1.14,1645444630.875,P18,D07,1,0,1
1019,1.63,1645444630.890625,P18,D07,1,0,1
1020,1.96,1645444630.90625,P18,D07,1,0,1
1021,2.07,1645444630.921875,P18,D07,1,0,1
1022,1.92,1645444630.9375,P18,D07,1,0,1
1023,1.53,1645444630.953125,P18,D07,1,0,1
1024,0.99,1645444630.96875,P18,D07,1,0,1
1025,0.42,1645444630.984375,P18,D07,1,0,1
1026,-0.02,1645444631.0,P18,D07,1,0,1
1027,-0.28,1645444631.015625,P18,D07,1,0,1
1028,-0.35,1645444631.03125,P18,D07,1,0,1
1029,-0.34,1645444631.046875,P18,D07,1,0,1
1030,-0.38,1645444631.0625,P18,D07,1,0,1
1031,-0.52,1645444631.078125,P18,D07,1,0,1
1032,-0.77,1645444631.09375,P18,D07,1,0,1
1033,-1.07,1645444631.109375,P18,D07,1,0,1
1034,-1.32,1645444631.125,P18,D07,1,0,1
1035,-1.5,1645444631.140625,P18,D07,1,0,1
1036,-1.58,1645444631.15625,P18,D07,1,0,1
1037,-1.61,1645444631.171875,P18,D07,1,0,1
1038,-1.6,1645444631.1875,P18,D07,1,0,1
1039,-1.57,1645444631.203125,P18,D07,1,0,1
1040,-1.5,1645444631.21875,P18,D07,1,0,1
1041,-1.39,1645444631.234375,P18,D07,1,0,1
1042,-1.21,1645444631.25,P18,D07,1,0,1
1043,-0.97,1645444631.265625,P18,D07,1,0,1
1044,-0.68,1645444631.28125,P18,D07,1,0,1
1045,-0.34,1645444631.296875,P18,D07,1,0,1
1046,0.01,1645444631.3125,P18,D07,1,0,1
1047,0.31,1645444631.328125,P18,D07,1,0,1
1048,0.51,1645444631.34375,P18,D07,1,0,1
1049,0.61,1645444631.359375,P18,D07,1,0,1
1050,0.62,1645444631.375,P18,D07,1,0,1
1051,0.6,1645444631.390625,P18,D07,1,0,1
1052,0.58,1645444631.40625,P18,D07,1,0,1
1053,0.51,1645444631.421875,P18,D07,1,0,1
1054,0.31,1645444631.4375,P18,D07,1,0,1
1055,-0.08,1645444631.453125,P18,D07,1,0,1
1056,-0.65,1645444631.46875,P18,D07,1,0,1
1057,-1.28,1645444631.484375,P18,D07,1,0,1
1058,-1.77,1645444631.5,P18,D07,1,0,1
1059,-1.95,1645444631.515625,P18,D07,1,0,1
1060,-1.77,1645444631.53125,P18,D07,1,0,1
1061,-1.27,1645444631.546875,P18,D07,1,0,1
1062,-0.61,1645444631.5625,P18,D07,1,0,1
1063,0.09,1645444631.578125,P18,D07,1,0,1
1064,0.73,1645444631.59375,P18,D07,1,0,1
1065,1.31,1645444631.609375,P18,D07,1,0,1
1066,1.82,1645444631.625,P18,D07,1,0,1
1067,2.24,1645444631.640625,P18,D07,1,0,1
1068,2.48,1645444631.65625,P18,D07,1,0,1
1069,2.43,1645444631.671875,P18,D07,1,0,1
1070,2.06,1645444631.6875,P18,D07,1,0,1
1071,1.39,1645444631.703125,P18,D07,1,0,1
1072,0.56,1645444631.71875,P18,D07,1,0,1
1073,-0.24,1645444631.734375,P18,D07,1,0,1
1074,-0.85,1645444631.75,P18,D07,1,0,1
1075,-1.19,1645444631.765625,P18,D07,1,0,1
1076,-1.28,1645444631.78125,P18,D07,1,0,1
1077,-1.17,1645444631.796875,P18,D07,1,0,1
1078,-0.94,1645444631.8125,P18,D07,1,0,1
1079,-0.62,1645444631.828125,P18,D07,1,0,1
1080,-0.21,1645444631.84375,P18,D07,1,0,1
1081,0.26,1645444631.859375,P18,D07,1,0,1
1082,0.75,1645444631.875,P18,D07,1,0,1
1083,1.18,1645444631.890625,P18,D07,1,0,1
1084,1.52,1645444631.90625,P18,D07,1,0,1
1085,1.76,1645444631.921875,P18,D07,1,0,1
1086,1.9,1645444631.9375,P18,D07,1,0,1
1087,1.95,1645444631.953125,P18,D07,1,0,1
1088,1.88,1645444631.96875,P18,D07,1,0,1
1089,1.6,1645444631.984375,P18,D07,1,0,1
1090,1.1,1645444632.0,P18,D07,1,0,1
1091,0.41,1645444632.015625,P18,D07,1,0,1
1092,-0.33,1645444632.03125,P18,D07,1,0,1
1093,-0.99,1645444632.046875,P18,D07,1,0,1
1094,-1.45,1645444632.0625,P18,D07,1,0,1
1095,-1.71,1645444632.078125,P18,D07,1,0,1
1096,-1.82,1645444632.09375,P18,D07,1,0,1
1097,-1.81,1645444632.109375,P18,D07,1,0,1
1098,-1.71,1645444632.125,P18,D07,1,0,1
1099,-1.47,1645444632.140625,P18,D07,1,0,1
1100,-1.09,1645444632.15625,P18,D07,1,0,1
1101,-0.59,1645444632.171875,P18,D07,1,0,1
1102,-0.09,1645444632.1875,P18,D07,1,0,1
1103,0.28,1645444632.203125,P18,D07,1,0,1
1104,0.44,1645444632.21875,P18,D07,1,0,1
1105,0.42,1645444632.234375,P18,D07,1,0,1
1106,0.3,1645444632.25,P18,D07,1,0,1
1107,0.19,1645444632.265625,P18,D07,1,0,1
1108,0.16,1645444632.28125,P18,D07,1,0,1
1109,0.19,1645444632.296875,P18,D07,1,0,1
1110,0.21,1645444632.3125,P18,D07,1,0,1
1111,0.14,1645444632.328125,P18,D07,1,0,1
1112,-0.05,1645444632.34375,P18,D07,1,0,1
1113,-0.32,1645444632.359375,P18,D07,1,0,1
1114,-0.57,1645444632.375,P18,D07,1,0,1
1115,-0.71,1645444632.390625,P18,D07,1,0,1
1116,-0.67,1645444632.40625,P18,D07,1,0,1
1117,-0.51,1645444632.421875,P18,D07,1,0,1
1118,-0.32,1645444632.4375,P18,D07,1,0,1
1119,-0.22,1645444632.453125,P18,D07,1,0,1
1120,-0.24,1645444632.46875,P18,D07,1,0,1
1121,-0.35,1645444632.484375,P18,D07,1,0,1
1122,-0.48,1645444632.5,P18,D07,1,0,1
1123,-0.56,1645444632.515625,P18,D07,1,0,1
1124,-0.53,1645444632.53125,P18,D07,1,0,1
1125,-0.42,1645444632.546875,P18,D07,1,0,1
1126,-0.26,1645444632.5625,P18,D07,1,0,1
1127,-0.14,1645444632.578125,P18,D07,1,0,1
1128,-0.07,1645444632.59375,P18,D07,1,0,1
1129,-0.08,1645444632.609375,P18,D07,1,0,1
1130,-0.15,1645444632.625,P18,D07,1,0,1
1131,-0.26,1645444632.640625,P18,D07,1,0,1
1132,-0.37,1645444632.65625,P18,D07,1,0,1
1133,-0.44,1645444632.671875,P18,D07,1,0,1
1134,-0.45,1645444632.6875,P18,D07,1,0,1
1135,-0.4,1645444632.703125,P18,D07,1,0,1
1136,-0.3,1645444632.71875,P18,D07,1,0,1
1137,-0.21,1645444632.734375,P18,D07,1,0,1
1138,-0.17,1645444632.75,P18,D07,1,0,1
1139,-0.16,1645444632.765625,P18,D07,1,0,1
1140,-0.16,1645444632.78125,P18,D07,1,0,1
1141,-0.1,1645444632.796875,P18,D07,1,0,1
1142,0.04,1645444632.8125,P18,D07,1,0,1
1143,0.25,1645444632.828125,P18,D07,1,0,1
1144,0.47,1645444632.84375,P18,D07,1,0,1
1145,0.66,1645444632.859375,P18,D07,1,0,1
1146,0.78,1645444632.875,P18,D07,1,0,1
1147,0.84,1645444632.890625,P18,D07,1,0,1
1148,0.85,1645444632.90625,P18,D07,1,0,1
1149,0.8,1645444632.921875,P18,D07,1,0,1
1150,0.68,1645444632.9375,P18,D07,1,0,1
1151,0.48,1645444632.953125,P18,D07,1,0,1
1152,0.24,1645444632.96875,P18,D07,1,0,1
1153,0.04,1645444632.984375,P18,D07,1,0,1
1154,-0.03,1645444633.0,P18,D07,1,0,1
1155,0.07,1645444633.015625,P18,D07,1,0,1
1156,0.31,1645444633.03125,P18,D07,1,0,1
1157,0.58,1645444633.046875,P18,D07,1,0,1
1158,0.8,1645444633.0625,P18,D07,1,0,1
1159,0.89,1645444633.078125,P18,D07,1,0,1
1160,0.86,1645444633.09375,P18,D07,1,0,1
1161,0.71,1645444633.109375,P18,D07,1,0,1
1162,0.44,1645444633.125,P18,D07,1,0,1
1163,0.02,1645444633.140625,P18,D07,1,0,1
1164,-0.54,1645444633.15625,P18,D07,1,0,1
1165,-1.14,1645444633.171875,P18,D07,1,0,1
1166,-1.63,1645444633.1875,P18,D07,1,0,1
1167,-1.83,1645444633.203125,P18,D07,1,0,1
1168,-1.68,1645444633.21875,P18,D07,1,0,1
1169,-1.26,1645444633.234375,P18,D07,1,0,1
1170,-0.76,1645444633.25,P18,D07,1,0,1
1171,-0.38,1645444633.265625,P18,D07,1,0,1
1172,-0.19,1645444633.28125,P18,D07,1,0,1
1173,-0.15,1645444633.296875,P18,D07,1,0,1
1174,-0.13,1645444633.3125,P18,D07,1,0,1
1175,-0.0,1645444633.328125,P18,D07,1,0,1
1176,0.23,1645444633.34375,P18,D07,1,0,1
1177,0.46,1645444633.359375,P18,D07,1,0,1
1178,0.56,1645444633.375,P18,D07,1,0,1
1179,0.44,1645444633.390625,P18,D07,1,0,1
1180,0.15,1645444633.40625,P18,D07,1,0,1
1181,-0.21,1645444633.421875,P18,D07,1,0,1
1182,-0.48,1645444633.4375,P18,D07,1,0,1
1183,-0.59,1645444633.453125,P18,D07,1,0,1
1184,-0.53,1645444633.46875,P18,D07,1,0,1
1185,-0.34,1645444633.484375,P18,D07,1,0,1
1186,-0.07,1645444633.5,P18,D07,1,0,1
1187,0.28,1645444633.515625,P18,D07,1,0,1
1188,0.7,1645444633.53125,P18,D07,1,0,1
1189,1.18,1645444633.546875,P18,D07,1,0,1
1190,1.63,1645444633.5625,P18,D07,1,0,1
1191,1.91,1645444633.578125,P18,D07,1,0,1
1192,1.9,1645444633.59375,P18,D07,1,0,1
1193,1.59,1645444633.609375,P18,D07,1,0,1
1194,1.07,1645444633.625,P18,D07,1,0,1
1195,0.49,1645444633.640625,P18,D07,1,0,1
1196,-0.0,1645444633.65625,P18,D07,1,0,1
1197,-0.33,1645444633.671875,P18,D07,1,0,1
1198,-0.53,1645444633.6875,P18,D07,1,0,1
1199,-0.65,1645444633.703125,P18,D07,1,0,1
1200,-0.72,1645444633.71875,P18,D07,1,0,1
1201,-0.71,1645444633.734375,P18,D07,1,0,1
1202,-0.57,1645444633.75,P18,D07,1,0,1
1203,-0.28,1645444633.765625,P18,D07,1,0,1
1204,0.12,1645444633.78125,P18,D07,1,0,1
1205,0.54,1645444633.796875,P18,D07,1,0,1
1206,0.87,1645444633.8125,P18,D07,1,0,1
1207,1.07,1645444633.828125,P18,D07,1,0,1
1208,1.12,1645444633.84375,P18,D07,1,0,1
1209,1.06,1645444633.859375,P18,D07,1,0,1
1210,0.89,1645444633.875,P18,D07,1,0,1
1211,0.64,1645444633.890625,P18,D07,1,0,1
1212,0.35,1645444633.90625,P18,D07,1,0,1
1213,0.07,1645444633.921875,P18,D07,1,0,1
1214,-0.1,1645444633.9375,P18,D07,1,0,1
1215,-0.1,1645444633.953125,P18,D07,1,0,1
1216,0.06,1645444633.96875,P18,D07,1,0,1
1217,0.29,1645444633.984375,P18,D07,1,0,1
1218,0.46,1645444634.0,P18,D07,1,0,1
1219,0.49,1645444634.015625,P18,D07,1,0,1
1220,0.4,1645444634.03125,P18,D07,1,0,1
1221,0.25,1645444634.046875,P18,D07,1,0,1
1222,0.13,1645444634.0625,P18,D07,1,0,1
1223,0.04,1645444634.078125,P18,D07,1,0,1
1224,-0.04,1645444634.09375,P18,D07,1,0,1
1225,-0.18,1645444634.109375,P18,D07,1,0,1
1226,-0.36,1645444634.125,P18,D07,1,0,1
1227,-0.53,1645444634.140625,P18,D07,1,0,1
1228,-0.58,1645444634.15625,P18,D07,1,0,1
1229,-0.48,1645444634.171875,P18,D07,1,0,1
1230,-0.26,1645444634.1875,P18,D07,1,0,1
1231,-0.03,1645444634.203125,P18,D07,1,0,1
1232,0.11,1645444634.21875,P18,D07,1,0,1
1233,0.1,1645444634.234375,P18,D07,1,0,1
1234,0.01,1645444634.25,P18,D07,1,0,1
1235,-0.08,1645444634.265625,P18,D07,1,0,1
1236,-0.14,1645444634.28125,P18,D07,1,0,1
1237,-0.19,1645444634.296875,P18,D07,1,0,1
1238,-0.27,1645444634.3125,P18,D07,1,0,1
1239,-0.41,1645444634.328125,P18,D07,1,0,1
1240,-0.6,1645444634.34375,P18,D07,1,0,1
1241,-0.75,1645444634.359375,P18,D07,1,0,1
1242,-0.82,1645444634.375,P18,D07,1,0,1
1243,-0.78,1645444634.390625,P18,D07,1,0,1
1244,-0.69,1645444634.40625,P18,D07,1,0,1
1245,-0.58,1645444634.421875,P18,D07,1,0,1
1246,-0.49,1645444634.4375,P18,D07,1,0,1
1247,-0.4,1645444634.453125,P18,D07,1,0,1
1248,-0.28,1645444634.46875,P18,D07,1,0,1
1249,-0.14,1645444634.484375,P18,D07,1,0,1
1250,-0.01,1645444634.5,P18,D07,1,0,1
1251,0.07,1645444634.515625,P18,D07,1,0,1
1252,0.1,1645444634.53125,P18,D07,1,0,1
1253,0.11,1645444634.546875,P18,D07,1,0,1
1254,0.11,1645444634.5625,P18,D07,1,0,1
1255,0.13,1645444634.578125,P18,D07,1,0,1
1256,0.13,1645444634.59375,P18,D07,1,0,1
1257,0.07,1645444634.609375,P18,D07,1,0,1
1258,-0.05,1645444634.625,P18,D07,1,0,1
1259,-0.2,1645444634.640625,P18,D07,1,0,1
1260,-0.32,1645444634.65625,P18,D07,1,0,1
1261,-0.36,1645444634.671875,P18,D07,1,0,1
1262,-0.29,1645444634.6875,P18,D07,1,0,1
1263,-0.15,1645444634.703125,P18,D07,1,0,1
1264,0.01,1645444634.71875,P18,D07,1,0,1
1265,0.11,1645444634.734375,P18,D07,1,0,1
1266,0.15,1645444634.75,P18,D07,1,0,1
1267,0.13,1645444634.765625,P18,D07,1,0,1
1268,0.13,1645444634.78125,P18,D07,1,0,1
1269,0.18,1645444634.796875,P18,D07,1,0,1
1270,0.3,1645444634.8125,P18,D07,1,0,1
1271,0.45,1645444634.828125,P18,D07,1,0,1
1272,0.56,1645444634.84375,P18,D07,1,0,1
1273,0.55,1645444634.859375,P18,D07,1,0,1
1274,0.41,1645444634.875,P18,D07,1,0,1
1275,0.17,1645444634.890625,P18,D07,1,0,1
1276,-0.07,1645444634.90625,P18,D07,1,0,1
1277,-0.19,1645444634.921875,P18,D07,1,0,1
1278,-0.14,1645444634.9375,P18,D07,1,0,1
1279,0.05,1645444634.953125,P18,D07,1,0,1
1280,0.26,1645444634.96875,P18,D07,1,0,1
1281,0.38,1645444634.984375,P18,D07,1,0,1
1282,0.34,1645444635.0,P18,D07,1,0,1
1283,0.19,1645444635.015625,P18,D07,1,0,1
1284,0.04,1645444635.03125,P18,D07,1,0,1
1285,0.01,1645444635.046875,P18,D07,1,0,1
1286,0.11,1645444635.0625,P18,D07,1,0,1
1287,0.28,1645444635.078125,P18,D07,1,0,1
1288,0.38,1645444635.09375,P18,D07,1,0,1
1289,0.29,1645444635.109375,P18,D07,1,0,1
1290,0.02,1645444635.125,P18,D07,1,0,1
1291,-0.3,1645444635.140625,P18,D07,1,0,1
1292,-0.54,1645444635.15625,P18,D07,1,0,1
1293,-0.6,1645444635.171875,P18,D07,1,0,1
1294,-0.49,1645444635.1875,P18,D07,1,0,1
1295,-0.33,1645444635.203125,P18,D07,1,0,1
1296,-0.24,1645444635.21875,P18,D07,1,0,1
1297,-0.28,1645444635.234375,P18,D07,1,0,1
1298,-0.42,1645444635.25,P18,D07,1,0,1
1299,-0.55,1645444635.265625,P18,D07,1,0,1
1300,-0.59,1645444635.28125,P18,D07,1,0,1
1301,-0.51,1645444635.296875,P18,D07,1,0,1
1302,-0.35,1645444635.3125,P18,D07,1,0,1
1303,-0.21,1645444635.328125,P18,D07,1,0,1
1304,-0.17,1645444635.34375,P18,D07,1,0,1
1305,-0.26,1645444635.359375,P18,D07,1,0,1
1306,-0.46,1645444635.375,P18,D07,1,0,1
1307,-0.71,1645444635.390625,P18,D07,1,0,1
1308,-0.92,1645444635.40625,P18,D07,1,0,1
1309,-0.99,1645444635.421875,P18,D07,1,0,1
1310,-0.86,1645444635.4375,P18,D07,1,0,1
1311,-0.48,1645444635.453125,P18,D07,1,0,1
1312,0.09,1645444635.46875,P18,D07,1,0,1
1313,0.78,1645444635.484375,P18,D07,1,0,1
1314,1.47,1645444635.5,P18,D07,1,0,1
1315,2.05,1645444635.515625,P18,D07,1,0,1
1316,2.45,1645444635.53125,P18,D07,1,0,1
1317,2.68,1645444635.546875,P18,D07,1,0,1
1318,2.75,1645444635.5625,P18,D07,1,0,1
1319,2.64,1645444635.578125,P18,D07,1,0,1
1320,2.33,1645444635.59375,P18,D07,1,0,1
1321,1.81,1645444635.609375,P18,D07,1,0,1
1322,1.12,1645444635.625,P18,D07,1,0,1
1323,0.38,1645444635.640625,P18,D07,1,0,1
1324,-0.25,1645444635.65625,P18,D07,1,0,1
1325,-0.64,1645444635.671875,P18,D07,1,0,1
1326,-0.73,1645444635.6875,P18,D07,1,0,1
1327,-0.58,1645444635.703125,P18,D07,1,0,1
1328,-0.28,1645444635.71875,P18,D07,1,0,1
1329,0.04,1645444635.734375,P18,D07,1,0,1
1330,0.33,1645444635.75,P18,D07,1,0,1
1331,0.59,1645444635.765625,P18,D07,1,0,1
1332,0.84,1645444635.78125,P18,D07,1,0,1
1333,1.08,1645444635.796875,P18,D07,1,0,1
1334,1.27,1645444635.8125,P18,D07,1,0,1
1335,1.36,1645444635.828125,P18,D07,1,0,1
1336,1.3,1645444635.84375,P18,D07,1,0,1
1337,1.11,1645444635.859375,P18,D07,1,0,1
1338,0.84,1645444635.875,P18,D07,1,0,1
1339,0.56,1645444635.890625,P18,D07,1,0,1
1340,0.36,1645444635.90625,P18,D07,1,0,1
1341,0.27,1645444635.921875,P18,D07,1,0,1
1342,0.3,1645444635.9375,P18,D07,1,0,1
1343,0.39,1645444635.953125,P18,D07,1,0,1
1344,0.46,1645444635.96875,P18,D07,1,0,1
1345,0.47,1645444635.984375,P18,D07,1,0,1
1346,0.39,1645444636.0,P18,D07,1,0,1
1347,0.29,1645444636.015625,P18,D07,1,0,1
1348,0.27,1645444636.03125,P18,D07,1,0,1
1349,0.38,1645444636.046875,P18,D07,1,0,1
1350,0.62,1645444636.0625,P18,D07,1,0,1
1351,0.89,1645444636.078125,P18,D07,1,0,1
1352,1.06,1645444636.09375,P18,D07,1,0,1
1353,1.04,1645444636.109375,P18,D07,1,0,1
1354,0.8,1645444636.125,P18,D07,1,0,1
1355,0.41,1645444636.140625,P18,D07,1,0,1
1356,-0.02,1645444636.15625,P18,D07,1,0,1
1357,-0.43,1645444636.171875,P18,D07,1,0,1
1358,-0.78,1645444636.1875,P18,D07,1,0,1
1359,-1.11,1645444636.203125,P18,D07,1,0,1
1360,-1.45,1645444636.21875,P18,D07,1,0,1
1361,-1.78,1645444636.234375,P18,D07,1,0,1
1362,-2.05,1645444636.25,P18,D07,1,0,1
1363,-2.2,1645444636.265625,P18,D07,1,0,1
1364,-2.18,1645444636.28125,P18,D07,1,0,1
1365,-2.02,1645444636.296875,P18,D07,1,0,1
1366,-1.77,1645444636.3125,P18,D07,1,0,1
1367,-1.53,1645444636.328125,P18,D07,1,0,1
1368,-1.36,1645444636.34375,P18,D07,1,0,1
1369,-1.29,1645444636.359375,P18,D07,1,0,1
1370,-1.3,1645444636.375,P18,D07,1,0,1
1371,-1.36,1645444636.390625,P18,D07,1,0,1
1372,-1.46,1645444636.40625,P18,D07,1,0,1
1373,-1.58,1645444636.421875,P18,D07,1,0,1
1374,-1.74,1645444636.4375,P18,D07,1,0,1
1375,-1.94,1645444636.453125,P18,D07,1,0,1
1376,-2.12,1645444636.46875,P18,D07,1,0,1
1377,-2.19,1645444636.484375,P18,D07,1,0,1
1378,-2.07,1645444636.5,P18,D07,1,0,1
1379,-1.72,1645444636.515625,P18,D07,1,0,1
1380,-1.22,1645444636.53125,P18,D07,1,0,1
1381,-0.7,1645444636.546875,P18,D07,1,0,1
1382,-0.3,1645444636.5625,P18,D07,1,0,1
1383,-0.11,1645444636.578125,P18,D07,1,0,1
1384,-0.13,1645444636.59375,P18,D07,1,0,1
1385,-0.29,1645444636.609375,P18,D07,1,0,1
1386,-0.49,1645444636.625,P18,D07,1,0,1
1387,-0.68,1645444636.640625,P18,D07,1,0,1
1388,-0.81,1645444636.65625,P18,D07,1,0,1
1389,-0.88,1645444636.671875,P18,D07,1,0,1
1390,-0.9,1645444636.6875,P18,D07,1,0,1
1391,-0.88,1645444636.703125,P18,D07,1,0,1
1392,-0.79,1645444636.71875,P18,D07,1,0,1
1393,-0.66,1645444636.734375,P18,D07,1,0,1
1394,-0.46,1645444636.75,P18,D07,1,0,1
1395,-0.17,1645444636.765625,P18,D07,1,0,1
1396,0.24,1645444636.78125,P18,D07,1,0,1
1397,0.78,1645444636.796875,P18,D07,1,0,1
1398,1.43,1645444636.8125,P18,D07,1,0,1
1399,2.09,1645444636.828125,P18,D07,1,0,1
1400,2.6,1645444636.84375,P18,D07,1,0,1
1401,2.84,1645444636.859375,P18,D07,1,0,1
1402,2.75,1645444636.875,P18,D07,1,0,1
1403,2.36,1645444636.890625,P18,D07,1,0,1
1404,1.76,1645444636.90625,P18,D07,1,0,1
1405,1.09,1645444636.921875,P18,D07,1,0,1
1406,0.44,1645444636.9375,P18,D07,1,0,1
1407,-0.12,1645444636.953125,P18,D07,1,0,1
1408,-0.58,1645444636.96875,P18,D07,1,0,1
1409,-0.91,1645444636.984375,P18,D07,1,0,1
1410,-1.1,1645444637.0,P18,D07,1,0,1
1411,-1.1,1645444637.015625,P18,D07,1,0,1
1412,-0.92,1645444637.03125,P18,D07,1,0,1
1413,-0.6,1645444637.046875,P18,D07,1,0,1
1414,-0.23,1645444637.0625,P18,D07,1,0,1
1415,0.09,1645444637.078125,P18,D07,1,0,1
1416,0.27,1645444637.09375,P18,D07,1,0,1
1417,0.31,1645444637.109375,P18,D07,1,0,1
1418,0.24,1645444637.125,P18,D07,1,0,1
1419,0.14,1645444637.140625,P18,D07,1,0,1
1420,0.03,1645444637.15625,P18,D07,1,0,1
1421,-0.11,1645444637.171875,P18,D07,1,0,1
1422,-0.33,1645444637.1875,P18,D07,1,0,1
1423,-0.69,1645444637.203125,P18,D07,1,0,1
1424,-1.13,1645444637.21875,P18,D07,1,0,1
1425,-1.55,1645444637.234375,P18,D07,1,0,1
1426,-1.8,1645444637.25,P18,D07,1,0,1
1427,-1.79,1645444637.265625,P18,D07,1,0,1
1428,-1.56,1645444637.28125,P18,D07,1,0,1
1429,-1.19,1645444637.296875,P18,D07,1,0,1
1430,-0.8,1645444637.3125,P18,D07,1,0,1
1431,-0.48,1645444637.328125,P18,D07,1,0,1
1432,-0.26,1645444637.34375,P18,D07,1,0,1
1433,-0.15,1645444637.359375,P18,D07,1,0,1
1434,-0.14,1645444637.375,P18,D07,1,0,1
1435,-0.22,1645444637.390625,P18,D07,1,0,1
1436,-0.36,1645444637.40625,P18,D07,1,0,1
1437,-0.52,1645444637.421875,P18,D07,1,0,1
1438,-0.56,1645444637.4375,P18,D07,1,0,1
1439,-0.39,1645444637.453125,P18,D07,1,0,1
1440,0.02,1645444637.46875,P18,D07,1,0,1
1441,0.58,1645444637.484375,P18,D07,1,0,1
1442,1.07,1645444637.5,P18,D07,1,0,1
1443,1.29,1645444637.515625,P18,D07,1,0,1
1444,1.16,1645444637.53125,P18,D07,1,0,1
1445,0.76,1645444637.546875,P18,D07,1,0,1
1446,0.29,1645444637.5625,P18,D07,1,0,1
1447,-0.02,1645444637.578125,P18,D07,1,0,1
1448,-0.04,1645444637.59375,P18,D07,1,0,1
1449,0.2,1645444637.609375,P18,D07,1,0,1
1450,0.55,1645444637.625,P18,D07,1,0,1
1451,0.82,1645444637.640625,P18,D07,1,0,1
1452,0.91,1645444637.65625,P18,D07,1,0,1
1453,0.82,1645444637.671875,P18,D07,1,0,1
1454,0.64,1645444637.6875,P18,D07,1,0,1
1455,0.48,1645444637.703125,P18,D07,1,0,1
1456,0.41,1645444637.71875,P18,D07,1,0,1
1457,0.4,1645444637.734375,P18,D07,1,0,1
1458,0.37,1645444637.75,P18,D07,1,0,1
1459,0.25,1645444637.765625,P18,D07,1,0,1
1460,0.04,1645444637.78125,P18,D07,1,0,1
1461,-0.23,1645444637.796875,P18,D07,1,0,1
1462,-0.47,1645444637.8125,P18,D07,1,0,1
1463,-0.6,1645444637.828125,P18,D07,1,0,1
1464,-0.54,1645444637.84375,P18,D07,1,0,1
1465,-0.28,1645444637.859375,P18,D07,1,0,1
1466,0.17,1645444637.875,P18,D07,1,0,1
1467,0.69,1645444637.890625,P18,D07,1,0,1
1468,1.16,1645444637.90625,P18,D07,1,0,1
1469,1.44,1645444637.921875,P18,D07,1,0,1
1470,1.43,1645444637.9375,P18,D07,1,0,1
1471,1.13,1645444637.953125,P18,D07,1,0,1
1472,0.6,1645444637.96875,P18,D07,1,0,1
1473,-0.01,1645444637.984375,P18,D07,1,0,1
1474,-0.59,1645444638.0,P18,D07,1,0,1
1475,-1.01,1645444638.015625,P18,D07,1,0,1
1476,-1.23,1645444638.03125,P18,D07,1,0,1
1477,-1.23,1645444638.046875,P18,D07,1,0,1
1478,-1.06,1645444638.0625,P18,D07,1,0,1
1479,-0.77,1645444638.078125,P18,D07,1,0,1
1480,-0.44,1645444638.09375,P18,D07,1,0,1
1481,-0.14,1645444638.109375,P18,D07,1,0,1
1482,0.09,1645444638.125,P18,D07,1,0,1
1483,0.23,1645444638.140625,P18,D07,1,0,1
1484,0.26,1645444638.15625,P18,D07,1,0,1
1485,0.17,1645444638.171875,P18,D07,1,0,1
1486,-0.07,1645444638.1875,P18,D07,1,0,1
1487,-0.46,1645444638.203125,P18,D07,1,0,1
1488,-0.95,1645444638.21875,P18,D07,1,0,1
1489,-1.38,1645444638.234375,P18,D07,1,0,1
1490,-1.58,1645444638.25,P18,D07,1,0,1
1491,-1.43,1645444638.265625,P18,D07,1,0,1
1492,-0.92,1645444638.28125,P18,D07,1,0,1
1493,-0.2,1645444638.296875,P18,D07,1,0,1
1494,0.53,1645444638.3125,P18,D07,1,0,1
1495,1.08,1645444638.328125,P18,D07,1,0,1
1496,1.37,1645444638.34375,P18,D07,1,0,1
1497,1.45,1645444638.359375,P18,D07,1,0,1
1498,1.42,1645444638.375,P18,D07,1,0,1
1499,1.36,1645444638.390625,P18,D07,1,0,1
1500,1.3,1645444638.40625,P18,D07,1,0,1
1501,1.22,1645444638.421875,P18,D07,1,0,1
1502,1.1,1645444638.4375,P18,D07,1,0,1
1503,0.94,1645444638.453125,P18,D07,1,0,1
1504,0.79,1645444638.46875,P18,D07,1,0,1
1505,0.7,1645444638.484375,P18,D07,1,0,1
1506,0.68,1645444638.5,P18,D07,1,0,1
1507,0.72,1645444638.515625,P18,D07,1,0,1
1508,0.78,1645444638.53125,P18,D07,1,0,1
1509,0.82,1645444638.546875,P18,D07,1,0,1
1510,0.84,1645444638.5625,P18,D07,1,0,1
1511,0.86,1645444638.578125,P18,D07,1,0,1
1512,0.86,1645444638.59375,P18,D07,1,0,1
1513,0.81,1645444638.609375,P18,D07,1,0,1
1514,0.69,1645444638.625,P18,D07,1,0,1
1515,0.43,1645444638.640625,P18,D07,1,0,1
1516,0.06,1645444638.65625,P18,D07,1,0,1
1517,-0.33,1645444638.671875,P18,D07,1,0,1
1518,-0.6,1645444638.6875,P18,D07,1,0,1
1519,-0.62,1645444638.703125,P18,D07,1,0,1
1520,-0.36,1645444638.71875,P18,D07,1,0,1
1521,0.07,1645444638.734375,P18,D07,1,0,1
1522,0.46,1645444638.75,P18,D07,1,0,1
1523,0.61,1645444638.765625,P18,D07,1,0,1
1524,0.42,1645444638.78125,P18,D07,1,0,1
1525,-0.04,1645444638.796875,P18,D07,1,0,1
1526,-0.53,1645444638.8125,P18,D07,1,0,1
1527,-0.84,1645444638.828125,P18,D07,1,0,1
1528,-0.83,1645444638.84375,P18,D07,1,0,1
1529,-0.55,1645444638.859375,P18,D07,1,0,1
1530,-0.17,1645444638.875,P18,D07,1,0,1
1531,0.11,1645444638.890625,P18,D07,1,0,1
1532,0.16,1645444638.90625,P18,D07,1,0,1
1533,-0.03,1645444638.921875,P18,D07,1,0,1
1534,-0.35,1645444638.9375,P18,D07,1,0,1
1535,-0.65,1645444638.953125,P18,D07,1,0,1
1536,-0.8,1645444638.96875,P18,D07,1,0,1
1537,-0.79,1645444638.984375,P18,D07,1,0,1
1538,-0.63,1645444639.0,P18,D07,1,0,1
1539,-0.38,1645444639.015625,P18,D07,1,0,1
1540,-0.12,1645444639.03125,P18,D07,1,0,1
1541,0.1,1645444639.046875,P18,D07,1,0,1
1542,0.22,1645444639.0625,P18,D07,1,0,1
1543,0.24,1645444639.078125,P18,D07,1,0,1
1544,0.19,1645444639.09375,P18,D07,1,0,1
1545,0.13,1645444639.109375,P18,D07,1,0,1
1546,0.12,1645444639.125,P18,D07,1,0,1
1547,0.18,1645444639.140625,P18,D07,1,0,1
1548,0.3,1645444639.15625,P18,D07,1,0,1
1549,0.39,1645444639.171875,P18,D07,1,0,1
1550,0.36,1645444639.1875,P18,D07,1,0,1
1551,0.17,1645444639.203125,P18,D07,1,0,1
1552,-0.15,1645444639.21875,P18,D07,1,0,1
1553,-0.49,1645444639.234375,P18,D07,1,0,1
1554,-0.73,1645444639.25,P18,D07,1,0,1
1555,-0.78,1645444639.265625,P18,D07,1,0,1
1556,-0.6,1645444639.28125,P18,D07,1,0,1
1557,-0.28,1645444639.296875,P18,D07,1,0,1
1558,0.07,1645444639.3125,P18,D07,1,0,1
1559,0.31,1645444639.328125,P18,D07,1,0,1
1560,0.33,1645444639.34375,P18,D07,1,0,1
1561,0.12,1645444639.359375,P18,D07,1,0,1
1562,-0.28,1645444639.375,P18,D07,1,0,1
1563,-0.77,1645444639.390625,P18,D07,1,0,1
1564,-1.21,1645444639.40625,P18,D07,1,0,1
1565,-1.45,1645444639.421875,P18,D07,1,0,1
1566,-1.4,1645444639.4375,P18,D07,1,0,1
1567,-1.06,1645444639.453125,P18,D07,1,0,1
1568,-0.5,1645444639.46875,P18,D07,1,0,1
1569,0.09,1645444639.484375,P18,D07,1,0,1
1570,0.53,1645444639.5,P18,D07,1,0,1
1571,0.68,1645444639.515625,P18,D07,1,0,1
1572,0.55,1645444639.53125,P18,D07,1,0,1
1573,0.24,1645444639.546875,P18,D07,1,0,1
1574,-0.06,1645444639.5625,P18,D07,1,0,1
1575,-0.22,1645444639.578125,P18,D07,1,0,1
1576,-0.21,1645444639.59375,P18,D07,1,0,1
1577,-0.09,1645444639.609375,P18,D07,1,0,1
1578,0.02,1645444639.625,P18,D07,1,0,1
1579,0.02,1645444639.640625,P18,D07,1,0,1
1580,-0.05,1645444639.65625,P18,D07,1,0,1
1581,-0.1,1645444639.671875,P18,D07,1,0,1
1582,-0.02,1645444639.6875,P18,D07,1,0,1
1583,0.19,1645444639.703125,P18,D07,1,0,1
1584,0.45,1645444639.71875,P18,D07,1,0,1
1585,0.63,1645444639.734375,P18,D07,1,0,1
1586,0.66,1645444639.75,P18,D07,1,0,1
1587,0.52,1645444639.765625,P18,D07,1,0,1
1588,0.31,1645444639.78125,P18,D07,1,0,1
1589,0.13,1645444639.796875,P18,D07,1,0,1
1590,0.06,1645444639.8125,P18,D07,1,0,1
1591,0.11,1645444639.828125,P18,D07,1,0,1
1592,0.22,1645444639.84375,P18,D07,1,0,1
1593,0.34,1645444639.859375,P18,D07,1,0,1
1594,0.41,1645444639.875,P18,D07,1,0,1
1595,0.41,1645444639.890625,P18,D07,1,0,1
1596,0.37,1645444639.90625,P18,D07,1,0,1
1597,0.36,1645444639.921875,P18,D07,1,0,1
1598,0.44,1645444639.9375,P18,D07,1,0,1
1599,0.61,1645444639.953125,P18,D07,1,0,1
1600,0.83,1645444639.96875,P18,D07,1,0,1
1601,0.97,1645444639.984375,P18,D07,1,0,1
1602,0.92,1645444640.0,P18,D07,1,0,1
1603,0.62,1645444640.015625,P18,D07,1,0,1
1604,0.13,1645444640.03125,P18,D07,1,0,1
1605,-0.42,1645444640.046875,P18,D07,1,0,1
1606,-0.86,1645444640.0625,P18,D07,1,0,1
1607,-1.11,1645444640.078125,P18,D07,1,0,1
1608,-1.18,1645444640.09375,P18,D07,1,0,1
1609,-1.19,1645444640.109375,P18,D07,1,0,1
1610,-1.23,1645444640.125,P18,D07,1,0,1
1611,-1.31,1645444640.140625,P18,D07,1,0,1
1612,-1.35,1645444640.15625,P18,D07,1,0,1
1613,-1.22,1645444640.171875,P18,D07,1,0,1
1614,-0.88,1645444640.1875,P18,D07,1,0,1
1615,-0.4,1645444640.203125,P18,D07,1,0,1
1616,0.09,1645444640.21875,P18,D07,1,0,1
1617,0.47,1645444640.234375,P18,D07,1,0,1
1618,0.72,1645444640.25,P18,D07,1,0,1
1619,0.9,1645444640.265625,P18,D07,1,0,1
1620,1.11,1645444640.28125,P18,D07,1,0,1
1621,1.39,1645444640.296875,P18,D07,1,0,1
1622,1.69,1645444640.3125,P18,D07,1,0,1
1623,1.88,1645444640.328125,P18,D07,1,0,1
1624,1.84,1645444640.34375,P18,D07,1,0,1
1625,1.54,1645444640.359375,P18,D07,1,0,1
1626,1.04,1645444640.375,P18,D07,1,0,1
1627,0.48,1645444640.390625,P18,D07,1,0,1
1628,-0.06,1645444640.40625,P18,D07,1,0,1
1629,-0.49,1645444640.421875,P18,D07,1,0,1
1630,-0.84,1645444640.4375,P18,D07,1,0,1
1631,-1.14,1645444640.453125,P18,D07,1,0,1
1632,-1.42,1645444640.46875,P18,D07,1,0,1
1633,-1.68,1645444640.484375,P18,D07,1,0,1
1634,-1.91,1645444640.5,P18,D07,1,0,1
1635,-2.06,1645444640.515625,P18,D07,1,0,1
1636,-2.1,1645444640.53125,P18,D07,1,0,1
1637,-2.0,1645444640.546875,P18,D07,1,0,1
1638,-1.71,1645444640.5625,P18,D07,1,0,1
1639,-1.23,1645444640.578125,P18,D07,1,0,1
1640,-0.57,1645444640.59375,P18,D07,1,0,1
1641,0.23,1645444640.609375,P18,D07,1,0,1
1642,1.08,1645444640.625,P18,D07,1,0,1
1643,1.88,1645444640.640625,P18,D07,1,0,1
1644,2.49,1645444640.65625,P18,D07,1,0,1
1645,2.82,1645444640.671875,P18,D07,1,0,1
1646,2.81,1645444640.6875,P18,D07,1,0,1
1647,2.5,1645444640.703125,P18,D07,1,0,1
1648,2.0,1645444640.71875,P18,D07,1,0,1
1649,1.43,1645444640.734375,P18,D07,1,0,1
1650,0.91,1645444640.75,P18,D07,1,0,1
1651,0.46,1645444640.765625,P18,D07,1,0,1
1652,0.05,1645444640.78125,P18,D07,1,0,1
1653,-0.36,1645444640.796875,P18,D07,1,0,1
1654,-0.79,1645444640.8125,P18,D07,1,0,1
1655,-1.18,1645444640.828125,P18,D07,1,0,1
1656,-1.42,1645444640.84375,P18,D07,1,0,1
1657,-1.41,1645444640.859375,P18,D07,1,0,1
1658,-1.14,1645444640.875,P18,D07,1,0,1
1659,-0.67,1645444640.890625,P18,D07,1,0,1
1660,-0.16,1645444640.90625,P18,D07,1,0,1
1661,0.25,1645444640.921875,P18,D07,1,0,1
1662,0.47,1645444640.9375,P18,D07,1,0,1
1663,0.47,1645444640.953125,P18,D07,1,0,1
1664,0.32,1645444640.96875,P18,D07,1,0,1
1665,0.11,1645444640.984375,P18,D07,1,0,1
1666,-0.06,1645444641.0,P18,D07,1,0,1
1667,-0.14,1645444641.015625,P18,D07,1,0,1
1668,-0.15,1645444641.03125,P18,D07,1,0,1
1669,-0.14,1645444641.046875,P18,D07,1,0,1
1670,-0.18,1645444641.0625,P18,D07,1,0,1
1671,-0.31,1645444641.078125,P18,D07,1,0,1
1672,-0.52,1645444641.09375,P18,D07,1,0,1
1673,-0.73,1645444641.109375,P18,D07,1,0,1
1674,-0.85,1645444641.125,P18,D07,1,0,1
1675,-0.82,1645444641.140625,P18,D07,1,0,1
1676,-0.6,1645444641.15625,P18,D07,1,0,1
1677,-0.25,1645444641.171875,P18,D07,1,0,1
1678,0.16,1645444641.1875,P18,D07,1,0,1
1679,0.57,1645444641.203125,P18,D07,1,0,1
1680,0.91,1645444641.21875,P18,D07,1,0,1
1681,1.18,1645444641.234375,P18,D07,1,0,1
1682,1.36,1645444641.25,P18,D07,1,0,1
1683,1.45,1645444641.265625,P18,D07,1,0,1
1684,1.44,1645444641.28125,P18,D07,1,0,1
1685,1.29,1645444641.296875,P18,D07,1,0,1
1686,0.99,1645444641.3125,P18,D07,1,0,1
1687,0.6,1645444641.328125,P18,D07,1,0,1
1688,0.17,1645444641.34375,P18,D07,1,0,1
1689,-0.18,1645444641.359375,P18,D07,1,0,1
1690,-0.36,1645444641.375,P18,D07,1,0,1
1691,-0.36,1645444641.390625,P18,D07,1,0,1
1692,-0.25,1645444641.40625,P18,D07,1,0,1
1693,-0.15,1645444641.421875,P18,D07,1,0,1
1694,-0.15,1645444641.4375,P18,D07,1,0,1
1695,-0.27,1645444641.453125,P18,D07,1,0,1
1696,-0.45,1645444641.46875,P18,D07,1,0,1
1697,-0.57,1645444641.484375,P18,D07,1,0,1
1698,-0.56,1645444641.5,P18,D07,1,0,1
1699,-0.43,1645444641.515625,P18,D07,1,0,1
1700,-0.26,1645444641.53125,P18,D07,1,0,1
1701,-0.14,1645444641.546875,P18,D07,1,0,1
1702,-0.11,1645444641.5625,P18,D07,1,0,1
1703,-0.16,1645444641.578125,P18,D07,1,0,1
1704,-0.24,1645444641.59375,P18,D07,1,0,1
1705,-0.29,1645444641.609375,P18,D07,1,0,1
1706,-0.27,1645444641.625,P18,D07,1,0,1
1707,-0.2,1645444641.640625,P18,D07,1,0,1
1708,-0.09,1645444641.65625,P18,D07,1,0,1
1709,0.03,1645444641.671875,P18,D07,1,0,1
1710,0.12,1645444641.6875,P18,D07,1,0,1
1711,0.13,1645444641.703125,P18,D07,1,0,1
1712,0.04,1645444641.71875,P18,D07,1,0,1
1713,-0.12,1645444641.734375,P18,D07,1,0,1
1714,-0.29,1645444641.75,P18,D07,1,0,1
1715,-0.4,1645444641.765625,P18,D07,1,0,1
1716,-0.4,1645444641.78125,P18,D07,1,0,1
1717,-0.32,1645444641.796875,P18,D07,1,0,1
1718,-0.21,1645444641.8125,P18,D07,1,0,1
1719,-0.12,1645444641.828125,P18,D07,1,0,1
1720,-0.07,1645444641.84375,P18,D07,1,0,1
1721,-0.0,1645444641.859375,P18,D07,1,0,1
1722,0.12,1645444641.875,P18,D07,1,0,1
1723,0.32,1645444641.890625,P18,D07,1,0,1
1724,0.54,1645444641.90625,P18,D07,1,0,1
1725,0.7,1645444641.921875,P18,D07,1,0,1
1726,0.7,1645444641.9375,P18,D07,1,0,1
1727,0.53,1645444641.953125,P18,D07,1,0,1
1728,0.23,1645444641.96875,P18,D07,1,0,1
1729,-0.11,1645444641.984375,P18,D07,1,0,1
1730,-0.4,1645444642.0,P18,D07,1,0,1
1731,-0.57,1645444642.015625,P18,D07,1,0,1
1732,-0.6,1645444642.03125,P18,D07,1,0,1
1733,-0.48,1645444642.046875,P18,D07,1,0,1
1734,-0.24,1645444642.0625,P18,D07,1,0,1
1735,0.05,1645444642.078125,P18,D07,1,0,1
1736,0.32,1645444642.09375,P18,D07,1,0,1
1737,0.45,1645444642.109375,P18,D07,1,0,1
1738,0.38,1645444642.125,P18,D07,1,0,1
1739,0.11,1645444642.140625,P18,D07,1,0,1
1740,-0.3,1645444642.15625,P18,D07,1,0,1
1741,-0.71,1645444642.171875,P18,D07,1,0,1
1742,-1.0,1645444642.1875,P18,D07,1,0,1
1743,-1.05,1645444642.203125,P18,D07,1,0,1
1744,-0.83,1645444642.21875,P18,D07,1,0,1
1745,-0.38,1645444642.234375,P18,D07,1,0,1
1746,0.15,1645444642.25,P18,D07,1,0,1
1747,0.61,1645444642.265625,P18,D07,1,0,1
1748,0.82,1645444642.28125,P18,D07,1,0,1
1749,0.75,1645444642.296875,P18,D07,1,0,1
1750,0.43,1645444642.3125,P18,D07,1,0,1
1751,0.01,1645444642.328125,P18,D07,1,0,1
1752,-0.36,1645444642.34375,P18,D07,1,0,1
1753,-0.55,1645444642.359375,P18,D07,1,0,1
1754,-0.57,1645444642.375,P18,D07,1,0,1
1755,-0.49,1645444642.390625,P18,D07,1,0,1
1756,-0.39,1645444642.40625,P18,D07,1,0,1
1757,-0.34,1645444642.421875,P18,D07,1,0,1
1758,-0.34,1645444642.4375,P18,D07,1,0,1
1759,-0.35,1645444642.453125,P18,D07,1,0,1
1760,-0.35,1645444642.46875,P18,D07,1,0,1
1761,-0.33,1645444642.484375,P18,D07,1,0,1
1762,-0.31,1645444642.5,P18,D07,1,0,1
1763,-0.26,1645444642.515625,P18,D07,1,0,1
1764,-0.14,1645444642.53125,P18,D07,1,0,1
1765,0.11,1645444642.546875,P18,D07,1,0,1
1766,0.48,1645444642.5625,P18,D07,1,0,1
1767,0.9,1645444642.578125,P18,D07,1,0,1
1768,1.22,1645444642.59375,P18,D07,1,0,1
1769,1.31,1645444642.609375,P18,D07,1,0,1
1770,1.1,1645444642.625,P18,D07,1,0,1
1771,0.65,1645444642.640625,P18,D07,1,0,1
1772,0.12,1645444642.65625,P18,D07,1,0,1
1773,-0.33,1645444642.671875,P18,D07,1,0,1
1774,-0.56,1645444642.6875,P18,D07,1,0,1
1775,-0.53,1645444642.703125,P18,D07,1,0,1
1776,-0.32,1645444642.71875,P18,D07,1,0,1
1777,-0.03,1645444642.734375,P18,D07,1,0,1
1778,0.25,1645444642.75,P18,D07,1,0,1
1779,0.46,1645444642.765625,P18,D07,1,0,1
1780,0.59,1645444642.78125,P18,D07,1,0,1
1781,0.61,1645444642.796875,P18,D07,1,0,1
1782,0.52,1645444642.8125,P18,D07,1,0,1
1783,0.29,1645444642.828125,P18,D07,1,0,1
1784,-0.05,1645444642.84375,P18,D07,1,0,1
1785,-0.42,1645444642.859375,P18,D07,1,0,1
1786,-0.68,1645444642.875,P18,D07,1,0,1
1787,-0.71,1645444642.890625,P18,D07,1,0,1
1788,-0.48,1645444642.90625,P18,D07,1,0,1
1789,-0.07,1645444642.921875,P18,D07,1,0,1
1790,0.36,1645444642.9375,P18,D07,1,0,1
1791,0.67,1645444642.953125,P18,D07,1,0,1
1792,0.76,1645444642.96875,P18,D07,1,0,1
1793,0.65,1645444642.984375,P18,D07,1,0,1
1794,0.42,1645444643.0,P18,D07,1,0,1
1795,0.18,1645444643.015625,P18,D07,1,0,1
1796,-0.01,1645444643.03125,P18,D07,1,0,1
1797,-0.12,1645444643.046875,P18,D07,1,0,1
1798,-0.15,1645444643.0625,P18,D07,1,0,1
1799,-0.1,1645444643.078125,P18,D07,1,0,1
1800,0.06,1645444643.09375,P18,D07,1,0,1
1801,0.33,1645444643.109375,P18,D07,1,0,1
1802,0.68,1645444643.125,P18,D07,1,0,1
1803,1.06,1645444643.140625,P18,D07,1,0,1
1804,1.36,1645444643.15625,P18,D07,1,0,1
1805,1.49,1645444643.171875,P18,D07,1,0,1
1806,1.41,1645444643.1875,P18,D07,1,0,1
1807,1.14,1645444643.203125,P18,D07,1,0,1
1808,0.71,1645444643.21875,P18,D07,1,0,1
1809,0.22,1645444643.234375,P18,D07,1,0,1
1810,-0.28,1645444643.25,P18,D07,1,0,1
1811,-0.73,1645444643.265625,P18,D07,1,0,1
1812,-1.09,1645444643.28125,P18,D07,1,0,1
1813,-1.33,1645444643.296875,P18,D07,1,0,1
1814,-1.46,1645444643.3125,P18,D07,1,0,1
1815,-1.47,1645444643.328125,P18,D07,1,0,1
1816,-1.4,1645444643.34375,P18,D07,1,0,1
1817,-1.34,1645444643.359375,P18,D07,1,0,1
1818,-1.34,1645444643.375,P18,D07,1,0,1
1819,-1.41,1645444643.390625,P18,D07,1,0,1
1820,-1.52,1645444643.40625,P18,D07,1,0,1
1821,-1.57,1645444643.421875,P18,D07,1,0,1
1822,-1.46,1645444643.4375,P18,D07,1,0,1
1823,-1.15,1645444643.453125,P18,D07,1,0,1
1824,-0.69,1645444643.46875,P18,D07,1,0,1
1825,-0.18,1645444643.484375,P18,D07,1,0,1
1826,0.23,1645444643.5,P18,D07,1,0,1
1827,0.44,1645444643.515625,P18,D07,1,0,1
1828,0.42,1645444643.53125,P18,D07,1,0,1
1829,0.21,1645444643.546875,P18,D07,1,0,1
1830,-0.06,1645444643.5625,P18,D07,1,0,1
1831,-0.31,1645444643.578125,P18,D07,1,0,1
1832,-0.44,1645444643.59375,P18,D07,1,0,1
1833,-0.42,1645444643.609375,P18,D07,1,0,1
1834,-0.23,1645444643.625,P18,D07,1,0,1
1835,0.07,1645444643.640625,P18,D07,1,0,1
1836,0.4,1645444643.65625,P18,D07,1,0,1
1837,0.64,1645444643.671875,P18,D07,1,0,1
1838,0.71,1645444643.6875,P18,D07,1,0,1
1839,0.57,1645444643.703125,P18,D07,1,0,1
1840,0.26,1645444643.71875,P18,D07,1,0,1
1841,-0.1,1645444643.734375,P18,D07,1,0,1
1842,-0.37,1645444643.75,P18,D07,1,0,1
1843,-0.44,1645444643.765625,P18,D07,1,0,1
1844,-0.3,1645444643.78125,P18,D07,1,0,1
1845,-0.02,1645444643.796875,P18,D07,1,0,1
1846,0.25,1645444643.8125,P18,D07,1,0,1
1847,0.38,1645444643.828125,P18,D07,1,0,1
1848,0.33,1645444643.84375,P18,D07,1,0,1
1849,0.14,1645444643.859375,P18,D07,1,0,1
1850,-0.09,1645444643.875,P18,D07,1,0,1
1851,-0.24,1645444643.890625,P18,D07,1,0,1
1852,-0.25,1645444643.90625,P18,D07,1,0,1
1853,-0.11,1645444643.921875,P18,D07,1,0,1
1854,0.12,1645444643.9375,P18,D07,1,0,1
1855,0.37,1645444643.953125,P18,D07,1,0,1
1856,0.59,1645444643.96875,P18,D07,1,0,1
1857,0.74,1645444643.984375,P18,D07,1,0,1
1858,0.81,1645444644.0,P18,D07,1,0,1
1859,0.83,1645444644.015625,P18,D07,1,0,1
1860,0.81,1645444644.03125,P18,D07,1,0,1
1861,0.75,1645444644.046875,P18,D07,1,0,1
1862,0.67,1645444644.0625,P18,D07,1,0,1
1863,0.58,1645444644.078125,P18,D07,1,0,1
1864,0.5,1645444644.09375,P18,D07,1,0,1
1865,0.46,1645444644.109375,P18,D07,1,0,1
1866,0.47,1645444644.125,P18,D07,1,0,1
1867,0.51,1645444644.140625,P18,D07,1,0,1
1868,0.54,1645444644.15625,P18,D07,1,0,1
1869,0.53,1645444644.171875,P18,D07,1,0,1
1870,0.46,1645444644.1875,P18,D07,1,0,1
1871,0.33,1645444644.203125,P18,D07,1,0,1
1872,0.18,1645444644.21875,P18,D07,1,0,1
1873,0.05,1645444644.234375,P18,D07,1,0,1
1874,-0.02,1645444644.25,P18,D07,1,0,1
1875,-0.03,1645444644.265625,P18,D07,1,0,1
1876,0.01,1645444644.28125,P18,D07,1,0,1
1877,0.04,1645444644.296875,P18,D07,1,0,1
1878,0.01,1645444644.3125,P18,D07,1,0,1
1879,-0.1,1645444644.328125,P18,D07,1,0,1
1880,-0.27,1645444644.34375,P18,D07,1,0,1
1881,-0.43,1645444644.359375,P18,D07,1,0,1
1882,-0.52,1645444644.375,P18,D07,1,0,1
1883,-0.51,1645444644.390625,P18,D07,1,0,1
1884,-0.42,1645444644.40625,P18,D07,1,0,1
1885,-0.3,1645444644.421875,P18,D07,1,0,1
1886,-0.22,1645444644.4375,P18,D07,1,0,1
1887,-0.17,1645444644.453125,P18,D07,1,0,1
1888,-0.14,1645444644.46875,P18,D07,1,0,1
1889,-0.05,1645444644.484375,P18,D07,1,0,1
1890,0.11,1645444644.5,P18,D07,1,0,1
1891,0.3,1645444644.515625,P18,D07,1,0,1
1892,0.42,1645444644.53125,P18,D07,1,0,1
1893,0.38,1645444644.546875,P18,D07,1,0,1
1894,0.16,1645444644.5625,P18,D07,1,0,1
1895,-0.18,1645444644.578125,P18,D07,1,0,1
1896,-0.48,1645444644.59375,P18,D07,1,0,1
1897,-0.61,1645444644.609375,P18,D07,1,0,1
1898,-0.55,1645444644.625,P18,D07,1,0,1
1899,-0.35,1645444644.640625,P18,D07,1,0,1
1900,-0.16,1645444644.65625,P18,D07,1,0,1
1901,-0.1,1645444644.671875,P18,D07,1,0,1
1902,-0.22,1645444644.6875,P18,D07,1,0,1
1903,-0.44,1645444644.703125,P18,D07,1,0,1
1904,-0.61,1645444644.71875,P18,D07,1,0,1
1905,-0.56,1645444644.734375,P18,D07,1,0,1
1906,-0.25,1645444644.75,P18,D07,1,0,1
1907,0.27,1645444644.765625,P18,D07,1,0,1
1908,0.82,1645444644.78125,P18,D07,1,0,1
1909,1.21,1645444644.796875,P18,D07,1,0,1
1910,1.28,1645444644.8125,P18,D07,1,0,1
1911,1.02,1645444644.828125,P18,D07,1,0,1
1912,0.57,1645444644.84375,P18,D07,1,0,1
1913,0.12,1645444644.859375,P18,D07,1,0,1
1914,-0.13,1645444644.875,P18,D07,1,0,1
1915,-0.14,1645444644.890625,P18,D07,1,0,1
1916,0.01,1645444644.90625,P18,D07,1,0,1
1917,0.16,1645444644.921875,P18,D07,1,0,1
1918,0.19,1645444644.9375,P18,D07,1,0,1
1919,0.09,1645444644.953125,P18,D07,1,0,1
1920,-0.08,1645444644.96875,P18,D07,1,0,1
1921,-0.18,1645444644.984375,P18,D07,1,0,1
1922,-0.12,1645444645.0,P18,D07,1,0,1
1923,0.05,1645444645.015625,P18,D07,1,0,1
1924,0.24,1645444645.03125,P18,D07,1,0,1
1925,0.33,1645444645.046875,P18,D07,1,0,1
1926,0.26,1645444645.0625,P18,D07,1,0,1
1927,0.07,1645444645.078125,P18,D07,1,0,1
1928,-0.15,1645444645.09375,P18,D07,1,0,1
1929,-0.29,1645444645.109375,P18,D07,1,0,1
1930,-0.29,1645444645.125,P18,D07,1,0,1
1931,-0.17,1645444645.140625,P18,D07,1,0,1
1932,0.01,1645444645.15625,P18,D07,1,0,1
1933,0.16,1645444645.171875,P18,D07,1,0,1
1934,0.21,1645444645.1875,P18,D07,1,0,1
1935,0.16,1645444645.203125,P18,D07,1,0,1
1936,0.06,1645444645.21875,P18,D07,1,0,1
1937,-0.04,1645444645.234375,P18,D07,1,0,1
1938,-0.09,1645444645.25,P18,D07,1,0,1
1939,-0.08,1645444645.265625,P18,D07,1,0,1
1940,-0.09,1645444645.28125,P18,D07,1,0,1
1941,-0.17,1645444645.296875,P18,D07,1,0,1
1942,-0.39,1645444645.3125,P18,D07,1,0,1
1943,-0.69,1645444645.328125,P18,D07,1,0,1
1944,-1.02,1645444645.34375,P18,D07,1,0,1
1945,-1.25,1645444645.359375,P18,D07,1,0,1
1946,-1.33,1645444645.375,P18,D07,1,0,1
1947,-1.22,1645444645.390625,P18,D07,1,0,1
1948,-0.94,1645444645.40625,P18,D07,1,0,1
1949,-0.52,1645444645.421875,P18,D07,1,0,1
1950,-0.02,1645444645.4375,P18,D07,1,0,1
1951,0.51,1645444645.453125,P18,D07,1,0,1
1952,0.98,1645444645.46875,P18,D07,1,0,1
1953,1.28,1645444645.484375,P18,D07,1,0,1
1954,1.35,1645444645.5,P18,D07,1,0,1
1955,1.17,1645444645.515625,P18,D07,1,0,1
1956,0.77,1645444645.53125,P18,D07,1,0,1
1957,0.26,1645444645.546875,P18,D07,1,0,1
1958,-0.23,1645444645.5625,P18,D07,1,0,1
1959,-0.61,1645444645.578125,P18,D07,1,0,1
1960,-0.83,1645444645.59375,P18,D07,1,0,1
1961,-0.88,1645444645.609375,P18,D07,1,0,1
1962,-0.81,1645444645.625,P18,D07,1,0,1
1963,-0.69,1645444645.640625,P18,D07,1,0,1
1964,-0.56,1645444645.65625,P18,D07,1,0,1
1965,-0.44,1645444645.671875,P18,D07,1,0,1
1966,-0.35,1645444645.6875,P18,D07,1,0,1
1967,-0.25,1645444645.703125,P18,D07,1,0,1
1968,-0.17,1645444645.71875,P18,D07,1,0,1
1969,-0.11,1645444645.734375,P18,D07,1,0,1
1970,-0.09,1645444645.75,P18,D07,1,0,1
1971,-0.14,1645444645.765625,P18,D07,1,0,1
1972,-0.22,1645444645.78125,P18,D07,1,0,1
1973,-0.24,1645444645.796875,P18,D07,1,0,1
1974,-0.17,1645444645.8125,P18,D07,1,0,1
1975,0.05,1645444645.828125,P18,D07,1,0,1
1976,0.37,1645444645.84375,P18,D07,1,0,1
1977,0.69,1645444645.859375,P18,D07,1,0,1
1978,0.92,1645444645.875,P18,D07,1,0,1
1979,0.99,1645444645.890625,P18,D07,1,0,1
1980,0.89,1645444645.90625,P18,D07,1,0,1
1981,0.68,1645444645.921875,P18,D07,1,0,1
1982,0.42,1645444645.9375,P18,D07,1,0,1
1983,0.14,1645444645.953125,P18,D07,1,0,1
1984,-0.11,1645444645.96875,P18,D07,1,0,1
1985,-0.31,1645444645.984375,P18,D07,1,0,1
1986,-0.45,1645444646.0,P18,D07,1,0,1
1987,-0.48,1645444646.015625,P18,D07,1,0,1
1988,-0.39,1645444646.03125,P18,D07,1,0,1
1989,-0.22,1645444646.046875,P18,D07,1,0,1
1990,-0.04,1645444646.0625,P18,D07,1,0,1
1991,0.07,1645444646.078125,P18,D07,1,0,1
1992,0.04,1645444646.09375,P18,D07,1,0,1
1993,-0.13,1645444646.109375,P18,D07,1,0,1
1994,-0.37,1645444646.125,P18,D07,1,0,1
1995,-0.61,1645444646.140625,P18,D07,1,0,1
1996,-0.78,1645444646.15625,P18,D07,1,0,1
1997,-0.83,1645444646.171875,P18,D07,1,0,1
1998,-0.78,1645444646.1875,P18,D07,1,0,1
1999,-0.66,1645444646.203125,P18,D07,1,0,1
2000,-0.48,1645444646.21875,P18,D07,1,0,1
2001,-0.29,1645444646.234375,P18,D07,1,0,1
2002,-0.08,1645444646.25,P18,D07,1,0,1
2003,0.09,1645444646.265625,P18,D07,1,0,1
2004,0.17,1645444646.28125,P18,D07,1,0,1
2005,0.14,1645444646.296875,P18,D07,1,0,1
2006,-0.01,1645444646.3125,P18,D07,1,0,1
2007,-0.22,1645444646.328125,P18,D07,1,0,1
2008,-0.39,1645444646.34375,P18,D07,1,0,1
2009,-0.45,1645444646.359375,P18,D07,1,0,1
2010,-0.38,1645444646.375,P18,D07,1,0,1
2011,-0.24,1645444646.390625,P18,D07,1,0,1
2012,-0.12,1645444646.40625,P18,D07,1,0,1
2013,-0.07,1645444646.421875,P18,D07,1,0,1
2014,-0.1,1645444646.4375,P18,D07,1,0,1
2015,-0.16,1645444646.453125,P18,D07,1,0,1
2016,-0.17,1645444646.46875,P18,D07,1,0,1
2017,-0.1,1645444646.484375,P18,D07,1,0,1
2018,0.01,1645444646.5,P18,D07,1,0,1
2019,0.11,1645444646.515625,P18,D07,1,0,1
2020,0.15,1645444646.53125,P18,D07,1,0,1
2021,0.18,1645444646.546875,P18,D07,1,0,1
2022,0.26,1645444646.5625,P18,D07,1,0,1
2023,0.45,1645444646.578125,P18,D07,1,0,1
2024,0.71,1645444646.59375,P18,D07,1,0,1
2025,0.93,1645444646.609375,P18,D07,1,0,1
2026,0.96,1645444646.625,P18,D07,1,0,1
2027,0.73,1645444646.640625,P18,D07,1,0,1
2028,0.32,1645444646.65625,P18,D07,1,0,1
2029,-0.1,1645444646.671875,P18,D07,1,0,1
2030,-0.32,1645444646.6875,P18,D07,1,0,1
2031,-0.27,1645444646.703125,P18,D07,1,0,1
2032,-0.02,1645444646.71875,P18,D07,1,0,1
2033,0.23,1645444646.734375,P18,D07,1,0,1
2034,0.31,1645444646.75,P18,D07,1,0,1
2035,0.16,1645444646.765625,P18,D07,1,0,1
2036,-0.13,1645444646.78125,P18,D07,1,0,1
2037,-0.39,1645444646.796875,P18,D07,1,0,1
2038,-0.5,1645444646.8125,P18,D07,1,0,1
2039,-0.43,1645444646.828125,P18,D07,1,0,1
2040,-0.27,1645444646.84375,P18,D07,1,0,1
2041,-0.12,1645444646.859375,P18,D07,1,0,1
2042,-0.05,1645444646.875,P18,D07,1,0,1
2043,-0.01,1645444646.890625,P18,D07,1,0,1
2044,0.04,1645444646.90625,P18,D07,1,0,1
2045,0.15,1645444646.921875,P18,D07,1,0,1
2046,0.28,1645444646.9375,P18,D07,1,0,1
2047,0.36,1645444646.953125,P18,D07,1,0,1
2048,0.36,1645444646.96875,P18,D07,1,0,1
2049,0.32,1645444646.984375,P18,D07,1,0,1
2050,0.27,1645444647.0,P18,D07,1,0,1
2051,0.29,1645444647.015625,P18,D07,1,0,1
2052,0.37,1645444647.03125,P18,D07,1,0,1
2053,0.44,1645444647.046875,P18,D07,1,0,1
2054,0.43,1645444647.0625,P18,D07,1,0,1
2055,0.31,1645444647.078125,P18,D07,1,0,1
2056,0.1,1645444647.09375,P18,D07,1,0,1
2057,-0.14,1645444647.109375,P18,D07,1,0,1
2058,-0.36,1645444647.125,P18,D07,1,0,1
2059,-0.55,1645444647.140625,P18,D07,1,0,1
2060,-0.68,1645444647.15625,P18,D07,1,0,1
2061,-0.77,1645444647.171875,P18,D07,1,0,1
2062,-0.8,1645444647.1875,P18,D07,1,0,1
2063,-0.76,1645444647.203125,P18,D07,1,0,1
2064,-0.65,1645444647.21875,P18,D07,1,0,1
2065,-0.51,1645444647.234375,P18,D07,1,0,1
2066,-0.36,1645444647.25,P18,D07,1,0,1
2067,-0.24,1645444647.265625,P18,D07,1,0,1
2068,-0.13,1645444647.28125,P18,D07,1,0,1
2069,-0.01,1645444647.296875,P18,D07,1,0,1
2070,0.13,1645444647.3125,P18,D07,1,0,1
2071,0.3,1645444647.328125,P18,D07,1,0,1
2072,0.48,1645444647.34375,P18,D07,1,0,1
2073,0.65,1645444647.359375,P18,D07,1,0,1
2074,0.77,1645444647.375,P18,D07,1,0,1
2075,0.86,1645444647.390625,P18,D07,1,0,1
2076,0.92,1645444647.40625,P18,D07,1,0,1
2077,0.99,1645444647.421875,P18,D07,1,0,1
2078,1.09,1645444647.4375,P18,D07,1,0,1
2079,1.19,1645444647.453125,P18,D07,1,0,1
2080,1.27,1645444647.46875,P18,D07,1,0,1
2081,1.28,1645444647.484375,P18,D07,1,0,1
2082,1.17,1645444647.5,P18,D07,1,0,1
2083,0.94,1645444647.515625,P18,D07,1,0,1
2084,0.62,1645444647.53125,P18,D07,1,0,1
2085,0.27,1645444647.546875,P18,D07,1,0,1
2086,-0.05,1645444647.5625,P18,D07,1,0,1
2087,-0.3,1645444647.578125,P18,D07,1,0,1
2088,-0.46,1645444647.59375,P18,D07,1,0,1
2089,-0.53,1645444647.609375,P18,D07,1,0,1
2090,-0.52,1645444647.625,P18,D07,1,0,1
2091,-0.45,1645444647.640625,P18,D07,1,0,1
2092,-0.35,1645444647.65625,P18,D07,1,0,1
2093,-0.25,1645444647.671875,P18,D07,1,0,1
2094,-0.2,1645444647.6875,P18,D07,1,0,1
2095,-0.23,1645444647.703125,P18,D07,1,0,1
2096,-0.34,1645444647.71875,P18,D07,1,0,1
2097,-0.53,1645444647.734375,P18,D07,1,0,1
2098,-0.77,1645444647.75,P18,D07,1,0,1
2099,-1.04,1645444647.765625,P18,D07,1,0,1
2100,-1.3,1645444647.78125,P18,D07,1,0,1
2101,-1.49,1645444647.796875,P18,D07,1,0,1
2102,-1.55,1645444647.8125,P18,D07,1,0,1
2103,-1.46,1645444647.828125,P18,D07,1,0,1
2104,-1.23,1645444647.84375,P18,D07,1,0,1
2105,-0.97,1645444647.859375,P18,D07,1,0,1
2106,-0.79,1645444647.875,P18,D07,1,0,1
2107,-0.75,1645444647.890625,P18,D07,1,0,1
2108,-0.87,1645444647.90625,P18,D07,1,0,1
2109,-1.05,1645444647.921875,P18,D07,1,0,1
2110,-1.15,1645444647.9375,P18,D07,1,0,1
2111,-1.09,1645444647.953125,P18,D07,1,0,1
2112,-0.82,1645444647.96875,P18,D07,1,0,1
2113,-0.43,1645444647.984375,P18,D07,1,0,1
2114,-0.04,1645444648.0,P18,D07,1,0,1
2115,0.25,1645444648.015625,P18,D07,1,0,1
2116,0.36,1645444648.03125,P18,D07,1,0,1
2117,0.28,1645444648.046875,P18,D07,1,0,1
2118,0.05,1645444648.0625,P18,D07,1,0,1
2119,-0.25,1645444648.078125,P18,D07,1,0,1
2120,-0.54,1645444648.09375,P18,D07,1,0,1
2121,-0.73,1645444648.109375,P18,D07,1,0,1
2122,-0.79,1645444648.125,P18,D07,1,0,1
2123,-0.67,1645444648.140625,P18,D07,1,0,1
2124,-0.39,1645444648.15625,P18,D07,1,0,1
2125,0.04,1645444648.171875,P18,D07,1,0,1
2126,0.56,1645444648.1875,P18,D07,1,0,1
2127,1.07,1645444648.203125,P18,D07,1,0,1
2128,1.5,1645444648.21875,P18,D07,1,0,1
2129,1.77,1645444648.234375,P18,D07,1,0,1
2130,1.86,1645444648.25,P18,D07,1,0,1
2131,1.78,1645444648.265625,P18,D07,1,0,1
2132,1.61,1645444648.28125,P18,D07,1,0,1
2133,1.39,1645444648.296875,P18,D07,1,0,1
2134,1.17,1645444648.3125,P18,D07,1,0,1
2135,0.96,1645444648.328125,P18,D07,1,0,1
2136,0.8,1645444648.34375,P18,D07,1,0,1
2137,0.74,1645444648.359375,P18,D07,1,0,1
2138,0.8,1645444648.375,P18,D07,1,0,1
2139,0.98,1645444648.390625,P18,D07,1,0,1
2140,1.23,1645444648.40625,P18,D07,1,0,1
2141,1.42,1645444648.421875,P18,D07,1,0,1
2142,1.46,1645444648.4375,P18,D07,1,0,1
2143,1.32,1645444648.453125,P18,D07,1,0,1
2144,1.05,1645444648.46875,P18,D07,1,0,1
2145,0.78,1645444648.484375,P18,D07,1,0,1
2146,0.63,1645444648.5,P18,D07,1,0,1
2147,0.66,1645444648.515625,P18,D07,1,0,1
2148,0.81,1645444648.53125,P18,D07,1,0,1
2149,0.95,1645444648.546875,P18,D07,1,0,1
2150,0.94,1645444648.5625,P18,D07,1,0,1
2151,0.68,1645444648.578125,P18,D07,1,0,1
2152,0.19,1645444648.59375,P18,D07,1,0,1
2153,-0.41,1645444648.609375,P18,D07,1,0,1
2154,-0.99,1645444648.625,P18,D07,1,0,1
2155,-1.44,1645444648.640625,P18,D07,1,0,1
2156,-1.72,1645444648.65625,P18,D07,1,0,1
2157,-1.86,1645444648.671875,P18,D07,1,0,1
2158,-1.89,1645444648.6875,P18,D07,1,0,1
2159,-1.81,1645444648.703125,P18,D07,1,0,1
2160,-1.59,1645444648.71875,P18,D07,1,0,1
2161,-1.21,1645444648.734375,P18,D07,1,0,1
2162,-0.72,1645444648.75,P18,D07,1,0,1
2163,-0.23,1645444648.765625,P18,D07,1,0,1
2164,0.1,1645444648.78125,P18,D07,1,0,1
2165,0.17,1645444648.796875,P18,D07,1,0,1
2166,0.02,1645444648.8125,P18,D07,1,0,1
2167,-0.24,1645444648.828125,P18,D07,1,0,1
2168,-0.45,1645444648.84375,P18,D07,1,0,1
2169,-0.5,1645444648.859375,P18,D07,1,0,1
2170,-0.39,1645444648.875,P18,D07,1,0,1
2171,-0.19,1645444648.890625,P18,D07,1,0,1
2172,-0.03,1645444648.90625,P18,D07,1,0,1
2173,0.06,1645444648.921875,P18,D07,1,0,1
2174,0.09,1645444648.9375,P18,D07,1,0,1
2175,0.12,1645444648.953125,P18,D07,1,0,1
2176,0.2,1645444648.96875,P18,D07,1,0,1
2177,0.37,1645444648.984375,P18,D07,1,0,1
2178,0.59,1645444649.0,P18,D07,1,0,1
2179,0.82,1645444649.015625,P18,D07,1,0,1
2180,1.05,1645444649.03125,P18,D07,1,0,1
2181,1.25,1645444649.046875,P18,D07,1,0,1
2182,1.42,1645444649.0625,P18,D07,1,0,1
2183,1.5,1645444649.078125,P18,D07,1,0,1
2184,1.45,1645444649.09375,P18,D07,1,0,1
2185,1.27,1645444649.109375,P18,D07,1,0,1
2186,0.96,1645444649.125,P18,D07,1,0,1
2187,0.58,1645444649.140625,P18,D07,1,0,1
2188,0.18,1645444649.15625,P18,D07,1,0,1
2189,-0.21,1645444649.171875,P18,D07,1,0,1
2190,-0.59,1645444649.1875,P18,D07,1,0,1
2191,-0.97,1645444649.203125,P18,D07,1,0,1
2192,-1.3,1645444649.21875,P18,D07,1,0,1
2193,-1.53,1645444649.234375,P18,D07,1,0,1
2194,-1.58,1645444649.25,P18,D07,1,0,1
2195,-1.43,1645444649.265625,P18,D07,1,0,1
2196,-1.13,1645444649.28125,P18,D07,1,0,1
2197,-0.79,1645444649.296875,P18,D07,1,0,1
2198,-0.5,1645444649.3125,P18,D07,1,0,1
2199,-0.29,1645444649.328125,P18,D07,1,0,1
2200,-0.16,1645444649.34375,P18,D07,1,0,1
2201,-0.05,1645444649.359375,P18,D07,1,0,1
2202,0.05,1645444649.375,P18,D07,1,0,1
2203,0.14,1645444649.390625,P18,D07,1,0,1
2204,0.15,1645444649.40625,P18,D07,1,0,1
2205,0.08,1645444649.421875,P18,D07,1,0,1
2206,-0.04,1645444649.4375,P18,D07,1,0,1
2207,-0.14,1645444649.453125,P18,D07,1,0,1
2208,-0.13,1645444649.46875,P18,D07,1,0,1
2209,0.01,1645444649.484375,P18,D07,1,0,1
2210,0.24,1645444649.5,P18,D07,1,0,1
2211,0.49,1645444649.515625,P18,D07,1,0,1
2212,0.71,1645444649.53125,P18,D07,1,0,1
2213,0.85,1645444649.546875,P18,D07,1,0,1
2214,0.9,1645444649.5625,P18,D07,1,0,1
2215,0.85,1645444649.578125,P18,D07,1,0,1
2216,0.69,1645444649.59375,P18,D07,1,0,1
2217,0.42,1645444649.609375,P18,D07,1,0,1
2218,0.09,1645444649.625,P18,D07,1,0,1
2219,-0.22,1645444649.640625,P18,D07,1,0,1
2220,-0.42,1645444649.65625,P18,D07,1,0,1
2221,-0.45,1645444649.671875,P18,D07,1,0,1
2222,-0.36,1645444649.6875,P18,D07,1,0,1
2223,-0.24,1645444649.703125,P18,D07,1,0,1
2224,-0.19,1645444649.71875,P18,D07,1,0,1
2225,-0.28,1645444649.734375,P18,D07,1,0,1
2226,-0.49,1645444649.75,P18,D07,1,0,1
2227,-0.71,1645444649.765625,P18,D07,1,0,1
2228,-0.81,1645444649.78125,P18,D07,1,0,1
2229,-0.69,1645444649.796875,P18,D07,1,0,1
2230,-0.34,1645444649.8125,P18,D07,1,0,1
2231,0.15,1645444649.828125,P18,D07,1,0,1
2232,0.61,1645444649.84375,P18,D07,1,0,1
2233,0.9,1645444649.859375,P18,D07,1,0,1
2234,0.94,1645444649.875,P18,D07,1,0,1
2235,0.76,1645444649.890625,P18,D07,1,0,1
2236,0.46,1645444649.90625,P18,D07,1,0,1
2237,0.19,1645444649.921875,P18,D07,1,0,1
2238,0.0,1645444649.9375,P18,D07,1,0,1
2239,-0.09,1645444649.953125,P18,D07,1,0,1
2240,-0.14,1645444649.96875,P18,D07,1,0,1
2241,-0.21,1645444649.984375,P18,D07,1,0,1
2242,-0.26,1645444650.0,P18,D07,1,0,1
2243,-0.23,1645444650.015625,P18,D07,1,0,1
2244,-0.06,1645444650.03125,P18,D07,1,0,1
2245,0.25,1645444650.046875,P18,D07,1,0,1
2246,0.58,1645444650.0625,P18,D07,1,0,1
2247,0.79,1645444650.078125,P18,D07,1,0,1
2248,0.77,1645444650.09375,P18,D07,1,0,1
2249,0.49,1645444650.109375,P18,D07,1,0,1
2250,0.08,1645444650.125,P18,D07,1,0,1
2251,-0.3,1645444650.140625,P18,D07,1,0,1
2252,-0.53,1645444650.15625,P18,D07,1,0,1
2253,-0.58,1645444650.171875,P18,D07,1,0,1
2254,-0.54,1645444650.1875,P18,D07,1,0,1
2255,-0.51,1645444650.203125,P18,D07,1,0,1
2256,-0.52,1645444650.21875,P18,D07,1,0,1
2257,-0.52,1645444650.234375,P18,D07,1,0,1
2258,-0.42,1645444650.25,P18,D07,1,0,1
2259,-0.15,1645444650.265625,P18,D07,1,0,1
2260,0.22,1645444650.28125,P18,D07,1,0,1
2261,0.52,1645444650.296875,P18,D07,1,0,1
2262,0.61,1645444650.3125,P18,D07,1,0,1
2263,0.39,1645444650.328125,P18,D07,1,0,1
2264,-0.03,1645444650.34375,P18,D07,1,0,1
2265,-0.43,1645444650.359375,P18,D07,1,0,1
2266,-0.63,1645444650.375,P18,D07,1,0,1
2267,-0.52,1645444650.390625,P18,D07,1,0,1
2268,-0.2,1645444650.40625,P18,D07,1,0,1
2269,0.15,1645444650.421875,P18,D07,1,0,1
2270,0.35,1645444650.4375,P18,D07,1,0,1
2271,0.32,1645444650.453125,P18,D07,1,0,1
2272,0.15,1645444650.46875,P18,D07,1,0,1
2273,-0.03,1645444650.484375,P18,D07,1,0,1
2274,-0.1,1645444650.5,P18,D07,1,0,1
2275,-0.0,1645444650.515625,P18,D07,1,0,1
2276,0.19,1645444650.53125,P18,D07,1,0,1
2277,0.35,1645444650.546875,P18,D07,1,0,1
2278,0.37,1645444650.5625,P18,D07,1,0,1
2279,0.17,1645444650.578125,P18,D07,1,0,1
2280,-0.2,1645444650.59375,P18,D07,1,0,1
2281,-0.63,1645444650.609375,P18,D07,1,0,1
2282,-0.97,1645444650.625,P18,D07,1,0,1
2283,-1.12,1645444650.640625,P18,D07,1,0,1
2284,-1.03,1645444650.65625,P18,D07,1,0,1
2285,-0.74,1645444650.671875,P18,D07,1,0,1
2286,-0.38,1645444650.6875,P18,D07,1,0,1
2287,-0.09,1645444650.703125,P18,D07,1,0,1
2288,0.03,1645444650.71875,P18,D07,1,0,1
2289,-0.08,1645444650.734375,P18,D07,1,0,1
2290,-0.38,1645444650.75,P18,D07,1,0,1
2291,-0.75,1645444650.765625,P18,D07,1,0,1
2292,-1.08,1645444650.78125,P18,D07,1,0,1
2293,-1.26,1645444650.796875,P18,D07,1,0,1
2294,-1.24,1645444650.8125,P18,D07,1,0,1
2295,-1.03,1645444650.828125,P18,D07,1,0,1
2296,-0.72,1645444650.84375,P18,D07,1,0,1
2297,-0.41,1645444650.859375,P18,D07,1,0,1
2298,-0.21,1645444650.875,P18,D07,1,0,1
2299,-0.14,1645444650.890625,P18,D07,1,0,1
2300,-0.15,1645444650.90625,P18,D07,1,0,1
2301,-0.16,1645444650.921875,P18,D07,1,0,1
2302,-0.07,1645444650.9375,P18,D07,1,0,1
2303,0.13,1645444650.953125,P18,D07,1,0,1
2304,0.38,1645444650.96875,P18,D07,1,0,1
2305,0.61,1645444650.984375,P18,D07,1,0,1
2306,0.73,1645444651.0,P18,D07,1,0,1
2307,0.77,1645444651.015625,P18,D07,1,0,1
2308,0.79,1645444651.03125,P18,D07,1,0,1
2309,0.87,1645444651.046875,P18,D07,1,0,1
2310,1.01,1645444651.0625,P18,D07,1,0,1
2311,1.13,1645444651.078125,P18,D07,1,0,1
2312,1.15,1645444651.09375,P18,D07,1,0,1
2313,0.99,1645444651.109375,P18,D07,1,0,1
2314,0.71,1645444651.125,P18,D07,1,0,1
2315,0.43,1645444651.140625,P18,D07,1,0,1
2316,0.28,1645444651.15625,P18,D07,1,0,1
2317,0.3,1645444651.171875,P18,D07,1,0,1
2318,0.43,1645444651.1875,P18,D07,1,0,1
2319,0.58,1645444651.203125,P18,D07,1,0,1
2320,0.65,1645444651.21875,P18,D07,1,0,1
2321,0.62,1645444651.234375,P18,D07,1,0,1
2322,0.54,1645444651.25,P18,D07,1,0,1
2323,0.47,1645444651.265625,P18,D07,1,0,1
2324,0.43,1645444651.28125,P18,D07,1,0,1
2325,0.4,1645444651.296875,P18,D07,1,0,1
2326,0.33,1645444651.3125,P18,D07,1,0,1
2327,0.23,1645444651.328125,P18,D07,1,0,1
2328,0.15,1645444651.34375,P18,D07,1,0,1
2329,0.14,1645444651.359375,P18,D07,1,0,1
2330,0.22,1645444651.375,P18,D07,1,0,1
2331,0.36,1645444651.390625,P18,D07,1,0,1
2332,0.46,1645444651.40625,P18,D07,1,0,1
2333,0.46,1645444651.421875,P18,D07,1,0,1
2334,0.34,1645444651.4375,P18,D07,1,0,1
2335,0.15,1645444651.453125,P18,D07,1,0,1
2336,-0.02,1645444651.46875,P18,D07,1,0,1
2337,-0.13,1645444651.484375,P18,D07,1,0,1
2338,-0.17,1645444651.5,P18,D07,1,0,1
2339,-0.19,1645444651.515625,P18,D07,1,0,1
2340,-0.23,1645444651.53125,P18,D07,1,0,1
2341,-0.29,1645444651.546875,P18,D07,1,0,1
2342,-0.36,1645444651.5625,P18,D07,1,0,1
2343,-0.39,1645444651.578125,P18,D07,1,0,1
2344,-0.36,1645444651.59375,P18,D07,1,0,1
2345,-0.3,1645444651.609375,P18,D07,1,0,1
2346,-0.25,1645444651.625,P18,D07,1,0,1
2347,-0.23,1645444651.640625,P18,D07,1,0,1
2348,-0.26,1645444651.65625,P18,D07,1,0,1
2349,-0.31,1645444651.671875,P18,D07,1,0,1
2350,-0.35,1645444651.6875,P18,D07,1,0,1
2351,-0.32,1645444651.703125,P18,D07,1,0,1
2352,-0.2,1645444651.71875,P18,D07,1,0,1
2353,0.01,1645444651.734375,P18,D07,1,0,1
2354,0.26,1645444651.75,P18,D07,1,0,1
2355,0.44,1645444651.765625,P18,D07,1,0,1
2356,0.45,1645444651.78125,P18,D07,1,0,1
2357,0.27,1645444651.796875,P18,D07,1,0,1
2358,-0.06,1645444651.8125,P18,D07,1,0,1
2359,-0.46,1645444651.828125,P18,D07,1,0,1
2360,-0.77,1645444651.84375,P18,D07,1,0,1
2361,-0.92,1645444651.859375,P18,D07,1,0,1
2362,-0.9,1645444651.875,P18,D07,1,0,1
2363,-0.76,1645444651.890625,P18,D07,1,0,1
2364,-0.59,1645444651.90625,P18,D07,1,0,1
2365,-0.45,1645444651.921875,P18,D07,1,0,1
2366,-0.32,1645444651.9375,P18,D07,1,0,1
2367,-0.2,1645444651.953125,P18,D07,1,0,1
2368,-0.03,1645444651.96875,P18,D07,1,0,1
2369,0.15,1645444651.984375,P18,D07,1,0,1
2370,0.31,1645444652.0,P18,D07,1,0,1
2371,0.38,1645444652.015625,P18,D07,1,0,1
2372,0.31,1645444652.03125,P18,D07,1,0,1
2373,0.08,1645444652.046875,P18,D07,1,0,1
2374,-0.24,1645444652.0625,P18,D07,1,0,1
2375,-0.55,1645444652.078125,P18,D07,1,0,1
2376,-0.75,1645444652.09375,P18,D07,1,0,1
2377,-0.75,1645444652.109375,P18,D07,1,0,1
2378,-0.58,1645444652.125,P18,D07,1,0,1
2379,-0.33,1645444652.140625,P18,D07,1,0,1
2380,-0.13,1645444652.15625,P18,D07,1,0,1
2381,-0.05,1645444652.171875,P18,D07,1,0,1
2382,-0.08,1645444652.1875,P18,D07,1,0,1
2383,-0.14,1645444652.203125,P18,D07,1,0,1
2384,-0.15,1645444652.21875,P18,D07,1,0,1
2385,-0.08,1645444652.234375,P18,D07,1,0,1
2386,0.02,1645444652.25,P18,D07,1,0,1
2387,0.08,1645444652.265625,P18,D07,1,0,1
2388,0.05,1645444652.28125,P18,D07,1,0,1
2389,-0.05,1645444652.296875,P18,D07,1,0,1
2390,-0.15,1645444652.3125,P18,D07,1,0,1
2391,-0.17,1645444652.328125,P18,D07,1,0,1
2392,-0.1,1645444652.34375,P18,D07,1,0,1
2393,-0.01,1645444652.359375,P18,D07,1,0,1
2394,0.01,1645444652.375,P18,D07,1,0,1
2395,-0.11,1645444652.390625,P18,D07,1,0,1
2396,-0.36,1645444652.40625,P18,D07,1,0,1
2397,-0.64,1645444652.421875,P18,D07,1,0,1
2398,-0.83,1645444652.4375,P18,D07,1,0,1
2399,-0.84,1645444652.453125,P18,D07,1,0,1
2400,-0.65,1645444652.46875,P18,D07,1,0,1
2401,-0.31,1645444652.484375,P18,D07,1,0,1
2402,0.07,1645444652.5,P18,D07,1,0,1
2403,0.39,1645444652.515625,P18,D07,1,0,1
2404,0.58,1645444652.53125,P18,D07,1,0,1
2405,0.61,1645444652.546875,P18,D07,1,0,1
2406,0.52,1645444652.5625,P18,D07,1,0,1
2407,0.36,1645444652.578125,P18,D07,1,0,1
2408,0.17,1645444652.59375,P18,D07,1,0,1
2409,0.01,1645444652.609375,P18,D07,1,0,1
2410,-0.07,1645444652.625,P18,D07,1,0,1
2411,-0.07,1645444652.640625,P18,D07,1,0,1
2412,0.02,1645444652.65625,P18,D07,1,0,1
2413,0.19,1645444652.671875,P18,D07,1,0,1
2414,0.37,1645444652.6875,P18,D07,1,0,1
2415,0.53,1645444652.703125,P18,D07,1,0,1
2416,0.61,1645444652.71875,P18,D07,1,0,1
2417,0.55,1645444652.734375,P18,D07,1,0,1
2418,0.36,1645444652.75,P18,D07,1,0,1
2419,0.09,1645444652.765625,P18,D07,1,0,1
2420,-0.15,1645444652.78125,P18,D07,1,0,1
2421,-0.27,1645444652.796875,P18,D07,1,0,1
2422,-0.18,1645444652.8125,P18,D07,1,0,1
2423,0.11,1645444652.828125,P18,D07,1,0,1
2424,0.51,1645444652.84375,P18,D07,1,0,1
2425,0.86,1645444652.859375,P18,D07,1,0,1
2426,1.02,1645444652.875,P18,D07,1,0,1
2427,0.93,1645444652.890625,P18,D07,1,0,1
2428,0.62,1645444652.90625,P18,D07,1,0,1
2429,0.21,1645444652.921875,P18,D07,1,0,1
2430,-0.2,1645444652.9375,P18,D07,1,0,1
2431,-0.51,1645444652.953125,P18,D07,1,0,1
2432,-0.68,1645444652.96875,P18,D07,1,0,1
2433,-0.74,1645444652.984375,P18,D07,1,0,1
2434,-0.72,1645444653.0,P18,D07,1,0,1
2435,-0.65,1645444653.015625,P18,D07,1,0,1
2436,-0.58,1645444653.03125,P18,D07,1,0,1
2437,-0.53,1645444653.046875,P18,D07,1,0,1
2438,-0.53,1645444653.0625,P18,D07,1,0,1
2439,-0.56,1645444653.078125,P18,D07,1,0,1
2440,-0.6,1645444653.09375,P18,D07,1,0,1
2441,-0.64,1645444653.109375,P18,D07,1,0,1
2442,-0.67,1645444653.125,P18,D07,1,0,1
2443,-0.68,1645444653.140625,P18,D07,1,0,1
2444,-0.64,1645444653.15625,P18,D07,1,0,1
2445,-0.49,1645444653.171875,P18,D07,1,0,1
2446,-0.15,1645444653.1875,P18,D07,1,0,1
2447,0.4,1645444653.203125,P18,D07,1,0,1
2448,1.06,1645444653.21875,P18,D07,1,0,1
2449,1.65,1645444653.234375,P18,D07,1,0,1
2450,1.94,1645444653.25,P18,D07,1,0,1
2451,1.81,1645444653.265625,P18,D07,1,0,1
2452,1.32,1645444653.28125,P18,D07,1,0,1
2453,0.69,1645444653.296875,P18,D07,1,0,1
2454,0.2,1645444653.3125,P18,D07,1,0,1
2455,0.04,1645444653.328125,P18,D07,1,0,1
2456,0.19,1645444653.34375,P18,D07,1,0,1
2457,0.49,1645444653.359375,P18,D07,1,0,1
2458,0.72,1645444653.375,P18,D07,1,0,1
2459,0.73,1645444653.390625,P18,D07,1,0,1
2460,0.51,1645444653.40625,P18,D07,1,0,1
2461,0.17,1645444653.421875,P18,D07,1,0,1
2462,-0.18,1645444653.4375,P18,D07,1,0,1
2463,-0.45,1645444653.453125,P18,D07,1,0,1
2464,-0.64,1645444653.46875,P18,D07,1,0,1
2465,-0.76,1645444653.484375,P18,D07,1,0,1
2466,-0.83,1645444653.5,P18,D07,1,0,1
2467,-0.82,1645444653.515625,P18,D07,1,0,1
2468,-0.7,1645444653.53125,P18,D07,1,0,1
2469,-0.47,1645444653.546875,P18,D07,1,0,1
2470,-0.17,1645444653.5625,P18,D07,1,0,1
2471,0.11,1645444653.578125,P18,D07,1,0,1
2472,0.3,1645444653.59375,P18,D07,1,0,1
2473,0.42,1645444653.609375,P18,D07,1,0,1
2474,0.49,1645444653.625,P18,D07,1,0,1
2475,0.56,1645444653.640625,P18,D07,1,0,1
2476,0.66,1645444653.65625,P18,D07,1,0,1
2477,0.76,1645444653.671875,P18,D07,1,0,1
2478,0.8,1645444653.6875,P18,D07,1,0,1
2479,0.74,1645444653.703125,P18,D07,1,0,1
2480,0.54,1645444653.71875,P18,D07,1,0,1
2481,0.23,1645444653.734375,P18,D07,1,0,1
2482,-0.14,1645444653.75,P18,D07,1,0,1
2483,-0.49,1645444653.765625,P18,D07,1,0,1
2484,-0.73,1645444653.78125,P18,D07,1,0,1
2485,-0.79,1645444653.796875,P18,D07,1,0,1
2486,-0.64,1645444653.8125,P18,D07,1,0,1
2487,-0.27,1645444653.828125,P18,D07,1,0,1
2488,0.21,1645444653.84375,P18,D07,1,0,1
2489,0.7,1645444653.859375,P18,D07,1,0,1
2490,1.07,1645444653.875,P18,D07,1,0,1
2491,1.21,1645444653.890625,P18,D07,1,0,1
2492,1.11,1645444653.90625,P18,D07,1,0,1
2493,0.79,1645444653.921875,P18,D07,1,0,1
2494,0.33,1645444653.9375,P18,D07,1,0,1
2495,-0.16,1645444653.953125,P18,D07,1,0,1
2496,-0.61,1645444653.96875,P18,D07,1,0,1
2497,-0.91,1645444653.984375,P18,D07,1,0,1
2498,-1.01,1645444654.0,P18,D07,1,0,1
2499,-0.86,1645444654.015625,P18,D07,1,0,1
2500,-0.52,1645444654.03125,P18,D07,1,0,1
2501,-0.07,1645444654.046875,P18,D07,1,0,1
2502,0.31,1645444654.0625,P18,D07,1,0,1
2503,0.52,1645444654.078125,P18,D07,1,0,1
2504,0.47,1645444654.09375,P18,D07,1,0,1
2505,0.21,1645444654.109375,P18,D07,1,0,1
2506,-0.16,1645444654.125,P18,D07,1,0,1
2507,-0.49,1645444654.140625,P18,D07,1,0,1
2508,-0.7,1645444654.15625,P18,D07,1,0,1
2509,-0.75,1645444654.171875,P18,D07,1,0,1
2510,-0.66,1645444654.1875,P18,D07,1,0,1
2511,-0.52,1645444654.203125,P18,D07,1,0,1
2512,-0.4,1645444654.21875,P18,D07,1,0,1
2513,-0.35,1645444654.234375,P18,D07,1,0,1
2514,-0.4,1645444654.25,P18,D07,1,0,1
2515,-0.56,1645444654.265625,P18,D07,1,0,1
2516,-0.78,1645444654.28125,P18,D07,1,0,1
2517,-0.99,1645444654.296875,P18,D07,1,0,1
2518,-1.13,1645444654.3125,P18,D07,1,0,1
2519,-1.11,1645444654.328125,P18,D07,1,0,1
2520,-0.91,1645444654.34375,P18,D07,1,0,1
2521,-0.57,1645444654.359375,P18,D07,1,0,1
2522,-0.2,1645444654.375,P18,D07,1,0,1
2523,0.06,1645444654.390625,P18,D07,1,0,1
2524,0.13,1645444654.40625,P18,D07,1,0,1
2525,0.01,1645444654.421875,P18,D07,1,0,1
2526,-0.18,1645444654.4375,P18,D07,1,0,1
2527,-0.33,1645444654.453125,P18,D07,1,0,1
2528,-0.35,1645444654.46875,P18,D07,1,0,1
2529,-0.25,1645444654.484375,P18,D07,1,0,1
2530,-0.16,1645444654.5,P18,D07,1,0,1
2531,-0.23,1645444654.515625,P18,D07,1,0,1
2532,-0.51,1645444654.53125,P18,D07,1,0,1
2533,-0.94,1645444654.546875,P18,D07,1,0,1
2534,-1.37,1645444654.5625,P18,D07,1,0,1
2535,-1.63,1645444654.578125,P18,D07,1,0,1
2536,-1.66,1645444654.59375,P18,D07,1,0,1
2537,-1.54,1645444654.609375,P18,D07,1,0,1
2538,-1.41,1645444654.625,P18,D07,1,0,1
2539,-1.4,1645444654.640625,P18,D07,1,0,1
2540,-1.53,1645444654.65625,P18,D07,1,0,1
2541,-1.72,1645444654.671875,P18,D07,1,0,1
2542,-1.89,1645444654.6875,P18,D07,1,0,1
2543,-2.01,1645444654.703125,P18,D07,1,0,1
2544,-2.11,1645444654.71875,P18,D07,1,0,1
2545,-2.26,1645444654.734375,P18,D07,1,0,1
2546,-2.44,1645444654.75,P18,D07,1,0,1
2547,-2.51,1645444654.765625,P18,D07,1,0,1
2548,-2.24,1645444654.78125,P18,D07,1,0,1
2549,-1.44,1645444654.796875,P18,D07,1,0,1
2550,-0.06,1645444654.8125,P18,D07,1,0,1
2551,1.77,1645444654.828125,P18,D07,1,0,1
2552,3.76,1645444654.84375,P18,D07,1,0,1
2553,5.63,1645444654.859375,P18,D07,1,0,1
2554,7.15,1645444654.875,P18,D07,1,0,1
2555,8.25,1645444654.890625,P18,D07,1,0,1
2556,8.9,1645444654.90625,P18,D07,1,0,1
2557,9.14,1645444654.921875,P18,D07,1,0,1
2558,9.01,1645444654.9375,P18,D07,1,0,1
2559,8.56,1645444654.953125,P18,D07,1,0,1
2560,7.86,1645444654.96875,P18,D07,1,0,1
2561,6.98,1645444654.984375,P18,D07,1,0,1
2562,5.97,1645444655.0,P18,D07,1,0,1
2563,4.8,1645444655.015625,P18,D07,1,0,1
2564,3.44,1645444655.03125,P18,D07,1,0,1
2565,1.83,1645444655.046875,P18,D07,1,0,1
2566,-0.0,1645444655.0625,P18,D07,1,0,1
2567,-2.0,1645444655.078125,P18,D07,1,0,1
2568,-3.99,1645444655.09375,P18,D07,1,0,1
2569,-5.79,1645444655.109375,P18,D07,1,0,1
2570,-7.2,1645444655.125,P18,D07,1,0,1
2571,-8.08,1645444655.140625,P18,D07,1,0,1
2572,-8.3,1645444655.15625,P18,D07,1,0,1
2573,-7.81,1645444655.171875,P18,D07,1,0,1
2574,-6.65,1645444655.1875,P18,D07,1,0,1
2575,-4.92,1645444655.203125,P18,D07,1,0,1
2576,-2.84,1645444655.21875,P18,D07,1,0,1
2577,-0.69,1645444655.234375,P18,D07,1,0,1
2578,1.28,1645444655.25,P18,D07,1,0,1
2579,2.85,1645444655.265625,P18,D07,1,0,1
2580,3.91,1645444655.28125,P18,D07,1,0,1
2581,4.43,1645444655.296875,P18,D07,1,0,1
2582,4.45,1645444655.3125,P18,D07,1,0,1
2583,4.09,1645444655.328125,P18,D07,1,0,1
2584,3.51,1645444655.34375,P18,D07,1,0,1
2585,2.86,1645444655.359375,P18,D07,1,0,1
2586,2.25,1645444655.375,P18,D07,1,0,1
2587,1.74,1645444655.390625,P18,D07,1,0,1
2588,1.32,1645444655.40625,P18,D07,1,0,1
2589,0.98,1645444655.421875,P18,D07,1,0,1
2590,0.65,1645444655.4375,P18,D07,1,0,1
2591,0.33,1645444655.453125,P18,D07,1,0,1
2592,-0.01,1645444655.46875,P18,D07,1,0,1
2593,-0.4,1645444655.484375,P18,D07,1,0,1
2594,-0.87,1645444655.5,P18,D07,1,0,1
2595,-1.48,1645444655.515625,P18,D07,1,0,1
2596,-2.22,1645444655.53125,P18,D07,1,0,1
2597,-2.98,1645444655.546875,P18,D07,1,0,1
2598,-3.58,1645444655.5625,P18,D07,1,0,1
2599,-3.78,1645444655.578125,P18,D07,1,0,1
2600,-3.44,1645444655.59375,P18,D07,1,0,1
2601,-2.6,1645444655.609375,P18,D07,1,0,1
2602,-1.48,1645444655.625,P18,D07,1,0,1
2603,-0.41,1645444655.640625,P18,D07,1,0,1
2604,0.3,1645444655.65625,P18,D07,1,0,1
2605,0.45,1645444655.671875,P18,D07,1,0,1
2606,0.04,1645444655.6875,P18,D07,1,0,1
2607,-0.76,1645444655.703125,P18,D07,1,0,1
2608,-1.69,1645444655.71875,P18,D07,1,0,1
2609,-2.52,1645444655.734375,P18,D07,1,0,1
2610,-3.09,1645444655.75,P18,D07,1,0,1
2611,-3.39,1645444655.765625,P18,D07,1,0,1
2612,-3.46,1645444655.78125,P18,D07,1,0,1
2613,-3.39,1645444655.796875,P18,D07,1,0,1
2614,-3.24,1645444655.8125,P18,D07,1,0,1
2615,-3.02,1645444655.828125,P18,D07,1,0,1
2616,-2.73,1645444655.84375,P18,D07,1,0,1
2617,-2.39,1645444655.859375,P18,D07,1,0,1
2618,-2.11,1645444655.875,P18,D07,1,0,1
2619,-2.01,1645444655.890625,P18,D07,1,0,1
2620,-2.2,1645444655.90625,P18,D07,1,0,1
2621,-2.66,1645444655.921875,P18,D07,1,0,1
2622,-3.29,1645444655.9375,P18,D07,1,0,1
2623,-3.8,1645444655.953125,P18,D07,1,0,1
2624,-3.94,1645444655.96875,P18,D07,1,0,1
2625,-3.49,1645444655.984375,P18,D07,1,0,1
2626,-2.37,1645444656.0,P18,D07,1,0,1
2627,-0.7,1645444656.015625,P18,D07,1,0,1
2628,1.3,1645444656.03125,P18,D07,1,0,1
2629,3.34,1645444656.046875,P18,D07,1,0,1
2630,5.15,1645444656.0625,P18,D07,1,0,1
2631,6.52,1645444656.078125,P18,D07,1,0,1
2632,7.37,1645444656.09375,P18,D07,1,0,1
2633,7.69,1645444656.109375,P18,D07,1,0,1
2634,7.54,1645444656.125,P18,D07,1,0,1
2635,7.0,1645444656.140625,P18,D07,1,0,1
2636,6.14,1645444656.15625,P18,D07,1,0,1
2637,5.03,1645444656.171875,P18,D07,1,0,1
2638,3.78,1645444656.1875,P18,D07,1,0,1
2639,2.53,1645444656.203125,P18,D07,1,0,1
2640,1.49,1645444656.21875,P18,D07,1,0,1
2641,0.82,1645444656.234375,P18,D07,1,0,1
2642,0.6,1645444656.25,P18,D07,1,0,1
2643,0.77,1645444656.265625,P18,D07,1,0,1
2644,1.17,1645444656.28125,P18,D07,1,0,1
2645,1.6,1645444656.296875,P18,D07,1,0,1
2646,1.9,1645444656.3125,P18,D07,1,0,1
2647,2.03,1645444656.328125,P18,D07,1,0,1
2648,2.03,1645444656.34375,P18,D07,1,0,1
2649,1.97,1645444656.359375,P18,D07,1,0,1
2650,1.93,1645444656.375,P18,D07,1,0,1
2651,1.9,1645444656.390625,P18,D07,1,0,1
2652,1.87,1645444656.40625,P18,D07,1,0,1
2653,1.82,1645444656.421875,P18,D07,1,0,1
2654,1.71,1645444656.4375,P18,D07,1,0,1
2655,1.52,1645444656.453125,P18,D07,1,0,1
2656,1.24,1645444656.46875,P18,D07,1,0,1
2657,0.84,1645444656.484375,P18,D07,1,0,1
2658,0.32,1645444656.5,P18,D07,1,0,1
2659,-0.28,1645444656.515625,P18,D07,1,0,1
2660,-0.91,1645444656.53125,P18,D07,1,0,1
2661,-1.48,1645444656.546875,P18,D07,1,0,1
2662,-1.96,1645444656.5625,P18,D07,1,0,1
2663,-2.32,1645444656.578125,P18,D07,1,0,1
2664,-2.59,1645444656.59375,P18,D07,1,0,1
2665,-2.78,1645444656.609375,P18,D07,1,0,1
2666,-2.85,1645444656.625,P18,D07,1,0,1
2667,-2.74,1645444656.640625,P18,D07,1,0,1
2668,-2.4,1645444656.65625,P18,D07,1,0,1
2669,-1.87,1645444656.671875,P18,D07,1,0,1
2670,-1.24,1645444656.6875,P18,D07,1,0,1
2671,-0.66,1645444656.703125,P18,D07,1,0,1
2672,-0.26,1645444656.71875,P18,D07,1,0,1
2673,-0.1,1645444656.734375,P18,D07,1,0,1
2674,-0.18,1645444656.75,P18,D07,1,0,1
2675,-0.43,1645444656.765625,P18,D07,1,0,1
2676,-0.78,1645444656.78125,P18,D07,1,0,1
2677,-1.15,1645444656.796875,P18,D07,1,0,1
2678,-1.47,1645444656.8125,P18,D07,1,0,1
2679,-1.68,1645444656.828125,P18,D07,1,0,1
2680,-1.75,1645444656.84375,P18,D07,1,0,1
2681,-1.7,1645444656.859375,P18,D07,1,0,1
2682,-1.6,1645444656.875,P18,D07,1,0,1
2683,-1.58,1645444656.890625,P18,D07,1,0,1
2684,-1.73,1645444656.90625,P18,D07,1,0,1
2685,-2.04,1645444656.921875,P18,D07,1,0,1
2686,-2.46,1645444656.9375,P18,D07,1,0,1
2687,-2.9,1645444656.953125,P18,D07,1,0,1
2688,-3.29,1645444656.96875,P18,D07,1,0,1
2689,-3.62,1645444656.984375,P18,D07,1,0,1
2690,-3.96,1645444657.0,P18,D07,1,0,1
2691,-4.35,1645444657.015625,P18,D07,1,0,1
2692,-4.77,1645444657.03125,P18,D07,1,0,1
2693,-5.16,1645444657.046875,P18,D07,1,0,1
2694,-5.46,1645444657.0625,P18,D07,1,0,1
2695,-5.58,1645444657.078125,P18,D07,1,0,1
2696,-5.5,1645444657.09375,P18,D07,1,0,1
2697,-5.19,1645444657.109375,P18,D07,1,0,1
2698,-4.64,1645444657.125,P18,D07,1,0,1
2699,-3.83,1645444657.140625,P18,D07,1,0,1
2700,-2.8,1645444657.15625,P18,D07,1,0,1
2701,-1.64,1645444657.171875,P18,D07,1,0,1
2702,-0.51,1645444657.1875,P18,D07,1,0,1
2703,0.44,1645444657.203125,P18,D07,1,0,1
2704,1.11,1645444657.21875,P18,D07,1,0,1
2705,1.5,1645444657.234375,P18,D07,1,0,1
2706,1.72,1645444657.25,P18,D07,1,0,1
2707,1.92,1645444657.265625,P18,D07,1,0,1
2708,2.23,1645444657.28125,P18,D07,1,0,1
2709,2.75,1645444657.296875,P18,D07,1,0,1
2710,3.49,1645444657.3125,P18,D07,1,0,1
2711,4.41,1645444657.328125,P18,D07,1,0,1
2712,5.42,1645444657.34375,P18,D07,1,0,1
2713,6.42,1645444657.359375,P18,D07,1,0,1
2714,7.27,1645444657.375,P18,D07,1,0,1
2715,7.84,1645444657.390625,P18,D07,1,0,1
2716,8.03,1645444657.40625,P18,D07,1,0,1
2717,7.83,1645444657.421875,P18,D07,1,0,1
2718,7.35,1645444657.4375,P18,D07,1,0,1
2719,6.74,1645444657.453125,P18,D07,1,0,1
2720,6.14,1645444657.46875,P18,D07,1,0,1
2721,5.64,1645444657.484375,P18,D07,1,0,1
2722,5.18,1645444657.5,P18,D07,1,0,1
2723,4.65,1645444657.515625,P18,D07,1,0,1
2724,3.95,1645444657.53125,P18,D07,1,0,1
2725,3.04,1645444657.546875,P18,D07,1,0,1
2726,2.01,1645444657.5625,P18,D07,1,0,1
2727,0.99,1645444657.578125,P18,D07,1,0,1
2728,0.13,1645444657.59375,P18,D07,1,0,1
2729,-0.47,1645444657.609375,P18,D07,1,0,1
2730,-0.8,1645444657.625,P18,D07,1,0,1
2731,-0.9,1645444657.640625,P18,D07,1,0,1
2732,-0.84,1645444657.65625,P18,D07,1,0,1
2733,-0.66,1645444657.671875,P18,D07,1,0,1
2734,-0.44,1645444657.6875,P18,D07,1,0,1
2735,-0.25,1645444657.703125,P18,D07,1,0,1
2736,-0.18,1645444657.71875,P18,D07,1,0,1
2737,-0.29,1645444657.734375,P18,D07,1,0,1
2738,-0.57,1645444657.75,P18,D07,1,0,1
2739,-0.95,1645444657.765625,P18,D07,1,0,1
2740,-1.28,1645444657.78125,P18,D07,1,0,1
2741,-1.49,1645444657.796875,P18,D07,1,0,1
2742,-1.58,1645444657.8125,P18,D07,1,0,1
2743,-1.65,1645444657.828125,P18,D07,1,0,1
2744,-1.85,1645444657.84375,P18,D07,1,0,1
2745,-2.26,1645444657.859375,P18,D07,1,0,1
2746,-2.84,1645444657.875,P18,D07,1,0,1
2747,-3.42,1645444657.890625,P18,D07,1,0,1
2748,-3.79,1645444657.90625,P18,D07,1,0,1
2749,-3.82,1645444657.921875,P18,D07,1,0,1
2750,-3.49,1645444657.9375,P18,D07,1,0,1
2751,-2.95,1645444657.953125,P18,D07,1,0,1
2752,-2.36,1645444657.96875,P18,D07,1,0,1
2753,-1.87,1645444657.984375,P18,D07,1,0,1
2754,-1.51,1645444658.0,P18,D07,1,0,1
2755,-1.24,1645444658.015625,P18,D07,1,0,1
2756,-0.95,1645444658.03125,P18,D07,1,0,1
2757,-0.56,1645444658.046875,P18,D07,1,0,1
2758,-0.08,1645444658.0625,P18,D07,1,0,1
2759,0.44,1645444658.078125,P18,D07,1,0,1
2760,0.87,1645444658.09375,P18,D07,1,0,1
2761,1.11,1645444658.109375,P18,D07,1,0,1
2762,1.11,1645444658.125,P18,D07,1,0,1
2763,0.92,1645444658.140625,P18,D07,1,0,1
2764,0.65,1645444658.15625,P18,D07,1,0,1
2765,0.4,1645444658.171875,P18,D07,1,0,1
2766,0.2,1645444658.1875,P18,D07,1,0,1
2767,0.03,1645444658.203125,P18,D07,1,0,1
2768,-0.15,1645444658.21875,P18,D07,1,0,1
2769,-0.36,1645444658.234375,P18,D07,1,0,1
2770,-0.55,1645444658.25,P18,D07,1,0,1
2771,-0.66,1645444658.265625,P18,D07,1,0,1
2772,-0.65,1645444658.28125,P18,D07,1,0,1
2773,-0.56,1645444658.296875,P18,D07,1,0,1
2774,-0.47,1645444658.3125,P18,D07,1,0,1
2775,-0.46,1645444658.328125,P18,D07,1,0,1
2776,-0.52,1645444658.34375,P18,D07,1,0,1
2777,-0.61,1645444658.359375,P18,D07,1,0,1
2778,-0.61,1645444658.375,P18,D07,1,0,1
2779,-0.47,1645444658.390625,P18,D07,1,0,1
2780,-0.21,1645444658.40625,P18,D07,1,0,1
2781,0.11,1645444658.421875,P18,D07,1,0,1
2782,0.43,1645444658.4375,P18,D07,1,0,1
2783,0.73,1645444658.453125,P18,D07,1,0,1
2784,1.01,1645444658.46875,P18,D07,1,0,1
2785,1.26,1645444658.484375,P18,D07,1,0,1
2786,1.47,1645444658.5,P18,D07,1,0,1
2787,1.56,1645444658.515625,P18,D07,1,0,1
2788,1.46,1645444658.53125,P18,D07,1,0,1
2789,1.16,1645444658.546875,P18,D07,1,0,1
2790,0.68,1645444658.5625,P18,D07,1,0,1
2791,0.1,1645444658.578125,P18,D07,1,0,1
2792,-0.47,1645444658.59375,P18,D07,1,0,1
2793,-0.9,1645444658.609375,P18,D07,1,0,1
2794,-1.07,1645444658.625,P18,D07,1,0,1
2795,-0.94,1645444658.640625,P18,D07,1,0,1
2796,-0.51,1645444658.65625,P18,D07,1,0,1
2797,0.1,1645444658.671875,P18,D07,1,0,1
2798,0.71,1645444658.6875,P18,D07,1,0,1
2799,1.13,1645444658.703125,P18,D07,1,0,1
2800,1.28,1645444658.71875,P18,D07,1,0,1
2801,1.17,1645444658.734375,P18,D07,1,0,1
2802,0.95,1645444658.75,P18,D07,1,0,1
2803,0.74,1645444658.765625,P18,D07,1,0,1
2804,0.65,1645444658.78125,P18,D07,1,0,1
2805,0.68,1645444658.796875,P18,D07,1,0,1
2806,0.76,1645444658.8125,P18,D07,1,0,1
2807,0.8,1645444658.828125,P18,D07,1,0,1
2808,0.75,1645444658.84375,P18,D07,1,0,1
2809,0.59,1645444658.859375,P18,D07,1,0,1
2810,0.35,1645444658.875,P18,D07,1,0,1
2811,0.12,1645444658.890625,P18,D07,1,0,1
2812,-0.07,1645444658.90625,P18,D07,1,0,1
2813,-0.18,1645444658.921875,P18,D07,1,0,1
2814,-0.19,1645444658.9375,P18,D07,1,0,1
2815,-0.09,1645444658.953125,P18,D07,1,0,1
2816,0.12,1645444658.96875,P18,D07,1,0,1
2817,0.42,1645444658.984375,P18,D07,1,0,1
2818,0.81,1645444659.0,P18,D07,1,0,1
2819,1.23,1645444659.015625,P18,D07,1,0,1
2820,1.62,1645444659.03125,P18,D07,1,0,1
2821,1.9,1645444659.046875,P18,D07,1,0,1
2822,1.97,1645444659.0625,P18,D07,1,0,1
2823,1.79,1645444659.078125,P18,D07,1,0,1
2824,1.36,1645444659.09375,P18,D07,1,0,1
2825,0.78,1645444659.109375,P18,D07,1,0,1
2826,0.16,1645444659.125,P18,D07,1,0,1
2827,-0.38,1645444659.140625,P18,D07,1,0,1
2828,-0.8,1645444659.15625,P18,D07,1,0,1
2829,-1.15,1645444659.171875,P18,D07,1,0,1
2830,-1.48,1645444659.1875,P18,D07,1,0,1
2831,-1.83,1645444659.203125,P18,D07,1,0,1
2832,-2.19,1645444659.21875,P18,D07,1,0,1
2833,-2.46,1645444659.234375,P18,D07,1,0,1
2834,-2.58,1645444659.25,P18,D07,1,0,1
2835,-2.48,1645444659.265625,P18,D07,1,0,1
2836,-2.16,1645444659.28125,P18,D07,1,0,1
2837,-1.69,1645444659.296875,P18,D07,1,0,1
2838,-1.17,1645444659.3125,P18,D07,1,0,1
2839,-0.68,1645444659.328125,P18,D07,1,0,1
2840,-0.3,1645444659.34375,P18,D07,1,0,1
2841,-0.09,1645444659.359375,P18,D07,1,0,1
2842,-0.05,1645444659.375,P18,D07,1,0,1
2843,-0.14,1645444659.390625,P18,D07,1,0,1
2844,-0.28,1645444659.40625,P18,D07,1,0,1
2845,-0.4,1645444659.421875,P18,D07,1,0,1
2846,-0.45,1645444659.4375,P18,D07,1,0,1
2847,-0.44,1645444659.453125,P18,D07,1,0,1
2848,-0.39,1645444659.46875,P18,D07,1,0,1
2849,-0.4,1645444659.484375,P18,D07,1,0,1
2850,-0.49,1645444659.5,P18,D07,1,0,1
2851,-0.66,1645444659.515625,P18,D07,1,0,1
2852,-0.85,1645444659.53125,P18,D07,1,0,1
2853,-0.98,1645444659.546875,P18,D07,1,0,1
2854,-1.01,1645444659.5625,P18,D07,1,0,1
2855,-0.93,1645444659.578125,P18,D07,1,0,1
2856,-0.76,1645444659.59375,P18,D07,1,0,1
2857,-0.57,1645444659.609375,P18,D07,1,0,1
2858,-0.38,1645444659.625,P18,D07,1,0,1
2859,-0.23,1645444659.640625,P18,D07,1,0,1
2860,-0.13,1645444659.65625,P18,D07,1,0,1
2861,-0.08,1645444659.671875,P18,D07,1,0,1
2862,-0.07,1645444659.6875,P18,D07,1,0,1
2863,-0.09,1645444659.703125,P18,D07,1,0,1
2864,-0.14,1645444659.71875,P18,D07,1,0,1
2865,-0.2,1645444659.734375,P18,D07,1,0,1
2866,-0.25,1645444659.75,P18,D07,1,0,1
2867,-0.25,1645444659.765625,P18,D07,1,0,1
2868,-0.14,1645444659.78125,P18,D07,1,0,1
2869,0.1,1645444659.796875,P18,D07,1,0,1
2870,0.46,1645444659.8125,P18,D07,1,0,1
2871,0.89,1645444659.828125,P18,D07,1,0,1
2872,1.28,1645444659.84375,P18,D07,1,0,1
2873,1.5,1645444659.859375,P18,D07,1,0,1
2874,1.48,1645444659.875,P18,D07,1,0,1
2875,1.22,1645444659.890625,P18,D07,1,0,1
2876,0.81,1645444659.90625,P18,D07,1,0,1
2877,0.37,1645444659.921875,P18,D07,1,0,1
2878,0.04,1645444659.9375,P18,D07,1,0,1
2879,-0.16,1645444659.953125,P18,D07,1,0,1
2880,-0.24,1645444659.96875,P18,D07,1,0,1
2881,-0.27,1645444659.984375,P18,D07,1,0,1
2882,-0.31,1645444660.0,P18,D07,1,0,1
2883,-0.36,1645444660.015625,P18,D07,1,0,1
2884,-0.42,1645444660.03125,P18,D07,1,0,1
2885,-0.47,1645444660.046875,P18,D07,1,0,1
2886,-0.51,1645444660.0625,P18,D07,1,0,1
2887,-0.56,1645444660.078125,P18,D07,1,0,1
2888,-0.65,1645444660.09375,P18,D07,1,0,1
2889,-0.78,1645444660.109375,P18,D07,1,0,1
2890,-0.96,1645444660.125,P18,D07,1,0,1
2891,-1.12,1645444660.140625,P18,D07,1,0,1
2892,-1.22,1645444660.15625,P18,D07,1,0,1
2893,-1.24,1645444660.171875,P18,D07,1,0,1
2894,-1.16,1645444660.1875,P18,D07,1,0,1
2895,-1.05,1645444660.203125,P18,D07,1,0,1
2896,-0.95,1645444660.21875,P18,D07,1,0,1
2897,-0.91,1645444660.234375,P18,D07,1,0,1
2898,-0.95,1645444660.25,P18,D07,1,0,1
2899,-1.01,1645444660.265625,P18,D07,1,0,1
2900,-1.01,1645444660.28125,P18,D07,1,0,1
2901,-0.91,1645444660.296875,P18,D07,1,0,1
2902,-0.68,1645444660.3125,P18,D07,1,0,1
2903,-0.35,1645444660.328125,P18,D07,1,0,1
2904,0.02,1645444660.34375,P18,D07,1,0,1
2905,0.37,1645444660.359375,P18,D07,1,0,1
2906,0.63,1645444660.375,P18,D07,1,0,1
2907,0.78,1645444660.390625,P18,D07,1,0,1
2908,0.81,1645444660.40625,P18,D07,1,0,1
2909,0.73,1645444660.421875,P18,D07,1,0,1
2910,0.6,1645444660.4375,P18,D07,1,0,1
2911,0.48,1645444660.453125,P18,D07,1,0,1
2912,0.44,1645444660.46875,P18,D07,1,0,1
2913,0.49,1645444660.484375,P18,D07,1,0,1
2914,0.55,1645444660.5,P18,D07,1,0,1
2915,0.53,1645444660.515625,P18,D07,1,0,1
2916,0.36,1645444660.53125,P18,D07,1,0,1
2917,0.05,1645444660.546875,P18,D07,1,0,1
