,data,timestamp,participant,document,val,arou,eng
0,-0.93,1645449170.1875,P19,D07,0,0,0
1,-0.82,1645449170.203125,P19,D07,0,0,0
2,-0.64,1645449170.21875,P19,D07,0,0,0
3,-0.34,1645449170.234375,P19,D07,0,0,0
4,0.04,1645449170.25,P19,D07,0,0,0
5,0.39,1645449170.265625,P19,D07,0,0,0
6,0.56,1645449170.28125,P19,D07,0,0,0
7,0.5,1645449170.296875,P19,D07,0,0,0
8,0.25,1645449170.3125,P19,D07,0,0,0
9,-0.01,1645449170.328125,P19,D07,0,0,0
10,-0.11,1645449170.34375,P19,D07,0,0,0
11,0.06,1645449170.359375,P19,D07,0,0,0
12,0.39,1645449170.375,P19,D07,0,0,0
13,0.72,1645449170.390625,P19,D07,0,0,0
14,0.86,1645449170.40625,P19,D07,0,0,0
15,0.77,1645449170.421875,P19,D07,0,0,0
16,0.56,1645449170.4375,P19,D07,0,0,0
17,0.43,1645449170.453125,P19,D07,0,0,0
18,0.47,1645449170.46875,P19,D07,0,0,0
19,0.65,1645449170.484375,P19,D07,0,0,0
20,0.8,1645449170.5,P19,D07,0,0,0
21,0.75,1645449170.515625,P19,D07,0,0,0
22,0.45,1645449170.53125,P19,D07,0,0,0
23,0.02,1645449170.546875,P19,D07,0,0,0
24,-0.36,1645449170.5625,P19,D07,0,0,0
25,-0.53,1645449170.578125,P19,D07,0,0,0
26,-0.46,1645449170.59375,P19,D07,0,0,0
27,-0.27,1645449170.609375,P19,D07,0,0,0
28,-0.13,1645449170.625,P19,D07,0,0,0
29,-0.14,1645449170.640625,P19,D07,0,0,0
30,-0.28,1645449170.65625,P19,D07,0,0,0
31,-0.44,1645449170.671875,P19,D07,0,0,0
32,-0.5,1645449170.6875,P19,D07,0,0,0
33,-0.41,1645449170.703125,P19,D07,0,0,0
34,-0.24,1645449170.71875,P19,D07,0,0,0
35,-0.1,1645449170.734375,P19,D07,0,0,0
36,-0.07,1645449170.75,P19,D07,0,0,0
37,-0.17,1645449170.765625,P19,D07,0,0,0
38,-0.32,1645449170.78125,P19,D07,0,0,0
39,-0.43,1645449170.796875,P19,D07,0,0,0
40,-0.46,1645449170.8125,P19,D07,0,0,0
41,-0.43,1645449170.828125,P19,D07,0,0,0
42,-0.38,1645449170.84375,P19,D07,0,0,0
43,-0.36,1645449170.859375,P19,D07,0,0,0
44,-0.35,1645449170.875,P19,D07,0,0,0
45,-0.34,1645449170.890625,P19,D07,0,0,0
46,-0.27,1645449170.90625,P19,D07,0,0,0
47,-0.1,1645449170.921875,P19,D07,0,0,0
48,0.17,1645449170.9375,P19,D07,0,0,0
49,0.49,1645449170.953125,P19,D07,0,0,0
50,0.82,1645449170.96875,P19,D07,0,0,0
51,1.1,1645449170.984375,P19,D07,0,0,0
52,1.29,1645449171.0,P19,D07,0,0,0
53,1.34,1645449171.015625,P19,D07,0,0,0
54,1.24,1645449171.03125,P19,D07,0,0,0
55,1.02,1645449171.046875,P19,D07,0,0,0
56,0.74,1645449171.0625,P19,D07,0,0,0
57,0.47,1645449171.078125,P19,D07,0,0,0
58,0.26,1645449171.09375,P19,D07,0,0,0
59,0.12,1645449171.109375,P19,D07,0,0,0
60,-0.01,1645449171.125,P19,D07,0,0,0
61,-0.15,1645449171.140625,P19,D07,0,0,0
62,-0.35,1645449171.15625,P19,D07,0,0,0
63,-0.55,1645449171.171875,P19,D07,0,0,0
64,-0.71,1645449171.1875,P19,D07,0,0,0
65,-0.74,1645449171.203125,P19,D07,0,0,0
66,-0.63,1645449171.21875,P19,D07,0,0,0
67,-0.39,1645449171.234375,P19,D07,0,0,0
68,-0.08,1645449171.25,P19,D07,0,0,0
69,0.21,1645449171.265625,P19,D07,0,0,0
70,0.43,1645449171.28125,P19,D07,0,0,0
71,0.53,1645449171.296875,P19,D07,0,0,0
72,0.54,1645449171.3125,P19,D07,0,0,0
73,0.49,1645449171.328125,P19,D07,0,0,0
74,0.43,1645449171.34375,P19,D07,0,0,0
75,0.38,1645449171.359375,P19,D07,0,0,0
76,0.34,1645449171.375,P19,D07,0,0,0
77,0.28,1645449171.390625,P19,D07,0,0,0
78,0.2,1645449171.40625,P19,D07,0,0,0
79,0.1,1645449171.421875,P19,D07,0,0,0
80,0.02,1645449171.4375,P19,D07,0,0,0
81,-0.04,1645449171.453125,P19,D07,0,0,0
82,-0.07,1645449171.46875,P19,D07,0,0,0
83,-0.07,1645449171.484375,P19,D07,0,0,0
84,-0.06,1645449171.5,P19,D07,0,0,0
85,-0.05,1645449171.515625,P19,D07,0,0,0
86,-0.04,1645449171.53125,P19,D07,0,0,0
87,-0.09,1645449171.546875,P19,D07,0,0,0
88,-0.21,1645449171.5625,P19,D07,0,0,0
89,-0.45,1645449171.578125,P19,D07,0,0,0
90,-0.76,1645449171.59375,P19,D07,0,0,0
91,-1.06,1645449171.609375,P19,D07,0,0,0
92,-1.22,1645449171.625,P19,D07,0,0,0
93,-1.16,1645449171.640625,P19,D07,0,0,0
94,-0.92,1645449171.65625,P19,D07,0,0,0
95,-0.6,1645449171.671875,P19,D07,0,0,0
96,-0.35,1645449171.6875,P19,D07,0,0,0
97,-0.26,1645449171.703125,P19,D07,0,0,0
98,-0.31,1645449171.71875,P19,D07,0,0,0
99,-0.37,1645449171.734375,P19,D07,0,0,0
100,-0.33,1645449171.75,P19,D07,0,0,0
101,-0.13,1645449171.765625,P19,D07,0,0,0
102,0.18,1645449171.78125,P19,D07,0,0,0
103,0.48,1645449171.796875,P19,D07,0,0,0
104,0.68,1645449171.8125,P19,D07,0,0,0
105,0.74,1645449171.828125,P19,D07,0,0,0
106,0.72,1645449171.84375,P19,D07,0,0,0
107,0.68,1645449171.859375,P19,D07,0,0,0
108,0.66,1645449171.875,P19,D07,0,0,0
109,0.62,1645449171.890625,P19,D07,0,0,0
110,0.53,1645449171.90625,P19,D07,0,0,0
111,0.38,1645449171.921875,P19,D07,0,0,0
112,0.21,1645449171.9375,P19,D07,0,0,0
113,0.09,1645449171.953125,P19,D07,0,0,0
114,0.06,1645449171.96875,P19,D07,0,0,0
115,0.09,1645449171.984375,P19,D07,0,0,0
116,0.1,1645449172.0,P19,D07,0,0,0
117,0.01,1645449172.015625,P19,D07,0,0,0
118,-0.2,1645449172.03125,P19,D07,0,0,0
119,-0.44,1645449172.046875,P19,D07,0,0,0
120,-0.61,1645449172.0625,P19,D07,0,0,0
121,-0.68,1645449172.078125,P19,D07,0,0,0
122,-0.68,1645449172.09375,P19,D07,0,0,0
123,-0.68,1645449172.109375,P19,D07,0,0,0
124,-0.76,1645449172.125,P19,D07,0,0,0
125,-0.85,1645449172.140625,P19,D07,0,0,0
126,-0.82,1645449172.15625,P19,D07,0,0,0
127,-0.53,1645449172.171875,P19,D07,0,0,0
128,0.04,1645449172.1875,P19,D07,0,0,0
129,0.76,1645449172.203125,P19,D07,0,0,0
130,1.41,1645449172.21875,P19,D07,0,0,0
131,1.78,1645449172.234375,P19,D07,0,0,0
132,1.78,1645449172.25,P19,D07,0,0,0
133,1.49,1645449172.265625,P19,D07,0,0,0
134,1.08,1645449172.28125,P19,D07,0,0,0
135,0.73,1645449172.296875,P19,D07,0,0,0
136,0.54,1645449172.3125,P19,D07,0,0,0
137,0.46,1645449172.328125,P19,D07,0,0,0
138,0.42,1645449172.34375,P19,D07,0,0,0
139,0.33,1645449172.359375,P19,D07,0,0,0
140,0.16,1645449172.375,P19,D07,0,0,0
141,-0.04,1645449172.390625,P19,D07,0,0,0
142,-0.21,1645449172.40625,P19,D07,0,0,0
143,-0.3,1645449172.421875,P19,D07,0,0,0
144,-0.3,1645449172.4375,P19,D07,0,0,0
145,-0.28,1645449172.453125,P19,D07,0,0,0
146,-0.27,1645449172.46875,P19,D07,0,0,0
147,-0.29,1645449172.484375,P19,D07,0,0,0
148,-0.32,1645449172.5,P19,D07,0,0,0
149,-0.32,1645449172.515625,P19,D07,0,0,0
150,-0.25,1645449172.53125,P19,D07,0,0,0
151,-0.11,1645449172.546875,P19,D07,0,0,0
152,0.04,1645449172.5625,P19,D07,0,0,0
153,0.16,1645449172.578125,P19,D07,0,0,0
154,0.2,1645449172.59375,P19,D07,0,0,0
155,0.17,1645449172.609375,P19,D07,0,0,0
156,0.1,1645449172.625,P19,D07,0,0,0
157,-0.01,1645449172.640625,P19,D07,0,0,0
158,-0.15,1645449172.65625,P19,D07,0,0,0
159,-0.32,1645449172.671875,P19,D07,0,0,0
160,-0.53,1645449172.6875,P19,D07,0,0,0
161,-0.74,1645449172.703125,P19,D07,0,0,0
162,-0.86,1645449172.71875,P19,D07,0,0,0
163,-0.84,1645449172.734375,P19,D07,0,0,0
164,-0.67,1645449172.75,P19,D07,0,0,0
165,-0.4,1645449172.765625,P19,D07,0,0,0
166,-0.12,1645449172.78125,P19,D07,0,0,0
167,0.08,1645449172.796875,P19,D07,0,0,0
168,0.16,1645449172.8125,P19,D07,0,0,0
169,0.13,1645449172.828125,P19,D07,0,0,0
170,0.02,1645449172.84375,P19,D07,0,0,0
171,-0.12,1645449172.859375,P19,D07,0,0,0
172,-0.26,1645449172.875,P19,D07,0,0,0
173,-0.37,1645449172.890625,P19,D07,0,0,0
174,-0.44,1645449172.90625,P19,D07,0,0,0
175,-0.48,1645449172.921875,P19,D07,0,0,0
176,-0.47,1645449172.9375,P19,D07,0,0,0
177,-0.41,1645449172.953125,P19,D07,0,0,0
178,-0.29,1645449172.96875,P19,D07,0,0,0
179,-0.1,1645449172.984375,P19,D07,0,0,0
180,0.15,1645449173.0,P19,D07,0,0,0
181,0.48,1645449173.015625,P19,D07,0,0,0
182,0.82,1645449173.03125,P19,D07,0,0,0
183,1.11,1645449173.046875,P19,D07,0,0,0
184,1.24,1645449173.0625,P19,D07,0,0,0
185,1.13,1645449173.078125,P19,D07,0,0,0
186,0.79,1645449173.09375,P19,D07,0,0,0
187,0.29,1645449173.109375,P19,D07,0,0,0
188,-0.24,1645449173.125,P19,D07,0,0,0
189,-0.68,1645449173.140625,P19,D07,0,0,0
190,-0.95,1645449173.15625,P19,D07,0,0,0
191,-1.03,1645449173.171875,P19,D07,0,0,0
192,-0.97,1645449173.1875,P19,D07,0,0,0
193,-0.81,1645449173.203125,P19,D07,0,0,0
194,-0.6,1645449173.21875,P19,D07,0,0,0
195,-0.39,1645449173.234375,P19,D07,0,0,0
196,-0.23,1645449173.25,P19,D07,0,0,0
197,-0.14,1645449173.265625,P19,D07,0,0,0
198,-0.14,1645449173.28125,P19,D07,0,0,0
199,-0.2,1645449173.296875,P19,D07,0,0,0
200,-0.25,1645449173.3125,P19,D07,0,0,0
201,-0.2,1645449173.328125,P19,D07,0,0,0
202,0.01,1645449173.34375,P19,D07,0,0,0
203,0.37,1645449173.359375,P19,D07,0,0,0
204,0.8,1645449173.375,P19,D07,0,0,0
205,1.17,1645449173.390625,P19,D07,0,0,0
206,1.38,1645449173.40625,P19,D07,0,0,0
207,1.36,1645449173.421875,P19,D07,0,0,0
208,1.14,1645449173.4375,P19,D07,0,0,0
209,0.79,1645449173.453125,P19,D07,0,0,0
210,0.41,1645449173.46875,P19,D07,0,0,0
211,0.04,1645449173.484375,P19,D07,0,0,0
212,-0.28,1645449173.5,P19,D07,0,0,0
213,-0.5,1645449173.515625,P19,D07,0,0,0
214,-0.58,1645449173.53125,P19,D07,0,0,0
215,-0.47,1645449173.546875,P19,D07,0,0,0
216,-0.17,1645449173.5625,P19,D07,0,0,0
217,0.25,1645449173.578125,P19,D07,0,0,0
218,0.63,1645449173.59375,P19,D07,0,0,0
219,0.78,1645449173.609375,P19,D07,0,0,0
220,0.61,1645449173.625,P19,D07,0,0,0
221,0.16,1645449173.640625,P19,D07,0,0,0
222,-0.42,1645449173.65625,P19,D07,0,0,0
223,-0.88,1645449173.671875,P19,D07,0,0,0
224,-1.07,1645449173.6875,P19,D07,0,0,0
225,-0.97,1645449173.703125,P19,D07,0,0,0
226,-0.73,1645449173.71875,P19,D07,0,0,0
227,-0.5,1645449173.734375,P19,D07,0,0,0
228,-0.4,1645449173.75,P19,D07,0,0,0
229,-0.4,1645449173.765625,P19,D07,0,0,0
230,-0.41,1645449173.78125,P19,D07,0,0,0
231,-0.33,1645449173.796875,P19,D07,0,0,0
232,-0.18,1645449173.8125,P19,D07,0,0,0
233,-0.07,1645449173.828125,P19,D07,0,0,0
234,-0.11,1645449173.84375,P19,D07,0,0,0
235,-0.35,1645449173.859375,P19,D07,0,0,0
236,-0.73,1645449173.875,P19,D07,0,0,0
237,-1.08,1645449173.890625,P19,D07,0,0,0
238,-1.29,1645449173.90625,P19,D07,0,0,0
239,-1.29,1645449173.921875,P19,D07,0,0,0
240,-1.09,1645449173.9375,P19,D07,0,0,0
241,-0.77,1645449173.953125,P19,D07,0,0,0
242,-0.42,1645449173.96875,P19,D07,0,0,0
243,-0.06,1645449173.984375,P19,D07,0,0,0
244,0.26,1645449174.0,P19,D07,0,0,0
245,0.53,1645449174.015625,P19,D07,0,0,0
246,0.74,1645449174.03125,P19,D07,0,0,0
247,0.85,1645449174.046875,P19,D07,0,0,0
248,0.88,1645449174.0625,P19,D07,0,0,0
249,0.83,1645449174.078125,P19,D07,0,0,0
250,0.78,1645449174.09375,P19,D07,0,0,0
251,0.76,1645449174.109375,P19,D07,0,0,0
252,0.81,1645449174.125,P19,D07,0,0,0
253,0.9,1645449174.140625,P19,D07,0,0,0
254,0.99,1645449174.15625,P19,D07,0,0,0
255,1.02,1645449174.171875,P19,D07,0,0,0
256,0.94,1645449174.1875,P19,D07,0,0,0
257,0.74,1645449174.203125,P19,D07,0,0,0
258,0.47,1645449174.21875,P19,D07,0,0,0
259,0.19,1645449174.234375,P19,D07,0,0,0
260,-0.0,1645449174.25,P19,D07,0,0,0
261,-0.02,1645449174.265625,P19,D07,0,0,0
262,0.14,1645449174.28125,P19,D07,0,0,0
263,0.41,1645449174.296875,P19,D07,0,0,0
264,0.66,1645449174.3125,P19,D07,0,0,0
265,0.74,1645449174.328125,P19,D07,0,0,0
266,0.56,1645449174.34375,P19,D07,0,0,0
267,0.11,1645449174.359375,P19,D07,0,0,0
268,-0.48,1645449174.375,P19,D07,0,0,0
269,-1.02,1645449174.390625,P19,D07,0,0,0
270,-1.32,1645449174.40625,P19,D07,0,0,0
271,-1.31,1645449174.421875,P19,D07,0,0,0
272,-1.06,1645449174.4375,P19,D07,0,0,0
273,-0.72,1645449174.453125,P19,D07,0,0,0
274,-0.45,1645449174.46875,P19,D07,0,0,0
275,-0.31,1645449174.484375,P19,D07,0,0,0
276,-0.27,1645449174.5,P19,D07,0,0,0
277,-0.24,1645449174.515625,P19,D07,0,0,0
278,-0.15,1645449174.53125,P19,D07,0,0,0
279,-0.01,1645449174.546875,P19,D07,0,0,0
280,0.12,1645449174.5625,P19,D07,0,0,0
281,0.19,1645449174.578125,P19,D07,0,0,0
282,0.21,1645449174.59375,P19,D07,0,0,0
283,0.23,1645449174.609375,P19,D07,0,0,0
284,0.31,1645449174.625,P19,D07,0,0,0
285,0.48,1645449174.640625,P19,D07,0,0,0
286,0.66,1645449174.65625,P19,D07,0,0,0
287,0.73,1645449174.671875,P19,D07,0,0,0
288,0.61,1645449174.6875,P19,D07,0,0,0
289,0.3,1645449174.703125,P19,D07,0,0,0
290,-0.1,1645449174.71875,P19,D07,0,0,0
291,-0.46,1645449174.734375,P19,D07,0,0,0
292,-0.67,1645449174.75,P19,D07,0,0,0
293,-0.69,1645449174.765625,P19,D07,0,0,0
294,-0.59,1645449174.78125,P19,D07,0,0,0
295,-0.42,1645449174.796875,P19,D07,0,0,0
296,-0.27,1645449174.8125,P19,D07,0,0,0
297,-0.14,1645449174.828125,P19,D07,0,0,0
298,-0.02,1645449174.84375,P19,D07,0,0,0
299,0.14,1645449174.859375,P19,D07,0,0,0
300,0.34,1645449174.875,P19,D07,0,0,0
301,0.53,1645449174.890625,P19,D07,0,0,0
302,0.65,1645449174.90625,P19,D07,0,0,0
303,0.64,1645449174.921875,P19,D07,0,0,0
304,0.5,1645449174.9375,P19,D07,0,0,0
305,0.27,1645449174.953125,P19,D07,0,0,0
306,0.05,1645449174.96875,P19,D07,0,0,0
307,-0.08,1645449174.984375,P19,D07,0,0,0
308,-0.07,1645449175.0,P19,D07,0,0,0
309,0.07,1645449175.015625,P19,D07,0,0,0
310,0.26,1645449175.03125,P19,D07,0,0,0
311,0.44,1645449175.046875,P19,D07,0,0,0
312,0.53,1645449175.0625,P19,D07,0,0,0
313,0.5,1645449175.078125,P19,D07,0,0,0
314,0.32,1645449175.09375,P19,D07,0,0,0
315,0.02,1645449175.109375,P19,D07,0,0,0
316,-0.36,1645449175.125,P19,D07,0,0,0
317,-0.7,1645449175.140625,P19,D07,0,0,0
318,-0.89,1645449175.15625,P19,D07,0,0,0
319,-0.82,1645449175.171875,P19,D07,0,0,0
320,-0.49,1645449175.1875,P19,D07,0,0,0
321,-0.02,1645449175.203125,P19,D07,0,0,0
322,0.41,1645449175.21875,P19,D07,0,0,0
323,0.61,1645449175.234375,P19,D07,0,0,0
324,0.54,1645449175.25,P19,D07,0,0,0
325,0.26,1645449175.265625,P19,D07,0,0,0
326,-0.08,1645449175.28125,P19,D07,0,0,0
327,-0.33,1645449175.296875,P19,D07,0,0,0
328,-0.46,1645449175.3125,P19,D07,0,0,0
329,-0.5,1645449175.328125,P19,D07,0,0,0
330,-0.52,1645449175.34375,P19,D07,0,0,0
331,-0.56,1645449175.359375,P19,D07,0,0,0
332,-0.58,1645449175.375,P19,D07,0,0,0
333,-0.52,1645449175.390625,P19,D07,0,0,0
334,-0.38,1645449175.40625,P19,D07,0,0,0
335,-0.19,1645449175.421875,P19,D07,0,0,0
336,-0.03,1645449175.4375,P19,D07,0,0,0
337,0.04,1645449175.453125,P19,D07,0,0,0
338,0.02,1645449175.46875,P19,D07,0,0,0
339,-0.06,1645449175.484375,P19,D07,0,0,0
340,-0.14,1645449175.5,P19,D07,0,0,0
341,-0.19,1645449175.515625,P19,D07,0,0,0
342,-0.22,1645449175.53125,P19,D07,0,0,0
343,-0.22,1645449175.546875,P19,D07,0,0,0
344,-0.21,1645449175.5625,P19,D07,0,0,0
345,-0.17,1645449175.578125,P19,D07,0,0,0
346,-0.11,1645449175.59375,P19,D07,0,0,0
347,-0.04,1645449175.609375,P19,D07,0,0,0
348,0.0,1645449175.625,P19,D07,0,0,0
349,-0.01,1645449175.640625,P19,D07,0,0,0
350,-0.11,1645449175.65625,P19,D07,0,0,0
351,-0.25,1645449175.671875,P19,D07,0,0,0
352,-0.39,1645449175.6875,P19,D07,0,0,0
353,-0.48,1645449175.703125,P19,D07,0,0,0
354,-0.51,1645449175.71875,P19,D07,0,0,0
355,-0.49,1645449175.734375,P19,D07,0,0,0
356,-0.44,1645449175.75,P19,D07,0,0,0
357,-0.38,1645449175.765625,P19,D07,0,0,0
358,-0.34,1645449175.78125,P19,D07,0,0,0
359,-0.3,1645449175.796875,P19,D07,0,0,0
360,-0.27,1645449175.8125,P19,D07,0,0,0
361,-0.22,1645449175.828125,P19,D07,0,0,0
362,-0.14,1645449175.84375,P19,D07,0,0,0
363,0.01,1645449175.859375,P19,D07,0,0,0
364,0.23,1645449175.875,P19,D07,0,0,0
365,0.48,1645449175.890625,P19,D07,0,0,0
366,0.71,1645449175.90625,P19,D07,0,0,0
367,0.87,1645449175.921875,P19,D07,0,0,0
368,0.94,1645449175.9375,P19,D07,0,0,0
369,0.96,1645449175.953125,P19,D07,0,0,0
370,0.98,1645449175.96875,P19,D07,0,0,0
371,1.02,1645449175.984375,P19,D07,0,0,0
372,1.07,1645449176.0,P19,D07,0,0,0
373,1.05,1645449176.015625,P19,D07,0,0,0
374,0.9,1645449176.03125,P19,D07,0,0,0
375,0.58,1645449176.046875,P19,D07,0,0,0
376,0.15,1645449176.0625,P19,D07,0,0,0
377,-0.26,1645449176.078125,P19,D07,0,0,0
378,-0.55,1645449176.09375,P19,D07,0,0,0
379,-0.66,1645449176.109375,P19,D07,0,0,0
380,-0.66,1645449176.125,P19,D07,0,0,0
381,-0.6,1645449176.140625,P19,D07,0,0,0
382,-0.57,1645449176.15625,P19,D07,0,0,0
383,-0.59,1645449176.171875,P19,D07,0,0,0
384,-0.6,1645449176.1875,P19,D07,0,0,0
385,-0.55,1645449176.203125,P19,D07,0,0,0
386,-0.39,1645449176.21875,P19,D07,0,0,0
387,-0.17,1645449176.234375,P19,D07,0,0,0
388,0.03,1645449176.25,P19,D07,0,0,0
389,0.13,1645449176.265625,P19,D07,0,0,0
390,0.06,1645449176.28125,P19,D07,0,0,0
391,-0.11,1645449176.296875,P19,D07,0,0,0
392,-0.32,1645449176.3125,P19,D07,0,0,0
393,-0.45,1645449176.328125,P19,D07,0,0,0
394,-0.47,1645449176.34375,P19,D07,0,0,0
395,-0.42,1645449176.359375,P19,D07,0,0,0
396,-0.38,1645449176.375,P19,D07,0,0,0
397,-0.43,1645449176.390625,P19,D07,0,0,0
398,-0.6,1645449176.40625,P19,D07,0,0,0
399,-0.83,1645449176.421875,P19,D07,0,0,0
400,-1.01,1645449176.4375,P19,D07,0,0,0
401,-1.04,1645449176.453125,P19,D07,0,0,0
402,-0.86,1645449176.46875,P19,D07,0,0,0
403,-0.5,1645449176.484375,P19,D07,0,0,0
404,-0.11,1645449176.5,P19,D07,0,0,0
405,0.18,1645449176.515625,P19,D07,0,0,0
406,0.25,1645449176.53125,P19,D07,0,0,0
407,0.07,1645449176.546875,P19,D07,0,0,0
408,-0.27,1645449176.5625,P19,D07,0,0,0
409,-0.63,1645449176.578125,P19,D07,0,0,0
410,-0.88,1645449176.59375,P19,D07,0,0,0
411,-0.93,1645449176.609375,P19,D07,0,0,0
412,-0.79,1645449176.625,P19,D07,0,0,0
413,-0.54,1645449176.640625,P19,D07,0,0,0
414,-0.26,1645449176.65625,P19,D07,0,0,0
415,-0.02,1645449176.671875,P19,D07,0,0,0
416,0.19,1645449176.6875,P19,D07,0,0,0
417,0.39,1645449176.703125,P19,D07,0,0,0
418,0.62,1645449176.71875,P19,D07,0,0,0
419,0.87,1645449176.734375,P19,D07,0,0,0
420,1.09,1645449176.75,P19,D07,0,0,0
421,1.22,1645449176.765625,P19,D07,0,0,0
422,1.21,1645449176.78125,P19,D07,0,0,0
423,1.08,1645449176.796875,P19,D07,0,0,0
424,0.89,1645449176.8125,P19,D07,0,0,0
425,0.72,1645449176.828125,P19,D07,0,0,0
426,0.61,1645449176.84375,P19,D07,0,0,0
427,0.57,1645449176.859375,P19,D07,0,0,0
428,0.57,1645449176.875,P19,D07,0,0,0
429,0.58,1645449176.890625,P19,D07,0,0,0
430,0.58,1645449176.90625,P19,D07,0,0,0
431,0.54,1645449176.921875,P19,D07,0,0,0
432,0.49,1645449176.9375,P19,D07,0,0,0
433,0.44,1645449176.953125,P19,D07,0,0,0
434,0.44,1645449176.96875,P19,D07,0,0,0
435,0.48,1645449176.984375,P19,D07,0,0,0
436,0.55,1645449177.0,P19,D07,0,0,0
437,0.62,1645449177.015625,P19,D07,0,0,0
438,0.66,1645449177.03125,P19,D07,0,0,0
439,0.69,1645449177.046875,P19,D07,0,0,0
440,0.74,1645449177.0625,P19,D07,0,0,0
441,0.83,1645449177.078125,P19,D07,0,0,0
442,0.93,1645449177.09375,P19,D07,0,0,0
443,1.0,1645449177.109375,P19,D07,0,0,0
444,1.01,1645449177.125,P19,D07,0,0,0
445,0.93,1645449177.140625,P19,D07,0,0,0
446,0.81,1645449177.15625,P19,D07,0,0,0
447,0.69,1645449177.171875,P19,D07,0,0,0
448,0.58,1645449177.1875,P19,D07,0,0,0
449,0.44,1645449177.203125,P19,D07,0,0,0
450,0.23,1645449177.21875,P19,D07,0,0,0
451,-0.06,1645449177.234375,P19,D07,0,0,0
452,-0.39,1645449177.25,P19,D07,0,0,0
453,-0.66,1645449177.265625,P19,D07,0,0,0
454,-0.78,1645449177.28125,P19,D07,0,0,0
455,-0.76,1645449177.296875,P19,D07,0,0,0
456,-0.7,1645449177.3125,P19,D07,0,0,0
457,-0.75,1645449177.328125,P19,D07,0,0,0
458,-0.97,1645449177.34375,P19,D07,0,0,0
459,-1.31,1645449177.359375,P19,D07,0,0,0
460,-1.65,1645449177.375,P19,D07,0,0,0
461,-1.82,1645449177.390625,P19,D07,0,0,0
462,-1.75,1645449177.40625,P19,D07,0,0,0
463,-1.49,1645449177.421875,P19,D07,0,0,0
464,-1.15,1645449177.4375,P19,D07,0,0,0
465,-0.88,1645449177.453125,P19,D07,0,0,0
466,-0.73,1645449177.46875,P19,D07,0,0,0
467,-0.67,1645449177.484375,P19,D07,0,0,0
468,-0.63,1645449177.5,P19,D07,0,0,0
469,-0.5,1645449177.515625,P19,D07,0,0,0
470,-0.23,1645449177.53125,P19,D07,0,0,0
471,0.15,1645449177.546875,P19,D07,0,0,0
472,0.56,1645449177.5625,P19,D07,0,0,0
473,0.89,1645449177.578125,P19,D07,0,0,0
474,1.05,1645449177.59375,P19,D07,0,0,0
475,1.0,1645449177.609375,P19,D07,0,0,0
476,0.74,1645449177.625,P19,D07,0,0,0
477,0.35,1645449177.640625,P19,D07,0,0,0
478,-0.08,1645449177.65625,P19,D07,0,0,0
479,-0.41,1645449177.671875,P19,D07,0,0,0
480,-0.54,1645449177.6875,P19,D07,0,0,0
481,-0.4,1645449177.703125,P19,D07,0,0,0
482,-0.05,1645449177.71875,P19,D07,0,0,0
483,0.42,1645449177.734375,P19,D07,0,0,0
484,0.83,1645449177.75,P19,D07,0,0,0
485,1.07,1645449177.765625,P19,D07,0,0,0
486,1.08,1645449177.78125,P19,D07,0,0,0
487,0.9,1645449177.796875,P19,D07,0,0,0
488,0.62,1645449177.8125,P19,D07,0,0,0
489,0.32,1645449177.828125,P19,D07,0,0,0
490,0.06,1645449177.84375,P19,D07,0,0,0
491,-0.16,1645449177.859375,P19,D07,0,0,0
492,-0.31,1645449177.875,P19,D07,0,0,0
493,-0.4,1645449177.890625,P19,D07,0,0,0
494,-0.39,1645449177.90625,P19,D07,0,0,0
495,-0.22,1645449177.921875,P19,D07,0,0,0
496,0.09,1645449177.9375,P19,D07,0,0,0
497,0.51,1645449177.953125,P19,D07,0,0,0
498,0.91,1645449177.96875,P19,D07,0,0,0
499,1.17,1645449177.984375,P19,D07,0,0,0
500,1.19,1645449178.0,P19,D07,0,0,0
501,0.93,1645449178.015625,P19,D07,0,0,0
502,0.48,1645449178.03125,P19,D07,0,0,0
503,-0.01,1645449178.046875,P19,D07,0,0,0
504,-0.37,1645449178.0625,P19,D07,0,0,0
505,-0.49,1645449178.078125,P19,D07,0,0,0
506,-0.38,1645449178.09375,P19,D07,0,0,0
507,-0.16,1645449178.109375,P19,D07,0,0,0
508,-0.01,1645449178.125,P19,D07,0,0,0
509,-0.06,1645449178.140625,P19,D07,0,0,0
510,-0.33,1645449178.15625,P19,D07,0,0,0
511,-0.72,1645449178.171875,P19,D07,0,0,0
512,-1.09,1645449178.1875,P19,D07,0,0,0
513,-1.33,1645449178.203125,P19,D07,0,0,0
514,-1.38,1645449178.21875,P19,D07,0,0,0
515,-1.31,1645449178.234375,P19,D07,0,0,0
516,-1.16,1645449178.25,P19,D07,0,0,0
517,-0.99,1645449178.265625,P19,D07,0,0,0
518,-0.79,1645449178.28125,P19,D07,0,0,0
519,-0.57,1645449178.296875,P19,D07,0,0,0
520,-0.35,1645449178.3125,P19,D07,0,0,0
521,-0.19,1645449178.328125,P19,D07,0,0,0
522,-0.12,1645449178.34375,P19,D07,0,0,0
523,-0.16,1645449178.359375,P19,D07,0,0,0
524,-0.24,1645449178.375,P19,D07,0,0,0
525,-0.29,1645449178.390625,P19,D07,0,0,0
526,-0.27,1645449178.40625,P19,D07,0,0,0
527,-0.17,1645449178.421875,P19,D07,0,0,0
528,-0.05,1645449178.4375,P19,D07,0,0,0
529,0.06,1645449178.453125,P19,D07,0,0,0
530,0.16,1645449178.46875,P19,D07,0,0,0
531,0.27,1645449178.484375,P19,D07,0,0,0
532,0.41,1645449178.5,P19,D07,0,0,0
533,0.53,1645449178.515625,P19,D07,0,0,0
534,0.55,1645449178.53125,P19,D07,0,0,0
535,0.42,1645449178.546875,P19,D07,0,0,0
536,0.15,1645449178.5625,P19,D07,0,0,0
537,-0.14,1645449178.578125,P19,D07,0,0,0
538,-0.32,1645449178.59375,P19,D07,0,0,0
539,-0.28,1645449178.609375,P19,D07,0,0,0
540,-0.01,1645449178.625,P19,D07,0,0,0
541,0.41,1645449178.640625,P19,D07,0,0,0
542,0.83,1645449178.65625,P19,D07,0,0,0
543,1.14,1645449178.671875,P19,D07,0,0,0
544,1.26,1645449178.6875,P19,D07,0,0,0
545,1.2,1645449178.703125,P19,D07,0,0,0
546,1.0,1645449178.71875,P19,D07,0,0,0
547,0.74,1645449178.734375,P19,D07,0,0,0
548,0.48,1645449178.75,P19,D07,0,0,0
549,0.3,1645449178.765625,P19,D07,0,0,0
550,0.21,1645449178.78125,P19,D07,0,0,0
551,0.21,1645449178.796875,P19,D07,0,0,0
552,0.22,1645449178.8125,P19,D07,0,0,0
553,0.17,1645449178.828125,P19,D07,0,0,0
554,0.0,1645449178.84375,P19,D07,0,0,0
555,-0.27,1645449178.859375,P19,D07,0,0,0
556,-0.56,1645449178.875,P19,D07,0,0,0
557,-0.76,1645449178.890625,P19,D07,0,0,0
558,-0.78,1645449178.90625,P19,D07,0,0,0
559,-0.58,1645449178.921875,P19,D07,0,0,0
560,-0.21,1645449178.9375,P19,D07,0,0,0
561,0.2,1645449178.953125,P19,D07,0,0,0
562,0.54,1645449178.96875,P19,D07,0,0,0
563,0.72,1645449178.984375,P19,D07,0,0,0
564,0.7,1645449179.0,P19,D07,0,0,0
565,0.53,1645449179.015625,P19,D07,0,0,0
566,0.28,1645449179.03125,P19,D07,0,0,0
567,0.05,1645449179.046875,P19,D07,0,0,0
568,-0.08,1645449179.0625,P19,D07,0,0,0
569,-0.05,1645449179.078125,P19,D07,0,0,0
570,0.15,1645449179.09375,P19,D07,0,0,0
571,0.45,1645449179.109375,P19,D07,0,0,0
572,0.75,1645449179.125,P19,D07,0,0,0
573,0.94,1645449179.140625,P19,D07,0,0,0
574,0.92,1645449179.15625,P19,D07,0,0,0
575,0.68,1645449179.171875,P19,D07,0,0,0
576,0.3,1645449179.1875,P19,D07,0,0,0
577,-0.08,1645449179.203125,P19,D07,0,0,0
578,-0.37,1645449179.21875,P19,D07,0,0,0
579,-0.51,1645449179.234375,P19,D07,0,0,0
580,-0.54,1645449179.25,P19,D07,0,0,0
581,-0.51,1645449179.265625,P19,D07,0,0,0
582,-0.48,1645449179.28125,P19,D07,0,0,0
583,-0.48,1645449179.296875,P19,D07,0,0,0
584,-0.5,1645449179.3125,P19,D07,0,0,0
585,-0.5,1645449179.328125,P19,D07,0,0,0
586,-0.5,1645449179.34375,P19,D07,0,0,0
587,-0.51,1645449179.359375,P19,D07,0,0,0
588,-0.56,1645449179.375,P19,D07,0,0,0
589,-0.64,1645449179.390625,P19,D07,0,0,0
590,-0.72,1645449179.40625,P19,D07,0,0,0
591,-0.75,1645449179.421875,P19,D07,0,0,0
592,-0.71,1645449179.4375,P19,D07,0,0,0
593,-0.58,1645449179.453125,P19,D07,0,0,0
594,-0.42,1645449179.46875,P19,D07,0,0,0
595,-0.28,1645449179.484375,P19,D07,0,0,0
596,-0.18,1645449179.5,P19,D07,0,0,0
597,-0.13,1645449179.515625,P19,D07,0,0,0
598,-0.08,1645449179.53125,P19,D07,0,0,0
599,0.01,1645449179.546875,P19,D07,0,0,0
600,0.18,1645449179.5625,P19,D07,0,0,0
601,0.45,1645449179.578125,P19,D07,0,0,0
602,0.77,1645449179.59375,P19,D07,0,0,0
603,1.05,1645449179.609375,P19,D07,0,0,0
604,1.21,1645449179.625,P19,D07,0,0,0
605,1.18,1645449179.640625,P19,D07,0,0,0
606,1.02,1645449179.65625,P19,D07,0,0,0
607,0.81,1645449179.671875,P19,D07,0,0,0
608,0.7,1645449179.6875,P19,D07,0,0,0
609,0.76,1645449179.703125,P19,D07,0,0,0
610,0.94,1645449179.71875,P19,D07,0,0,0
611,1.13,1645449179.734375,P19,D07,0,0,0
612,1.17,1645449179.75,P19,D07,0,0,0
613,0.98,1645449179.765625,P19,D07,0,0,0
614,0.63,1645449179.78125,P19,D07,0,0,0
615,0.26,1645449179.796875,P19,D07,0,0,0
616,0.02,1645449179.8125,P19,D07,0,0,0
617,0.01,1645449179.828125,P19,D07,0,0,0
618,0.17,1645449179.84375,P19,D07,0,0,0
619,0.4,1645449179.859375,P19,D07,0,0,0
620,0.58,1645449179.875,P19,D07,0,0,0
621,0.63,1645449179.890625,P19,D07,0,0,0
622,0.59,1645449179.90625,P19,D07,0,0,0
623,0.51,1645449179.921875,P19,D07,0,0,0
624,0.42,1645449179.9375,P19,D07,0,0,0
625,0.35,1645449179.953125,P19,D07,0,0,0
626,0.27,1645449179.96875,P19,D07,0,0,0
627,0.19,1645449179.984375,P19,D07,0,0,0
628,0.11,1645449180.0,P19,D07,0,0,0
629,0.06,1645449180.015625,P19,D07,0,0,0
630,0.01,1645449180.03125,P19,D07,0,0,0
631,-0.09,1645449180.046875,P19,D07,0,0,0
632,-0.27,1645449180.0625,P19,D07,0,0,0
633,-0.56,1645449180.078125,P19,D07,0,0,0
634,-0.89,1645449180.09375,P19,D07,0,0,0
635,-1.16,1645449180.109375,P19,D07,0,0,0
636,-1.27,1645449180.125,P19,D07,0,0,0
637,-1.2,1645449180.140625,P19,D07,0,0,0
638,-0.97,1645449180.15625,P19,D07,0,0,0
639,-0.69,1645449180.171875,P19,D07,0,0,0
640,-0.43,1645449180.1875,P19,D07,0,0,0
641,-0.22,1645449180.203125,P19,D07,0,0,0
642,-0.04,1645449180.21875,P19,D07,0,0,0
643,0.14,1645449180.234375,P19,D07,0,0,0
644,0.28,1645449180.25,P19,D07,0,0,0
645,0.33,1645449180.265625,P19,D07,0,0,0
646,0.22,1645449180.28125,P19,D07,0,0,0
647,-0.02,1645449180.296875,P19,D07,0,0,0
648,-0.32,1645449180.3125,P19,D07,0,0,0
649,-0.53,1645449180.328125,P19,D07,0,0,0
650,-0.54,1645449180.34375,P19,D07,0,0,0
651,-0.35,1645449180.359375,P19,D07,0,0,0
652,-0.07,1645449180.375,P19,D07,0,0,0
653,0.15,1645449180.390625,P19,D07,0,0,0
654,0.19,1645449180.40625,P19,D07,0,0,0
655,0.04,1645449180.421875,P19,D07,0,0,0
656,-0.21,1645449180.4375,P19,D07,0,0,0
657,-0.44,1645449180.453125,P19,D07,0,0,0
658,-0.56,1645449180.46875,P19,D07,0,0,0
659,-0.55,1645449180.484375,P19,D07,0,0,0
660,-0.46,1645449180.5,P19,D07,0,0,0
661,-0.35,1645449180.515625,P19,D07,0,0,0
662,-0.25,1645449180.53125,P19,D07,0,0,0
663,-0.14,1645449180.546875,P19,D07,0,0,0
664,0.01,1645449180.5625,P19,D07,0,0,0
665,0.23,1645449180.578125,P19,D07,0,0,0
666,0.5,1645449180.59375,P19,D07,0,0,0
667,0.78,1645449180.609375,P19,D07,0,0,0
668,0.98,1645449180.625,P19,D07,0,0,0
669,1.05,1645449180.640625,P19,D07,0,0,0
670,0.96,1645449180.65625,P19,D07,0,0,0
671,0.78,1645449180.671875,P19,D07,0,0,0
672,0.56,1645449180.6875,P19,D07,0,0,0
673,0.41,1645449180.703125,P19,D07,0,0,0
674,0.33,1645449180.71875,P19,D07,0,0,0
675,0.31,1645449180.734375,P19,D07,0,0,0
676,0.27,1645449180.75,P19,D07,0,0,0
677,0.15,1645449180.765625,P19,D07,0,0,0
678,-0.09,1645449180.78125,P19,D07,0,0,0
679,-0.38,1645449180.796875,P19,D07,0,0,0
680,-0.66,1645449180.8125,P19,D07,0,0,0
681,-0.84,1645449180.828125,P19,D07,0,0,0
682,-0.84,1645449180.84375,P19,D07,0,0,0
683,-0.68,1645449180.859375,P19,D07,0,0,0
684,-0.38,1645449180.875,P19,D07,0,0,0
685,-0.06,1645449180.890625,P19,D07,0,0,0
686,0.2,1645449180.90625,P19,D07,0,0,0
687,0.29,1645449180.921875,P19,D07,0,0,0
688,0.18,1645449180.9375,P19,D07,0,0,0
689,-0.1,1645449180.953125,P19,D07,0,0,0
690,-0.46,1645449180.96875,P19,D07,0,0,0
691,-0.78,1645449180.984375,P19,D07,0,0,0
692,-0.93,1645449181.0,P19,D07,0,0,0
693,-0.86,1645449181.015625,P19,D07,0,0,0
694,-0.6,1645449181.03125,P19,D07,0,0,0
695,-0.27,1645449181.046875,P19,D07,0,0,0
696,0.02,1645449181.0625,P19,D07,0,0,0
697,0.2,1645449181.078125,P19,D07,0,0,0
698,0.25,1645449181.09375,P19,D07,0,0,0
699,0.21,1645449181.109375,P19,D07,0,0,0
700,0.16,1645449181.125,P19,D07,0,0,0
701,0.12,1645449181.140625,P19,D07,0,0,0
702,0.09,1645449181.15625,P19,D07,0,0,0
703,0.05,1645449181.171875,P19,D07,0,0,0
704,-0.03,1645449181.1875,P19,D07,0,0,0
705,-0.14,1645449181.203125,P19,D07,0,0,0
706,-0.26,1645449181.21875,P19,D07,0,0,0
707,-0.32,1645449181.234375,P19,D07,0,0,0
708,-0.29,1645449181.25,P19,D07,0,0,0
709,-0.16,1645449181.265625,P19,D07,0,0,0
710,0.03,1645449181.28125,P19,D07,0,0,0
711,0.27,1645449181.296875,P19,D07,0,0,0
712,0.49,1645449181.3125,P19,D07,0,0,0
713,0.68,1645449181.328125,P19,D07,0,0,0
714,0.79,1645449181.34375,P19,D07,0,0,0
715,0.8,1645449181.359375,P19,D07,0,0,0
716,0.71,1645449181.375,P19,D07,0,0,0
717,0.51,1645449181.390625,P19,D07,0,0,0
718,0.23,1645449181.40625,P19,D07,0,0,0
719,-0.06,1645449181.421875,P19,D07,0,0,0
720,-0.3,1645449181.4375,P19,D07,0,0,0
721,-0.43,1645449181.453125,P19,D07,0,0,0
722,-0.41,1645449181.46875,P19,D07,0,0,0
723,-0.29,1645449181.484375,P19,D07,0,0,0
724,-0.15,1645449181.5,P19,D07,0,0,0
725,-0.07,1645449181.515625,P19,D07,0,0,0
726,-0.09,1645449181.53125,P19,D07,0,0,0
727,-0.19,1645449181.546875,P19,D07,0,0,0
728,-0.3,1645449181.5625,P19,D07,0,0,0
729,-0.35,1645449181.578125,P19,D07,0,0,0
730,-0.32,1645449181.59375,P19,D07,0,0,0
731,-0.27,1645449181.609375,P19,D07,0,0,0
732,-0.24,1645449181.625,P19,D07,0,0,0
733,-0.24,1645449181.640625,P19,D07,0,0,0
734,-0.25,1645449181.65625,P19,D07,0,0,0
735,-0.2,1645449181.671875,P19,D07,0,0,0
736,-0.08,1645449181.6875,P19,D07,0,0,0
737,0.06,1645449181.703125,P19,D07,0,0,0
738,0.13,1645449181.71875,P19,D07,0,0,0
739,0.09,1645449181.734375,P19,D07,0,0,0
740,-0.1,1645449181.75,P19,D07,0,0,0
741,-0.34,1645449181.765625,P19,D07,0,0,0
742,-0.54,1645449181.78125,P19,D07,0,0,0
743,-0.62,1645449181.796875,P19,D07,0,0,0
744,-0.55,1645449181.8125,P19,D07,0,0,0
745,-0.4,1645449181.828125,P19,D07,0,0,0
746,-0.2,1645449181.84375,P19,D07,0,0,0
747,-0.02,1645449181.859375,P19,D07,0,0,0
748,0.14,1645449181.875,P19,D07,0,0,0
749,0.28,1645449181.890625,P19,D07,0,0,0
750,0.41,1645449181.90625,P19,D07,0,0,0
751,0.51,1645449181.921875,P19,D07,0,0,0
752,0.55,1645449181.9375,P19,D07,0,0,0
753,0.49,1645449181.953125,P19,D07,0,0,0
754,0.3,1645449181.96875,P19,D07,0,0,0
755,0.02,1645449181.984375,P19,D07,0,0,0
756,-0.28,1645449182.0,P19,D07,0,0,0
757,-0.5,1645449182.015625,P19,D07,0,0,0
758,-0.55,1645449182.03125,P19,D07,0,0,0
759,-0.38,1645449182.046875,P19,D07,0,0,0
760,-0.08,1645449182.0625,P19,D07,0,0,0
761,0.23,1645449182.078125,P19,D07,0,0,0
762,0.42,1645449182.09375,P19,D07,0,0,0
763,0.42,1645449182.109375,P19,D07,0,0,0
764,0.32,1645449182.125,P19,D07,0,0,0
765,0.25,1645449182.140625,P19,D07,0,0,0
766,0.34,1645449182.15625,P19,D07,0,0,0
767,0.62,1645449182.171875,P19,D07,0,0,0
768,0.95,1645449182.1875,P19,D07,0,0,0
769,1.13,1645449182.203125,P19,D07,0,0,0
770,0.99,1645449182.21875,P19,D07,0,0,0
771,0.49,1645449182.234375,P19,D07,0,0,0
772,-0.21,1645449182.25,P19,D07,0,0,0
773,-0.86,1645449182.265625,P19,D07,0,0,0
774,-1.19,1645449182.28125,P19,D07,0,0,0
775,-1.1,1645449182.296875,P19,D07,0,0,0
776,-0.65,1645449182.3125,P19,D07,0,0,0
777,-0.08,1645449182.328125,P19,D07,0,0,0
778,0.39,1645449182.34375,P19,D07,0,0,0
779,0.62,1645449182.359375,P19,D07,0,0,0
780,0.61,1645449182.375,P19,D07,0,0,0
781,0.47,1645449182.390625,P19,D07,0,0,0
782,0.32,1645449182.40625,P19,D07,0,0,0
783,0.21,1645449182.421875,P19,D07,0,0,0
784,0.13,1645449182.4375,P19,D07,0,0,0
785,0.04,1645449182.453125,P19,D07,0,0,0
786,-0.1,1645449182.46875,P19,D07,0,0,0
787,-0.24,1645449182.484375,P19,D07,0,0,0
788,-0.35,1645449182.5,P19,D07,0,0,0
789,-0.39,1645449182.515625,P19,D07,0,0,0
790,-0.43,1645449182.53125,P19,D07,0,0,0
791,-0.53,1645449182.546875,P19,D07,0,0,0
792,-0.73,1645449182.5625,P19,D07,0,0,0
793,-1.01,1645449182.578125,P19,D07,0,0,0
794,-1.25,1645449182.59375,P19,D07,0,0,0
795,-1.34,1645449182.609375,P19,D07,0,0,0
796,-1.23,1645449182.625,P19,D07,0,0,0
797,-0.94,1645449182.640625,P19,D07,0,0,0
798,-0.61,1645449182.65625,P19,D07,0,0,0
799,-0.34,1645449182.671875,P19,D07,0,0,0
800,-0.19,1645449182.6875,P19,D07,0,0,0
801,-0.14,1645449182.703125,P19,D07,0,0,0
802,-0.14,1645449182.71875,P19,D07,0,0,0
803,-0.13,1645449182.734375,P19,D07,0,0,0
804,-0.1,1645449182.75,P19,D07,0,0,0
805,-0.07,1645449182.765625,P19,D07,0,0,0
806,-0.05,1645449182.78125,P19,D07,0,0,0
807,-0.03,1645449182.796875,P19,D07,0,0,0
808,0.02,1645449182.8125,P19,D07,0,0,0
809,0.13,1645449182.828125,P19,D07,0,0,0
810,0.28,1645449182.84375,P19,D07,0,0,0
811,0.44,1645449182.859375,P19,D07,0,0,0
812,0.55,1645449182.875,P19,D07,0,0,0
813,0.56,1645449182.890625,P19,D07,0,0,0
814,0.5,1645449182.90625,P19,D07,0,0,0
815,0.43,1645449182.921875,P19,D07,0,0,0
816,0.38,1645449182.9375,P19,D07,0,0,0
817,0.38,1645449182.953125,P19,D07,0,0,0
818,0.38,1645449182.96875,P19,D07,0,0,0
819,0.33,1645449182.984375,P19,D07,0,0,0
820,0.2,1645449183.0,P19,D07,0,0,0
821,0.04,1645449183.015625,P19,D07,0,0,0
822,-0.07,1645449183.03125,P19,D07,0,0,0
823,-0.05,1645449183.046875,P19,D07,0,0,0
824,0.1,1645449183.0625,P19,D07,0,0,0
825,0.32,1645449183.078125,P19,D07,0,0,0
826,0.49,1645449183.09375,P19,D07,0,0,0
827,0.5,1645449183.109375,P19,D07,0,0,0
828,0.34,1645449183.125,P19,D07,0,0,0
829,0.06,1645449183.140625,P19,D07,0,0,0
830,-0.2,1645449183.15625,P19,D07,0,0,0
831,-0.29,1645449183.171875,P19,D07,0,0,0
832,-0.18,1645449183.1875,P19,D07,0,0,0
833,0.1,1645449183.203125,P19,D07,0,0,0
834,0.42,1645449183.21875,P19,D07,0,0,0
835,0.62,1645449183.234375,P19,D07,0,0,0
836,0.6,1645449183.25,P19,D07,0,0,0
837,0.35,1645449183.265625,P19,D07,0,0,0
838,-0.03,1645449183.28125,P19,D07,0,0,0
839,-0.4,1645449183.296875,P19,D07,0,0,0
840,-0.63,1645449183.3125,P19,D07,0,0,0
841,-0.69,1645449183.328125,P19,D07,0,0,0
842,-0.63,1645449183.34375,P19,D07,0,0,0
843,-0.53,1645449183.359375,P19,D07,0,0,0
844,-0.45,1645449183.375,P19,D07,0,0,0
845,-0.37,1645449183.390625,P19,D07,0,0,0
846,-0.27,1645449183.40625,P19,D07,0,0,0
847,-0.13,1645449183.421875,P19,D07,0,0,0
848,0.02,1645449183.4375,P19,D07,0,0,0
849,0.11,1645449183.453125,P19,D07,0,0,0
850,0.07,1645449183.46875,P19,D07,0,0,0
851,-0.05,1645449183.484375,P19,D07,0,0,0
852,-0.2,1645449183.5,P19,D07,0,0,0
853,-0.26,1645449183.515625,P19,D07,0,0,0
854,-0.2,1645449183.53125,P19,D07,0,0,0
855,-0.06,1645449183.546875,P19,D07,0,0,0
856,0.08,1645449183.5625,P19,D07,0,0,0
857,0.14,1645449183.578125,P19,D07,0,0,0
858,0.14,1645449183.59375,P19,D07,0,0,0
859,0.13,1645449183.609375,P19,D07,0,0,0
860,0.2,1645449183.625,P19,D07,0,0,0
861,0.38,1645449183.640625,P19,D07,0,0,0
862,0.61,1645449183.65625,P19,D07,0,0,0
863,0.75,1645449183.671875,P19,D07,0,0,0
864,0.72,1645449183.6875,P19,D07,0,0,0
865,0.5,1645449183.703125,P19,D07,0,0,0
866,0.2,1645449183.71875,P19,D07,0,0,0
867,-0.04,1645449183.734375,P19,D07,0,0,0
868,-0.1,1645449183.75,P19,D07,0,0,0
869,0.02,1645449183.765625,P19,D07,0,0,0
870,0.24,1645449183.78125,P19,D07,0,0,0
871,0.45,1645449183.796875,P19,D07,0,0,0
872,0.57,1645449183.8125,P19,D07,0,0,0
873,0.6,1645449183.828125,P19,D07,0,0,0
874,0.59,1645449183.84375,P19,D07,0,0,0
875,0.56,1645449183.859375,P19,D07,0,0,0
876,0.53,1645449183.875,P19,D07,0,0,0
877,0.44,1645449183.890625,P19,D07,0,0,0
878,0.29,1645449183.90625,P19,D07,0,0,0
879,0.12,1645449183.921875,P19,D07,0,0,0
880,0.0,1645449183.9375,P19,D07,0,0,0
881,-0.01,1645449183.953125,P19,D07,0,0,0
882,0.09,1645449183.96875,P19,D07,0,0,0
883,0.24,1645449183.984375,P19,D07,0,0,0
884,0.36,1645449184.0,P19,D07,0,0,0
885,0.4,1645449184.015625,P19,D07,0,0,0
886,0.37,1645449184.03125,P19,D07,0,0,0
887,0.29,1645449184.046875,P19,D07,0,0,0
888,0.18,1645449184.0625,P19,D07,0,0,0
889,0.06,1645449184.078125,P19,D07,0,0,0
890,-0.08,1645449184.09375,P19,D07,0,0,0
891,-0.2,1645449184.109375,P19,D07,0,0,0
892,-0.26,1645449184.125,P19,D07,0,0,0
893,-0.21,1645449184.140625,P19,D07,0,0,0
894,-0.07,1645449184.15625,P19,D07,0,0,0
895,0.07,1645449184.171875,P19,D07,0,0,0
896,0.09,1645449184.1875,P19,D07,0,0,0
897,-0.08,1645449184.203125,P19,D07,0,0,0
898,-0.46,1645449184.21875,P19,D07,0,0,0
899,-0.93,1645449184.234375,P19,D07,0,0,0
900,-1.35,1645449184.25,P19,D07,0,0,0
901,-1.57,1645449184.265625,P19,D07,0,0,0
902,-1.56,1645449184.28125,P19,D07,0,0,0
903,-1.33,1645449184.296875,P19,D07,0,0,0
904,-0.96,1645449184.3125,P19,D07,0,0,0
905,-0.52,1645449184.328125,P19,D07,0,0,0
906,-0.05,1645449184.34375,P19,D07,0,0,0
907,0.41,1645449184.359375,P19,D07,0,0,0
908,0.79,1645449184.375,P19,D07,0,0,0
909,1.02,1645449184.390625,P19,D07,0,0,0
910,1.0,1645449184.40625,P19,D07,0,0,0
911,0.74,1645449184.421875,P19,D07,0,0,0
912,0.28,1645449184.4375,P19,D07,0,0,0
913,-0.23,1645449184.453125,P19,D07,0,0,0
914,-0.65,1645449184.46875,P19,D07,0,0,0
915,-0.87,1645449184.484375,P19,D07,0,0,0
916,-0.86,1645449184.5,P19,D07,0,0,0
917,-0.66,1645449184.515625,P19,D07,0,0,0
918,-0.34,1645449184.53125,P19,D07,0,0,0
919,0.02,1645449184.546875,P19,D07,0,0,0
920,0.35,1645449184.5625,P19,D07,0,0,0
921,0.61,1645449184.578125,P19,D07,0,0,0
922,0.77,1645449184.59375,P19,D07,0,0,0
923,0.83,1645449184.609375,P19,D07,0,0,0
924,0.8,1645449184.625,P19,D07,0,0,0
925,0.74,1645449184.640625,P19,D07,0,0,0
926,0.66,1645449184.65625,P19,D07,0,0,0
927,0.58,1645449184.671875,P19,D07,0,0,0
928,0.47,1645449184.6875,P19,D07,0,0,0
929,0.28,1645449184.703125,P19,D07,0,0,0
930,0.01,1645449184.71875,P19,D07,0,0,0
931,-0.32,1645449184.734375,P19,D07,0,0,0
932,-0.63,1645449184.75,P19,D07,0,0,0
933,-0.86,1645449184.765625,P19,D07,0,0,0
934,-0.95,1645449184.78125,P19,D07,0,0,0
935,-0.88,1645449184.796875,P19,D07,0,0,0
936,-0.66,1645449184.8125,P19,D07,0,0,0
937,-0.31,1645449184.828125,P19,D07,0,0,0
938,0.11,1645449184.84375,P19,D07,0,0,0
939,0.52,1645449184.859375,P19,D07,0,0,0
940,0.84,1645449184.875,P19,D07,0,0,0
941,0.97,1645449184.890625,P19,D07,0,0,0
942,0.84,1645449184.90625,P19,D07,0,0,0
943,0.49,1645449184.921875,P19,D07,0,0,0
944,-0.02,1645449184.9375,P19,D07,0,0,0
945,-0.53,1645449184.953125,P19,D07,0,0,0
946,-0.93,1645449184.96875,P19,D07,0,0,0
947,-1.14,1645449184.984375,P19,D07,0,0,0
948,-1.13,1645449185.0,P19,D07,0,0,0
949,-0.94,1645449185.015625,P19,D07,0,0,0
950,-0.61,1645449185.03125,P19,D07,0,0,0
951,-0.2,1645449185.046875,P19,D07,0,0,0
952,0.19,1645449185.0625,P19,D07,0,0,0
953,0.5,1645449185.078125,P19,D07,0,0,0
954,0.65,1645449185.09375,P19,D07,0,0,0
955,0.61,1645449185.109375,P19,D07,0,0,0
956,0.42,1645449185.125,P19,D07,0,0,0
957,0.15,1645449185.140625,P19,D07,0,0,0
958,-0.07,1645449185.15625,P19,D07,0,0,0
959,-0.14,1645449185.171875,P19,D07,0,0,0
960,-0.05,1645449185.1875,P19,D07,0,0,0
961,0.15,1645449185.203125,P19,D07,0,0,0
962,0.34,1645449185.21875,P19,D07,0,0,0
963,0.43,1645449185.234375,P19,D07,0,0,0
964,0.4,1645449185.25,P19,D07,0,0,0
965,0.31,1645449185.265625,P19,D07,0,0,0
966,0.24,1645449185.28125,P19,D07,0,0,0
967,0.25,1645449185.296875,P19,D07,0,0,0
968,0.32,1645449185.3125,P19,D07,0,0,0
969,0.39,1645449185.328125,P19,D07,0,0,0
970,0.4,1645449185.34375,P19,D07,0,0,0
971,0.34,1645449185.359375,P19,D07,0,0,0
972,0.27,1645449185.375,P19,D07,0,0,0
973,0.27,1645449185.390625,P19,D07,0,0,0
974,0.34,1645449185.40625,P19,D07,0,0,0
975,0.41,1645449185.421875,P19,D07,0,0,0
976,0.37,1645449185.4375,P19,D07,0,0,0
977,0.15,1645449185.453125,P19,D07,0,0,0
978,-0.19,1645449185.46875,P19,D07,0,0,0
979,-0.53,1645449185.484375,P19,D07,0,0,0
980,-0.71,1645449185.5,P19,D07,0,0,0
981,-0.65,1645449185.515625,P19,D07,0,0,0
982,-0.42,1645449185.53125,P19,D07,0,0,0
983,-0.14,1645449185.546875,P19,D07,0,0,0
984,0.04,1645449185.5625,P19,D07,0,0,0
985,0.03,1645449185.578125,P19,D07,0,0,0
986,-0.17,1645449185.59375,P19,D07,0,0,0
987,-0.49,1645449185.609375,P19,D07,0,0,0
988,-0.83,1645449185.625,P19,D07,0,0,0
989,-1.1,1645449185.640625,P19,D07,0,0,0
990,-1.22,1645449185.65625,P19,D07,0,0,0
991,-1.16,1645449185.671875,P19,D07,0,0,0
992,-0.91,1645449185.6875,P19,D07,0,0,0
993,-0.52,1645449185.703125,P19,D07,0,0,0
994,-0.08,1645449185.71875,P19,D07,0,0,0
995,0.31,1645449185.734375,P19,D07,0,0,0
996,0.55,1645449185.75,P19,D07,0,0,0
997,0.59,1645449185.765625,P19,D07,0,0,0
998,0.46,1645449185.78125,P19,D07,0,0,0
999,0.21,1645449185.796875,P19,D07,0,0,0
1000,-0.06,1645449185.8125,P19,D07,0,0,0
1001,-0.28,1645449185.828125,P19,D07,0,0,0
1002,-0.4,1645449185.84375,P19,D07,0,0,0
1003,-0.39,1645449185.859375,P19,D07,0,0,0
1004,-0.27,1645449185.875,P19,D07,0,0,0
1005,-0.08,1645449185.890625,P19,D07,0,0,0
1006,0.11,1645449185.90625,P19,D07,0,0,0
1007,0.27,1645449185.921875,P19,D07,0,0,0
1008,0.38,1645449185.9375,P19,D07,0,0,0
1009,0.43,1645449185.953125,P19,D07,0,0,0
1010,0.44,1645449185.96875,P19,D07,0,0,0
1011,0.42,1645449185.984375,P19,D07,0,0,0
1012,0.36,1645449186.0,P19,D07,0,0,0
1013,0.3,1645449186.015625,P19,D07,0,0,0
1014,0.26,1645449186.03125,P19,D07,0,0,0
1015,0.26,1645449186.046875,P19,D07,0,0,0
1016,0.32,1645449186.0625,P19,D07,0,0,0
1017,0.4,1645449186.078125,P19,D07,0,0,0
1018,0.46,1645449186.09375,P19,D07,0,0,0
1019,0.45,1645449186.109375,P19,D07,0,0,0
1020,0.32,1645449186.125,P19,D07,0,0,0
1021,0.09,1645449186.140625,P19,D07,0,0,0
1022,-0.21,1645449186.15625,P19,D07,0,0,0
1023,-0.52,1645449186.171875,P19,D07,0,0,0
1024,-0.79,1645449186.1875,P19,D07,0,0,0
1025,-0.97,1645449186.203125,P19,D07,0,0,0
1026,-1.01,1645449186.21875,P19,D07,0,0,0
1027,-0.9,1645449186.234375,P19,D07,0,0,0
1028,-0.64,1645449186.25,P19,D07,0,0,0
1029,-0.27,1645449186.265625,P19,D07,0,0,0
1030,0.12,1645449186.28125,P19,D07,0,0,0
1031,0.47,1645449186.296875,P19,D07,0,0,0
1032,0.69,1645449186.3125,P19,D07,0,0,0
1033,0.76,1645449186.328125,P19,D07,0,0,0
1034,0.68,1645449186.34375,P19,D07,0,0,0
1035,0.52,1645449186.359375,P19,D07,0,0,0
1036,0.34,1645449186.375,P19,D07,0,0,0
1037,0.21,1645449186.390625,P19,D07,0,0,0
1038,0.17,1645449186.40625,P19,D07,0,0,0
1039,0.22,1645449186.421875,P19,D07,0,0,0
1040,0.32,1645449186.4375,P19,D07,0,0,0
1041,0.41,1645449186.453125,P19,D07,0,0,0
1042,0.46,1645449186.46875,P19,D07,0,0,0
1043,0.43,1645449186.484375,P19,D07,0,0,0
1044,0.31,1645449186.5,P19,D07,0,0,0
1045,0.11,1645449186.515625,P19,D07,0,0,0
1046,-0.12,1645449186.53125,P19,D07,0,0,0
1047,-0.32,1645449186.546875,P19,D07,0,0,0
1048,-0.41,1645449186.5625,P19,D07,0,0,0
1049,-0.35,1645449186.578125,P19,D07,0,0,0
1050,-0.16,1645449186.59375,P19,D07,0,0,0
1051,0.09,1645449186.609375,P19,D07,0,0,0
1052,0.28,1645449186.625,P19,D07,0,0,0
1053,0.35,1645449186.640625,P19,D07,0,0,0
1054,0.31,1645449186.65625,P19,D07,0,0,0
1055,0.21,1645449186.671875,P19,D07,0,0,0
1056,0.13,1645449186.6875,P19,D07,0,0,0
1057,0.1,1645449186.703125,P19,D07,0,0,0
1058,0.1,1645449186.71875,P19,D07,0,0,0
1059,0.04,1645449186.734375,P19,D07,0,0,0
1060,-0.13,1645449186.75,P19,D07,0,0,0
1061,-0.42,1645449186.765625,P19,D07,0,0,0
1062,-0.75,1645449186.78125,P19,D07,0,0,0
1063,-1.02,1645449186.796875,P19,D07,0,0,0
1064,-1.14,1645449186.8125,P19,D07,0,0,0
1065,-1.1,1645449186.828125,P19,D07,0,0,0
1066,-0.89,1645449186.84375,P19,D07,0,0,0
1067,-0.58,1645449186.859375,P19,D07,0,0,0
1068,-0.22,1645449186.875,P19,D07,0,0,0
1069,0.13,1645449186.890625,P19,D07,0,0,0
1070,0.42,1645449186.90625,P19,D07,0,0,0
1071,0.61,1645449186.921875,P19,D07,0,0,0
1072,0.67,1645449186.9375,P19,D07,0,0,0
1073,0.63,1645449186.953125,P19,D07,0,0,0
1074,0.5,1645449186.96875,P19,D07,0,0,0
1075,0.34,1645449186.984375,P19,D07,0,0,0
1076,0.16,1645449187.0,P19,D07,0,0,0
1077,-0.0,1645449187.015625,P19,D07,0,0,0
1078,-0.11,1645449187.03125,P19,D07,0,0,0
1079,-0.17,1645449187.046875,P19,D07,0,0,0
1080,-0.16,1645449187.0625,P19,D07,0,0,0
1081,-0.1,1645449187.078125,P19,D07,0,0,0
1082,-0.03,1645449187.09375,P19,D07,0,0,0
1083,0.02,1645449187.109375,P19,D07,0,0,0
1084,0.06,1645449187.125,P19,D07,0,0,0
1085,0.08,1645449187.140625,P19,D07,0,0,0
1086,0.09,1645449187.15625,P19,D07,0,0,0
1087,0.09,1645449187.171875,P19,D07,0,0,0
1088,0.04,1645449187.1875,P19,D07,0,0,0
1089,-0.11,1645449187.203125,P19,D07,0,0,0
1090,-0.37,1645449187.21875,P19,D07,0,0,0
1091,-0.67,1645449187.234375,P19,D07,0,0,0
1092,-0.92,1645449187.25,P19,D07,0,0,0
1093,-0.99,1645449187.265625,P19,D07,0,0,0
1094,-0.84,1645449187.28125,P19,D07,0,0,0
1095,-0.52,1645449187.296875,P19,D07,0,0,0
1096,-0.12,1645449187.3125,P19,D07,0,0,0
1097,0.2,1645449187.328125,P19,D07,0,0,0
1098,0.35,1645449187.34375,P19,D07,0,0,0
1099,0.28,1645449187.359375,P19,D07,0,0,0
1100,0.08,1645449187.375,P19,D07,0,0,0
1101,-0.16,1645449187.390625,P19,D07,0,0,0
1102,-0.3,1645449187.40625,P19,D07,0,0,0
1103,-0.3,1645449187.421875,P19,D07,0,0,0
1104,-0.16,1645449187.4375,P19,D07,0,0,0
1105,0.04,1645449187.453125,P19,D07,0,0,0
1106,0.24,1645449187.46875,P19,D07,0,0,0
1107,0.39,1645449187.484375,P19,D07,0,0,0
1108,0.45,1645449187.5,P19,D07,0,0,0
1109,0.41,1645449187.515625,P19,D07,0,0,0
1110,0.25,1645449187.53125,P19,D07,0,0,0
1111,-0.03,1645449187.546875,P19,D07,0,0,0
1112,-0.38,1645449187.5625,P19,D07,0,0,0
1113,-0.68,1645449187.578125,P19,D07,0,0,0
1114,-0.8,1645449187.59375,P19,D07,0,0,0
1115,-0.65,1645449187.609375,P19,D07,0,0,0
1116,-0.26,1645449187.625,P19,D07,0,0,0
1117,0.21,1645449187.640625,P19,D07,0,0,0
1118,0.6,1645449187.65625,P19,D07,0,0,0
1119,0.81,1645449187.671875,P19,D07,0,0,0
1120,0.84,1645449187.6875,P19,D07,0,0,0
1121,0.8,1645449187.703125,P19,D07,0,0,0
1122,0.77,1645449187.71875,P19,D07,0,0,0
1123,0.78,1645449187.734375,P19,D07,0,0,0
1124,0.78,1645449187.75,P19,D07,0,0,0
1125,0.71,1645449187.765625,P19,D07,0,0,0
1126,0.57,1645449187.78125,P19,D07,0,0,0
1127,0.4,1645449187.796875,P19,D07,0,0,0
1128,0.28,1645449187.8125,P19,D07,0,0,0
1129,0.25,1645449187.828125,P19,D07,0,0,0
1130,0.25,1645449187.84375,P19,D07,0,0,0
1131,0.19,1645449187.859375,P19,D07,0,0,0
1132,0.03,1645449187.875,P19,D07,0,0,0
1133,-0.22,1645449187.890625,P19,D07,0,0,0
1134,-0.47,1645449187.90625,P19,D07,0,0,0
1135,-0.63,1645449187.921875,P19,D07,0,0,0
1136,-0.65,1645449187.9375,P19,D07,0,0,0
1137,-0.54,1645449187.953125,P19,D07,0,0,0
1138,-0.36,1645449187.96875,P19,D07,0,0,0
1139,-0.17,1645449187.984375,P19,D07,0,0,0
1140,0.0,1645449188.0,P19,D07,0,0,0
1141,0.1,1645449188.015625,P19,D07,0,0,0
1142,0.12,1645449188.03125,P19,D07,0,0,0
1143,0.07,1645449188.046875,P19,D07,0,0,0
1144,-0.03,1645449188.0625,P19,D07,0,0,0
1145,-0.09,1645449188.078125,P19,D07,0,0,0
1146,-0.06,1645449188.09375,P19,D07,0,0,0
1147,0.07,1645449188.109375,P19,D07,0,0,0
1148,0.25,1645449188.125,P19,D07,0,0,0
1149,0.38,1645449188.140625,P19,D07,0,0,0
1150,0.37,1645449188.15625,P19,D07,0,0,0
1151,0.23,1645449188.171875,P19,D07,0,0,0
1152,0.04,1645449188.1875,P19,D07,0,0,0
1153,-0.07,1645449188.203125,P19,D07,0,0,0
1154,0.02,1645449188.21875,P19,D07,0,0,0
1155,0.32,1645449188.234375,P19,D07,0,0,0
1156,0.76,1645449188.25,P19,D07,0,0,0
1157,1.16,1645449188.265625,P19,D07,0,0,0
1158,1.39,1645449188.28125,P19,D07,0,0,0
1159,1.39,1645449188.296875,P19,D07,0,0,0
1160,1.16,1645449188.3125,P19,D07,0,0,0
1161,0.79,1645449188.328125,P19,D07,0,0,0
1162,0.36,1645449188.34375,P19,D07,0,0,0
1163,-0.04,1645449188.359375,P19,D07,0,0,0
1164,-0.35,1645449188.375,P19,D07,0,0,0
1165,-0.52,1645449188.390625,P19,D07,0,0,0
1166,-0.56,1645449188.40625,P19,D07,0,0,0
1167,-0.47,1645449188.421875,P19,D07,0,0,0
1168,-0.31,1645449188.4375,P19,D07,0,0,0
1169,-0.15,1645449188.453125,P19,D07,0,0,0
1170,-0.05,1645449188.46875,P19,D07,0,0,0
1171,-0.04,1645449188.484375,P19,D07,0,0,0
1172,-0.11,1645449188.5,P19,D07,0,0,0
1173,-0.24,1645449188.515625,P19,D07,0,0,0
1174,-0.4,1645449188.53125,P19,D07,0,0,0
1175,-0.57,1645449188.546875,P19,D07,0,0,0
1176,-0.73,1645449188.5625,P19,D07,0,0,0
1177,-0.86,1645449188.578125,P19,D07,0,0,0
1178,-0.9,1645449188.59375,P19,D07,0,0,0
1179,-0.83,1645449188.609375,P19,D07,0,0,0
1180,-0.66,1645449188.625,P19,D07,0,0,0
1181,-0.45,1645449188.640625,P19,D07,0,0,0
1182,-0.33,1645449188.65625,P19,D07,0,0,0
1183,-0.37,1645449188.671875,P19,D07,0,0,0
1184,-0.6,1645449188.6875,P19,D07,0,0,0
1185,-0.92,1645449188.703125,P19,D07,0,0,0
1186,-1.2,1645449188.71875,P19,D07,0,0,0
1187,-1.31,1645449188.734375,P19,D07,0,0,0
1188,-1.21,1645449188.75,P19,D07,0,0,0
1189,-0.92,1645449188.765625,P19,D07,0,0,0
1190,-0.56,1645449188.78125,P19,D07,0,0,0
1191,-0.19,1645449188.796875,P19,D07,0,0,0
1192,0.14,1645449188.8125,P19,D07,0,0,0
1193,0.44,1645449188.828125,P19,D07,0,0,0
1194,0.71,1645449188.84375,P19,D07,0,0,0
1195,0.94,1645449188.859375,P19,D07,0,0,0
1196,1.07,1645449188.875,P19,D07,0,0,0
1197,1.06,1645449188.890625,P19,D07,0,0,0
1198,0.89,1645449188.90625,P19,D07,0,0,0
1199,0.61,1645449188.921875,P19,D07,0,0,0
1200,0.32,1645449188.9375,P19,D07,0,0,0
1201,0.13,1645449188.953125,P19,D07,0,0,0
1202,0.13,1645449188.96875,P19,D07,0,0,0
1203,0.34,1645449188.984375,P19,D07,0,0,0
1204,0.69,1645449189.0,P19,D07,0,0,0
1205,1.04,1645449189.015625,P19,D07,0,0,0
1206,1.28,1645449189.03125,P19,D07,0,0,0
1207,1.33,1645449189.046875,P19,D07,0,0,0
1208,1.19,1645449189.0625,P19,D07,0,0,0
1209,0.96,1645449189.078125,P19,D07,0,0,0
1210,0.71,1645449189.09375,P19,D07,0,0,0
1211,0.53,1645449189.109375,P19,D07,0,0,0
1212,0.44,1645449189.125,P19,D07,0,0,0
1213,0.4,1645449189.140625,P19,D07,0,0,0
1214,0.37,1645449189.15625,P19,D07,0,0,0
1215,0.33,1645449189.171875,P19,D07,0,0,0
1216,0.26,1645449189.1875,P19,D07,0,0,0
1217,0.18,1645449189.203125,P19,D07,0,0,0
1218,0.04,1645449189.21875,P19,D07,0,0,0
1219,-0.2,1645449189.234375,P19,D07,0,0,0
1220,-0.54,1645449189.25,P19,D07,0,0,0
1221,-0.93,1645449189.265625,P19,D07,0,0,0
1222,-1.25,1645449189.28125,P19,D07,0,0,0
1223,-1.38,1645449189.296875,P19,D07,0,0,0
1224,-1.27,1645449189.3125,P19,D07,0,0,0
1225,-0.98,1645449189.328125,P19,D07,0,0,0
1226,-0.69,1645449189.34375,P19,D07,0,0,0
1227,-0.52,1645449189.359375,P19,D07,0,0,0
1228,-0.51,1645449189.375,P19,D07,0,0,0
1229,-0.56,1645449189.390625,P19,D07,0,0,0
1230,-0.57,1645449189.40625,P19,D07,0,0,0
1231,-0.45,1645449189.421875,P19,D07,0,0,0
1232,-0.25,1645449189.4375,P19,D07,0,0,0
1233,-0.07,1645449189.453125,P19,D07,0,0,0
1234,0.01,1645449189.46875,P19,D07,0,0,0
1235,-0.01,1645449189.484375,P19,D07,0,0,0
1236,-0.03,1645449189.5,P19,D07,0,0,0
1237,0.03,1645449189.515625,P19,D07,0,0,0
1238,0.23,1645449189.53125,P19,D07,0,0,0
1239,0.5,1645449189.546875,P19,D07,0,0,0
1240,0.73,1645449189.5625,P19,D07,0,0,0
1241,0.81,1645449189.578125,P19,D07,0,0,0
1242,0.74,1645449189.59375,P19,D07,0,0,0
1243,0.58,1645449189.609375,P19,D07,0,0,0
1244,0.43,1645449189.625,P19,D07,0,0,0
1245,0.35,1645449189.640625,P19,D07,0,0,0
1246,0.34,1645449189.65625,P19,D07,0,0,0
1247,0.35,1645449189.671875,P19,D07,0,0,0
1248,0.32,1645449189.6875,P19,D07,0,0,0
1249,0.22,1645449189.703125,P19,D07,0,0,0
1250,0.07,1645449189.71875,P19,D07,0,0,0
1251,-0.09,1645449189.734375,P19,D07,0,0,0
1252,-0.23,1645449189.75,P19,D07,0,0,0
1253,-0.34,1645449189.765625,P19,D07,0,0,0
1254,-0.42,1645449189.78125,P19,D07,0,0,0
1255,-0.52,1645449189.796875,P19,D07,0,0,0
1256,-0.64,1645449189.8125,P19,D07,0,0,0
1257,-0.79,1645449189.828125,P19,D07,0,0,0
1258,-0.93,1645449189.84375,P19,D07,0,0,0
1259,-1.03,1645449189.859375,P19,D07,0,0,0
1260,-1.07,1645449189.875,P19,D07,0,0,0
1261,-1.08,1645449189.890625,P19,D07,0,0,0
1262,-1.08,1645449189.90625,P19,D07,0,0,0
1263,-1.07,1645449189.921875,P19,D07,0,0,0
1264,-1.01,1645449189.9375,P19,D07,0,0,0
1265,-0.82,1645449189.953125,P19,D07,0,0,0
1266,-0.48,1645449189.96875,P19,D07,0,0,0
1267,-0.02,1645449189.984375,P19,D07,0,0,0
1268,0.43,1645449190.0,P19,D07,0,0,0
1269,0.75,1645449190.015625,P19,D07,0,0,0
1270,0.86,1645449190.03125,P19,D07,0,0,0
1271,0.79,1645449190.046875,P19,D07,0,0,0
1272,0.61,1645449190.0625,P19,D07,0,0,0
1273,0.44,1645449190.078125,P19,D07,0,0,0
1274,0.31,1645449190.09375,P19,D07,0,0,0
1275,0.24,1645449190.109375,P19,D07,0,0,0
1276,0.21,1645449190.125,P19,D07,0,0,0
1277,0.22,1645449190.140625,P19,D07,0,0,0
1278,0.25,1645449190.15625,P19,D07,0,0,0
1279,0.33,1645449190.171875,P19,D07,0,0,0
1280,0.39,1645449190.1875,P19,D07,0,0,0
1281,0.4,1645449190.203125,P19,D07,0,0,0
1282,0.3,1645449190.21875,P19,D07,0,0,0
1283,0.13,1645449190.234375,P19,D07,0,0,0
1284,-0.02,1645449190.25,P19,D07,0,0,0
1285,-0.06,1645449190.265625,P19,D07,0,0,0
1286,0.07,1645449190.28125,P19,D07,0,0,0
1287,0.31,1645449190.296875,P19,D07,0,0,0
1288,0.54,1645449190.3125,P19,D07,0,0,0
1289,0.63,1645449190.328125,P19,D07,0,0,0
1290,0.54,1645449190.34375,P19,D07,0,0,0
1291,0.31,1645449190.359375,P19,D07,0,0,0
1292,0.08,1645449190.375,P19,D07,0,0,0
1293,-0.04,1645449190.390625,P19,D07,0,0,0
1294,0.01,1645449190.40625,P19,D07,0,0,0
1295,0.17,1645449190.421875,P19,D07,0,0,0
1296,0.33,1645449190.4375,P19,D07,0,0,0
1297,0.36,1645449190.453125,P19,D07,0,0,0
1298,0.2,1645449190.46875,P19,D07,0,0,0
1299,-0.09,1645449190.484375,P19,D07,0,0,0
1300,-0.37,1645449190.5,P19,D07,0,0,0
1301,-0.49,1645449190.515625,P19,D07,0,0,0
1302,-0.39,1645449190.53125,P19,D07,0,0,0
1303,-0.11,1645449190.546875,P19,D07,0,0,0
1304,0.2,1645449190.5625,P19,D07,0,0,0
1305,0.37,1645449190.578125,P19,D07,0,0,0
1306,0.3,1645449190.59375,P19,D07,0,0,0
1307,0.06,1645449190.609375,P19,D07,0,0,0
1308,-0.23,1645449190.625,P19,D07,0,0,0
1309,-0.4,1645449190.640625,P19,D07,0,0,0
1310,-0.42,1645449190.65625,P19,D07,0,0,0
1311,-0.31,1645449190.671875,P19,D07,0,0,0
1312,-0.22,1645449190.6875,P19,D07,0,0,0
1313,-0.22,1645449190.703125,P19,D07,0,0,0
1314,-0.33,1645449190.71875,P19,D07,0,0,0
1315,-0.45,1645449190.734375,P19,D07,0,0,0
1316,-0.5,1645449190.75,P19,D07,0,0,0
1317,-0.44,1645449190.765625,P19,D07,0,0,0
1318,-0.31,1645449190.78125,P19,D07,0,0,0
1319,-0.2,1645449190.796875,P19,D07,0,0,0
1320,-0.17,1645449190.8125,P19,D07,0,0,0
1321,-0.24,1645449190.828125,P19,D07,0,0,0
1322,-0.34,1645449190.84375,P19,D07,0,0,0
1323,-0.41,1645449190.859375,P19,D07,0,0,0
1324,-0.44,1645449190.875,P19,D07,0,0,0
1325,-0.44,1645449190.890625,P19,D07,0,0,0
1326,-0.5,1645449190.90625,P19,D07,0,0,0
1327,-0.64,1645449190.921875,P19,D07,0,0,0
1328,-0.85,1645449190.9375,P19,D07,0,0,0
1329,-1.05,1645449190.953125,P19,D07,0,0,0
1330,-1.12,1645449190.96875,P19,D07,0,0,0
1331,-1.0,1645449190.984375,P19,D07,0,0,0
1332,-0.65,1645449191.0,P19,D07,0,0,0
1333,-0.15,1645449191.015625,P19,D07,0,0,0
1334,0.33,1645449191.03125,P19,D07,0,0,0
1335,0.64,1645449191.046875,P19,D07,0,0,0
1336,0.68,1645449191.0625,P19,D07,0,0,0
1337,0.46,1645449191.078125,P19,D07,0,0,0
1338,0.16,1645449191.09375,P19,D07,0,0,0
1339,-0.04,1645449191.109375,P19,D07,0,0,0
1340,-0.0,1645449191.125,P19,D07,0,0,0
1341,0.29,1645449191.140625,P19,D07,0,0,0
1342,0.7,1645449191.15625,P19,D07,0,0,0
1343,1.04,1645449191.171875,P19,D07,0,0,0
1344,1.13,1645449191.1875,P19,D07,0,0,0
1345,0.95,1645449191.203125,P19,D07,0,0,0
1346,0.59,1645449191.21875,P19,D07,0,0,0
1347,0.22,1645449191.234375,P19,D07,0,0,0
1348,-0.02,1645449191.25,P19,D07,0,0,0
1349,-0.09,1645449191.265625,P19,D07,0,0,0
1350,-0.06,1645449191.28125,P19,D07,0,0,0
1351,-0.03,1645449191.296875,P19,D07,0,0,0
1352,-0.09,1645449191.3125,P19,D07,0,0,0
1353,-0.21,1645449191.328125,P19,D07,0,0,0
1354,-0.34,1645449191.34375,P19,D07,0,0,0
1355,-0.4,1645449191.359375,P19,D07,0,0,0
1356,-0.34,1645449191.375,P19,D07,0,0,0
1357,-0.21,1645449191.390625,P19,D07,0,0,0
1358,-0.14,1645449191.40625,P19,D07,0,0,0
1359,-0.22,1645449191.421875,P19,D07,0,0,0
1360,-0.43,1645449191.4375,P19,D07,0,0,0
1361,-0.69,1645449191.453125,P19,D07,0,0,0
1362,-0.82,1645449191.46875,P19,D07,0,0,0
1363,-0.74,1645449191.484375,P19,D07,0,0,0
1364,-0.46,1645449191.5,P19,D07,0,0,0
1365,-0.15,1645449191.515625,P19,D07,0,0,0
1366,0.02,1645449191.53125,P19,D07,0,0,0
1367,-0.04,1645449191.546875,P19,D07,0,0,0
1368,-0.26,1645449191.5625,P19,D07,0,0,0
1369,-0.45,1645449191.578125,P19,D07,0,0,0
1370,-0.44,1645449191.59375,P19,D07,0,0,0
1371,-0.15,1645449191.609375,P19,D07,0,0,0
1372,0.32,1645449191.625,P19,D07,0,0,0
1373,0.8,1645449191.640625,P19,D07,0,0,0
1374,1.1,1645449191.65625,P19,D07,0,0,0
1375,1.17,1645449191.671875,P19,D07,0,0,0
1376,1.07,1645449191.6875,P19,D07,0,0,0
1377,0.92,1645449191.703125,P19,D07,0,0,0
1378,0.8,1645449191.71875,P19,D07,0,0,0
1379,0.71,1645449191.734375,P19,D07,0,0,0
1380,0.56,1645449191.75,P19,D07,0,0,0
1381,0.28,1645449191.765625,P19,D07,0,0,0
1382,-0.13,1645449191.78125,P19,D07,0,0,0
1383,-0.55,1645449191.796875,P19,D07,0,0,0
1384,-0.84,1645449191.8125,P19,D07,0,0,0
1385,-0.87,1645449191.828125,P19,D07,0,0,0
1386,-0.64,1645449191.84375,P19,D07,0,0,0
1387,-0.23,1645449191.859375,P19,D07,0,0,0
1388,0.16,1645449191.875,P19,D07,0,0,0
1389,0.4,1645449191.890625,P19,D07,0,0,0
1390,0.43,1645449191.90625,P19,D07,0,0,0
1391,0.3,1645449191.921875,P19,D07,0,0,0
1392,0.12,1645449191.9375,P19,D07,0,0,0
1393,0.02,1645449191.953125,P19,D07,0,0,0
1394,0.05,1645449191.96875,P19,D07,0,0,0
1395,0.21,1645449191.984375,P19,D07,0,0,0
1396,0.43,1645449192.0,P19,D07,0,0,0
1397,0.63,1645449192.015625,P19,D07,0,0,0
1398,0.76,1645449192.03125,P19,D07,0,0,0
1399,0.8,1645449192.046875,P19,D07,0,0,0
1400,0.79,1645449192.0625,P19,D07,0,0,0
1401,0.79,1645449192.078125,P19,D07,0,0,0
1402,0.81,1645449192.09375,P19,D07,0,0,0
1403,0.83,1645449192.109375,P19,D07,0,0,0
1404,0.82,1645449192.125,P19,D07,0,0,0
1405,0.72,1645449192.140625,P19,D07,0,0,0
1406,0.58,1645449192.15625,P19,D07,0,0,0
1407,0.47,1645449192.171875,P19,D07,0,0,0
1408,0.45,1645449192.1875,P19,D07,0,0,0
1409,0.53,1645449192.203125,P19,D07,0,0,0
1410,0.63,1645449192.21875,P19,D07,0,0,0
1411,0.59,1645449192.234375,P19,D07,0,0,0
1412,0.31,1645449192.25,P19,D07,0,0,0
1413,-0.19,1645449192.265625,P19,D07,0,0,0
1414,-0.74,1645449192.28125,P19,D07,0,0,0
1415,-1.12,1645449192.296875,P19,D07,0,0,0
1416,-1.18,1645449192.3125,P19,D07,0,0,0
1417,-0.92,1645449192.328125,P19,D07,0,0,0
1418,-0.52,1645449192.34375,P19,D07,0,0,0
1419,-0.22,1645449192.359375,P19,D07,0,0,0
1420,-0.19,1645449192.375,P19,D07,0,0,0
1421,-0.41,1645449192.390625,P19,D07,0,0,0
1422,-0.74,1645449192.40625,P19,D07,0,0,0
1423,-0.96,1645449192.421875,P19,D07,0,0,0
1424,-0.95,1645449192.4375,P19,D07,0,0,0
1425,-0.7,1645449192.453125,P19,D07,0,0,0
1426,-0.32,1645449192.46875,P19,D07,0,0,0
1427,0.06,1645449192.484375,P19,D07,0,0,0
1428,0.35,1645449192.5,P19,D07,0,0,0
1429,0.53,1645449192.515625,P19,D07,0,0,0
1430,0.63,1645449192.53125,P19,D07,0,0,0
1431,0.71,1645449192.546875,P19,D07,0,0,0
1432,0.81,1645449192.5625,P19,D07,0,0,0
1433,0.89,1645449192.578125,P19,D07,0,0,0
1434,0.93,1645449192.59375,P19,D07,0,0,0
1435,0.89,1645449192.609375,P19,D07,0,0,0
1436,0.75,1645449192.625,P19,D07,0,0,0
1437,0.54,1645449192.640625,P19,D07,0,0,0
1438,0.28,1645449192.65625,P19,D07,0,0,0
1439,0.01,1645449192.671875,P19,D07,0,0,0
1440,-0.23,1645449192.6875,P19,D07,0,0,0
1441,-0.44,1645449192.703125,P19,D07,0,0,0
1442,-0.58,1645449192.71875,P19,D07,0,0,0
1443,-0.67,1645449192.734375,P19,D07,0,0,0
1444,-0.7,1645449192.75,P19,D07,0,0,0
1445,-0.68,1645449192.765625,P19,D07,0,0,0
1446,-0.62,1645449192.78125,P19,D07,0,0,0
1447,-0.54,1645449192.796875,P19,D07,0,0,0
1448,-0.45,1645449192.8125,P19,D07,0,0,0
1449,-0.39,1645449192.828125,P19,D07,0,0,0
1450,-0.34,1645449192.84375,P19,D07,0,0,0
1451,-0.28,1645449192.859375,P19,D07,0,0,0
1452,-0.2,1645449192.875,P19,D07,0,0,0
1453,-0.07,1645449192.890625,P19,D07,0,0,0
1454,0.12,1645449192.90625,P19,D07,0,0,0
1455,0.34,1645449192.921875,P19,D07,0,0,0
1456,0.54,1645449192.9375,P19,D07,0,0,0
1457,0.66,1645449192.953125,P19,D07,0,0,0
1458,0.67,1645449192.96875,P19,D07,0,0,0
1459,0.56,1645449192.984375,P19,D07,0,0,0
1460,0.35,1645449193.0,P19,D07,0,0,0
1461,0.09,1645449193.015625,P19,D07,0,0,0
1462,-0.2,1645449193.03125,P19,D07,0,0,0
1463,-0.49,1645449193.046875,P19,D07,0,0,0
1464,-0.75,1645449193.0625,P19,D07,0,0,0
1465,-0.93,1645449193.078125,P19,D07,0,0,0
1466,-1.0,1645449193.09375,P19,D07,0,0,0
1467,-0.96,1645449193.109375,P19,D07,0,0,0
1468,-0.83,1645449193.125,P19,D07,0,0,0
1469,-0.66,1645449193.140625,P19,D07,0,0,0
1470,-0.48,1645449193.15625,P19,D07,0,0,0
1471,-0.34,1645449193.171875,P19,D07,0,0,0
1472,-0.27,1645449193.1875,P19,D07,0,0,0
1473,-0.3,1645449193.203125,P19,D07,0,0,0
1474,-0.4,1645449193.21875,P19,D07,0,0,0
1475,-0.54,1645449193.234375,P19,D07,0,0,0
1476,-0.63,1645449193.25,P19,D07,0,0,0
1477,-0.59,1645449193.265625,P19,D07,0,0,0
1478,-0.36,1645449193.28125,P19,D07,0,0,0
1479,0.01,1645449193.296875,P19,D07,0,0,0
1480,0.39,1645449193.3125,P19,D07,0,0,0
1481,0.64,1645449193.328125,P19,D07,0,0,0
1482,0.68,1645449193.34375,P19,D07,0,0,0
1483,0.56,1645449193.359375,P19,D07,0,0,0
1484,0.45,1645449193.375,P19,D07,0,0,0
1485,0.51,1645449193.390625,P19,D07,0,0,0
1486,0.81,1645449193.40625,P19,D07,0,0,0
1487,1.29,1645449193.421875,P19,D07,0,0,0
1488,1.77,1645449193.4375,P19,D07,0,0,0
1489,2.05,1645449193.453125,P19,D07,0,0,0
1490,2.01,1645449193.46875,P19,D07,0,0,0
1491,1.7,1645449193.484375,P19,D07,0,0,0
1492,1.24,1645449193.5,P19,D07,0,0,0
1493,0.8,1645449193.515625,P19,D07,0,0,0
1494,0.51,1645449193.53125,P19,D07,0,0,0
1495,0.41,1645449193.546875,P19,D07,0,0,0
1496,0.46,1645449193.5625,P19,D07,0,0,0
1497,0.56,1645449193.578125,P19,D07,0,0,0
1498,0.6,1645449193.59375,P19,D07,0,0,0
1499,0.55,1645449193.609375,P19,D07,0,0,0
1500,0.41,1645449193.625,P19,D07,0,0,0
1501,0.27,1645449193.640625,P19,D07,0,0,0
1502,0.22,1645449193.65625,P19,D07,0,0,0
1503,0.31,1645449193.671875,P19,D07,0,0,0
1504,0.5,1645449193.6875,P19,D07,0,0,0
1505,0.65,1645449193.703125,P19,D07,0,0,0
1506,0.65,1645449193.71875,P19,D07,0,0,0
1507,0.44,1645449193.734375,P19,D07,0,0,0
1508,0.08,1645449193.75,P19,D07,0,0,0
1509,-0.33,1645449193.765625,P19,D07,0,0,0
1510,-0.65,1645449193.78125,P19,D07,0,0,0
1511,-0.8,1645449193.796875,P19,D07,0,0,0
1512,-0.82,1645449193.8125,P19,D07,0,0,0
1513,-0.75,1645449193.828125,P19,D07,0,0,0
1514,-0.67,1645449193.84375,P19,D07,0,0,0
1515,-0.62,1645449193.859375,P19,D07,0,0,0
1516,-0.6,1645449193.875,P19,D07,0,0,0
1517,-0.6,1645449193.890625,P19,D07,0,0,0
1518,-0.61,1645449193.90625,P19,D07,0,0,0
1519,-0.64,1645449193.921875,P19,D07,0,0,0
1520,-0.7,1645449193.9375,P19,D07,0,0,0
1521,-0.79,1645449193.953125,P19,D07,0,0,0
1522,-0.92,1645449193.96875,P19,D07,0,0,0
1523,-1.03,1645449193.984375,P19,D07,0,0,0
1524,-1.1,1645449194.0,P19,D07,0,0,0
1525,-1.09,1645449194.015625,P19,D07,0,0,0
1526,-0.98,1645449194.03125,P19,D07,0,0,0
1527,-0.81,1645449194.046875,P19,D07,0,0,0
1528,-0.62,1645449194.0625,P19,D07,0,0,0
1529,-0.5,1645449194.078125,P19,D07,0,0,0
1530,-0.48,1645449194.09375,P19,D07,0,0,0
1531,-0.55,1645449194.109375,P19,D07,0,0,0
1532,-0.64,1645449194.125,P19,D07,0,0,0
1533,-0.68,1645449194.140625,P19,D07,0,0,0
1534,-0.6,1645449194.15625,P19,D07,0,0,0
1535,-0.42,1645449194.171875,P19,D07,0,0,0
1536,-0.2,1645449194.1875,P19,D07,0,0,0
1537,-0.02,1645449194.203125,P19,D07,0,0,0
1538,0.05,1645449194.21875,P19,D07,0,0,0
1539,-0.02,1645449194.234375,P19,D07,0,0,0
1540,-0.23,1645449194.25,P19,D07,0,0,0
1541,-0.49,1645449194.265625,P19,D07,0,0,0
1542,-0.74,1645449194.28125,P19,D07,0,0,0
1543,-0.91,1645449194.296875,P19,D07,0,0,0
1544,-1.0,1645449194.3125,P19,D07,0,0,0
1545,-1.01,1645449194.328125,P19,D07,0,0,0
1546,-0.99,1645449194.34375,P19,D07,0,0,0
1547,-0.97,1645449194.359375,P19,D07,0,0,0
1548,-0.96,1645449194.375,P19,D07,0,0,0
1549,-0.96,1645449194.390625,P19,D07,0,0,0
1550,-0.93,1645449194.40625,P19,D07,0,0,0
1551,-0.88,1645449194.421875,P19,D07,0,0,0
1552,-0.8,1645449194.4375,P19,D07,0,0,0
1553,-0.7,1645449194.453125,P19,D07,0,0,0
1554,-0.59,1645449194.46875,P19,D07,0,0,0
1555,-0.46,1645449194.484375,P19,D07,0,0,0
1556,-0.32,1645449194.5,P19,D07,0,0,0
1557,-0.16,1645449194.515625,P19,D07,0,0,0
1558,-0.01,1645449194.53125,P19,D07,0,0,0
1559,0.13,1645449194.546875,P19,D07,0,0,0
1560,0.24,1645449194.5625,P19,D07,0,0,0
1561,0.35,1645449194.578125,P19,D07,0,0,0
1562,0.45,1645449194.59375,P19,D07,0,0,0
1563,0.57,1645449194.609375,P19,D07,0,0,0
1564,0.69,1645449194.625,P19,D07,0,0,0
1565,0.76,1645449194.640625,P19,D07,0,0,0
1566,0.77,1645449194.65625,P19,D07,0,0,0
1567,0.66,1645449194.671875,P19,D07,0,0,0
1568,0.45,1645449194.6875,P19,D07,0,0,0
1569,0.17,1645449194.703125,P19,D07,0,0,0
1570,-0.12,1645449194.71875,P19,D07,0,0,0
1571,-0.37,1645449194.734375,P19,D07,0,0,0
1572,-0.52,1645449194.75,P19,D07,0,0,0
1573,-0.55,1645449194.765625,P19,D07,0,0,0
1574,-0.44,1645449194.78125,P19,D07,0,0,0
1575,-0.19,1645449194.796875,P19,D07,0,0,0
1576,0.17,1645449194.8125,P19,D07,0,0,0
1577,0.6,1645449194.828125,P19,D07,0,0,0
1578,0.99,1645449194.84375,P19,D07,0,0,0
1579,1.23,1645449194.859375,P19,D07,0,0,0
1580,1.22,1645449194.875,P19,D07,0,0,0
1581,0.93,1645449194.890625,P19,D07,0,0,0
1582,0.43,1645449194.90625,P19,D07,0,0,0
1583,-0.14,1645449194.921875,P19,D07,0,0,0
1584,-0.62,1645449194.9375,P19,D07,0,0,0
1585,-0.89,1645449194.953125,P19,D07,0,0,0
1586,-0.93,1645449194.96875,P19,D07,0,0,0
1587,-0.81,1645449194.984375,P19,D07,0,0,0
1588,-0.67,1645449195.0,P19,D07,0,0,0
1589,-0.6,1645449195.015625,P19,D07,0,0,0
1590,-0.66,1645449195.03125,P19,D07,0,0,0
1591,-0.81,1645449195.046875,P19,D07,0,0,0
1592,-0.94,1645449195.0625,P19,D07,0,0,0
1593,-0.97,1645449195.078125,P19,D07,0,0,0
1594,-0.82,1645449195.09375,P19,D07,0,0,0
1595,-0.53,1645449195.109375,P19,D07,0,0,0
1596,-0.16,1645449195.125,P19,D07,0,0,0
1597,0.19,1645449195.140625,P19,D07,0,0,0
1598,0.47,1645449195.15625,P19,D07,0,0,0
1599,0.64,1645449195.171875,P19,D07,0,0,0
1600,0.72,1645449195.1875,P19,D07,0,0,0
1601,0.74,1645449195.203125,P19,D07,0,0,0
1602,0.71,1645449195.21875,P19,D07,0,0,0
1603,0.6,1645449195.234375,P19,D07,0,0,0
1604,0.42,1645449195.25,P19,D07,0,0,0
1605,0.22,1645449195.265625,P19,D07,0,0,0
1606,0.05,1645449195.28125,P19,D07,0,0,0
1607,0.01,1645449195.296875,P19,D07,0,0,0
1608,0.14,1645449195.3125,P19,D07,0,0,0
1609,0.41,1645449195.328125,P19,D07,0,0,0
1610,0.76,1645449195.34375,P19,D07,0,0,0
1611,1.09,1645449195.359375,P19,D07,0,0,0
1612,1.35,1645449195.375,P19,D07,0,0,0
1613,1.52,1645449195.390625,P19,D07,0,0,0
1614,1.59,1645449195.40625,P19,D07,0,0,0
1615,1.59,1645449195.421875,P19,D07,0,0,0
1616,1.52,1645449195.4375,P19,D07,0,0,0
1617,1.39,1645449195.453125,P19,D07,0,0,0
1618,1.26,1645449195.46875,P19,D07,0,0,0
1619,1.21,1645449195.484375,P19,D07,0,0,0
1620,1.3,1645449195.5,P19,D07,0,0,0
1621,1.53,1645449195.515625,P19,D07,0,0,0
1622,1.85,1645449195.53125,P19,D07,0,0,0
1623,2.14,1645449195.546875,P19,D07,0,0,0
1624,2.31,1645449195.5625,P19,D07,0,0,0
1625,2.32,1645449195.578125,P19,D07,0,0,0
1626,2.17,1645449195.59375,P19,D07,0,0,0
1627,1.88,1645449195.609375,P19,D07,0,0,0
1628,1.49,1645449195.625,P19,D07,0,0,0
1629,0.99,1645449195.640625,P19,D07,0,0,0
1630,0.4,1645449195.65625,P19,D07,0,0,0
1631,-0.24,1645449195.671875,P19,D07,0,0,0
1632,-0.84,1645449195.6875,P19,D07,0,0,0
1633,-1.27,1645449195.703125,P19,D07,0,0,0
1634,-1.44,1645449195.71875,P19,D07,0,0,0
1635,-1.37,1645449195.734375,P19,D07,0,0,0
1636,-1.14,1645449195.75,P19,D07,0,0,0
1637,-0.88,1645449195.765625,P19,D07,0,0,0
1638,-0.72,1645449195.78125,P19,D07,0,0,0
1639,-0.71,1645449195.796875,P19,D07,0,0,0
1640,-0.83,1645449195.8125,P19,D07,0,0,0
1641,-1.03,1645449195.828125,P19,D07,0,0,0
1642,-1.24,1645449195.84375,P19,D07,0,0,0
1643,-1.4,1645449195.859375,P19,D07,0,0,0
1644,-1.5,1645449195.875,P19,D07,0,0,0
1645,-1.51,1645449195.890625,P19,D07,0,0,0
1646,-1.42,1645449195.90625,P19,D07,0,0,0
1647,-1.25,1645449195.921875,P19,D07,0,0,0
1648,-0.99,1645449195.9375,P19,D07,0,0,0
1649,-0.71,1645449195.953125,P19,D07,0,0,0
1650,-0.46,1645449195.96875,P19,D07,0,0,0
1651,-0.29,1645449195.984375,P19,D07,0,0,0
1652,-0.19,1645449196.0,P19,D07,0,0,0
1653,-0.15,1645449196.015625,P19,D07,0,0,0
1654,-0.15,1645449196.03125,P19,D07,0,0,0
1655,-0.19,1645449196.046875,P19,D07,0,0,0
1656,-0.29,1645449196.0625,P19,D07,0,0,0
1657,-0.44,1645449196.078125,P19,D07,0,0,0
1658,-0.62,1645449196.09375,P19,D07,0,0,0
1659,-0.78,1645449196.109375,P19,D07,0,0,0
1660,-0.88,1645449196.125,P19,D07,0,0,0
1661,-0.86,1645449196.140625,P19,D07,0,0,0
1662,-0.73,1645449196.15625,P19,D07,0,0,0
1663,-0.51,1645449196.171875,P19,D07,0,0,0
1664,-0.22,1645449196.1875,P19,D07,0,0,0
1665,0.11,1645449196.203125,P19,D07,0,0,0
1666,0.45,1645449196.21875,P19,D07,0,0,0
1667,0.76,1645449196.234375,P19,D07,0,0,0
1668,1.01,1645449196.25,P19,D07,0,0,0
1669,1.14,1645449196.265625,P19,D07,0,0,0
1670,1.11,1645449196.28125,P19,D07,0,0,0
1671,0.92,1645449196.296875,P19,D07,0,0,0
1672,0.64,1645449196.3125,P19,D07,0,0,0
1673,0.32,1645449196.328125,P19,D07,0,0,0
1674,0.01,1645449196.34375,P19,D07,0,0,0
1675,-0.24,1645449196.359375,P19,D07,0,0,0
1676,-0.42,1645449196.375,P19,D07,0,0,0
1677,-0.53,1645449196.390625,P19,D07,0,0,0
1678,-0.55,1645449196.40625,P19,D07,0,0,0
1679,-0.5,1645449196.421875,P19,D07,0,0,0
1680,-0.35,1645449196.4375,P19,D07,0,0,0
1681,-0.16,1645449196.453125,P19,D07,0,0,0
1682,0.08,1645449196.46875,P19,D07,0,0,0
1683,0.34,1645449196.484375,P19,D07,0,0,0
1684,0.6,1645449196.5,P19,D07,0,0,0
1685,0.86,1645449196.515625,P19,D07,0,0,0
1686,1.08,1645449196.53125,P19,D07,0,0,0
1687,1.2,1645449196.546875,P19,D07,0,0,0
1688,1.2,1645449196.5625,P19,D07,0,0,0
1689,1.05,1645449196.578125,P19,D07,0,0,0
1690,0.81,1645449196.59375,P19,D07,0,0,0
1691,0.58,1645449196.609375,P19,D07,0,0,0
1692,0.46,1645449196.625,P19,D07,0,0,0
1693,0.52,1645449196.640625,P19,D07,0,0,0
1694,0.7,1645449196.65625,P19,D07,0,0,0
1695,0.92,1645449196.671875,P19,D07,0,0,0
1696,1.06,1645449196.6875,P19,D07,0,0,0
1697,1.04,1645449196.703125,P19,D07,0,0,0
1698,0.84,1645449196.71875,P19,D07,0,0,0
1699,0.54,1645449196.734375,P19,D07,0,0,0
1700,0.2,1645449196.75,P19,D07,0,0,0
1701,-0.1,1645449196.765625,P19,D07,0,0,0
1702,-0.33,1645449196.78125,P19,D07,0,0,0
1703,-0.51,1645449196.796875,P19,D07,0,0,0
1704,-0.65,1645449196.8125,P19,D07,0,0,0
1705,-0.72,1645449196.828125,P19,D07,0,0,0
1706,-0.73,1645449196.84375,P19,D07,0,0,0
1707,-0.68,1645449196.859375,P19,D07,0,0,0
1708,-0.61,1645449196.875,P19,D07,0,0,0
1709,-0.58,1645449196.890625,P19,D07,0,0,0
1710,-0.63,1645449196.90625,P19,D07,0,0,0
1711,-0.78,1645449196.921875,P19,D07,0,0,0
1712,-0.98,1645449196.9375,P19,D07,0,0,0
1713,-1.16,1645449196.953125,P19,D07,0,0,0
1714,-1.24,1645449196.96875,P19,D07,0,0,0
1715,-1.17,1645449196.984375,P19,D07,0,0,0
1716,-0.93,1645449197.0,P19,D07,0,0,0
1717,-0.56,1645449197.015625,P19,D07,0,0,0
1718,-0.11,1645449197.03125,P19,D07,0,0,0
1719,0.34,1645449197.046875,P19,D07,0,0,0
1720,0.68,1645449197.0625,P19,D07,0,0,0
1721,0.81,1645449197.078125,P19,D07,0,0,0
1722,0.69,1645449197.09375,P19,D07,0,0,0
1723,0.36,1645449197.109375,P19,D07,0,0,0
1724,-0.06,1645449197.125,P19,D07,0,0,0
1725,-0.4,1645449197.140625,P19,D07,0,0,0
1726,-0.54,1645449197.15625,P19,D07,0,0,0
1727,-0.46,1645449197.171875,P19,D07,0,0,0
1728,-0.24,1645449197.1875,P19,D07,0,0,0
1729,-0.0,1645449197.203125,P19,D07,0,0,0
1730,0.15,1645449197.21875,P19,D07,0,0,0
1731,0.18,1645449197.234375,P19,D07,0,0,0
1732,0.14,1645449197.25,P19,D07,0,0,0
1733,0.08,1645449197.265625,P19,D07,0,0,0
1734,0.03,1645449197.28125,P19,D07,0,0,0
1735,-0.0,1645449197.296875,P19,D07,0,0,0
1736,-0.07,1645449197.3125,P19,D07,0,0,0
1737,-0.16,1645449197.328125,P19,D07,0,0,0
1738,-0.23,1645449197.34375,P19,D07,0,0,0
1739,-0.23,1645449197.359375,P19,D07,0,0,0
1740,-0.09,1645449197.375,P19,D07,0,0,0
1741,0.17,1645449197.390625,P19,D07,0,0,0
1742,0.49,1645449197.40625,P19,D07,0,0,0
1743,0.77,1645449197.421875,P19,D07,0,0,0
1744,0.91,1645449197.4375,P19,D07,0,0,0
1745,0.86,1645449197.453125,P19,D07,0,0,0
1746,0.65,1645449197.46875,P19,D07,0,0,0
1747,0.36,1645449197.484375,P19,D07,0,0,0
1748,0.08,1645449197.5,P19,D07,0,0,0
1749,-0.11,1645449197.515625,P19,D07,0,0,0
1750,-0.2,1645449197.53125,P19,D07,0,0,0
1751,-0.22,1645449197.546875,P19,D07,0,0,0
1752,-0.2,1645449197.5625,P19,D07,0,0,0
1753,-0.2,1645449197.578125,P19,D07,0,0,0
1754,-0.24,1645449197.59375,P19,D07,0,0,0
1755,-0.29,1645449197.609375,P19,D07,0,0,0
1756,-0.33,1645449197.625,P19,D07,0,0,0
1757,-0.31,1645449197.640625,P19,D07,0,0,0
1758,-0.22,1645449197.65625,P19,D07,0,0,0
1759,-0.05,1645449197.671875,P19,D07,0,0,0
1760,0.19,1645449197.6875,P19,D07,0,0,0
1761,0.49,1645449197.703125,P19,D07,0,0,0
1762,0.85,1645449197.71875,P19,D07,0,0,0
1763,1.23,1645449197.734375,P19,D07,0,0,0
1764,1.53,1645449197.75,P19,D07,0,0,0
1765,1.65,1645449197.765625,P19,D07,0,0,0
1766,1.48,1645449197.78125,P19,D07,0,0,0
1767,1.04,1645449197.796875,P19,D07,0,0,0
1768,0.41,1645449197.8125,P19,D07,0,0,0
1769,-0.24,1645449197.828125,P19,D07,0,0,0
1770,-0.71,1645449197.84375,P19,D07,0,0,0
1771,-0.88,1645449197.859375,P19,D07,0,0,0
1772,-0.74,1645449197.875,P19,D07,0,0,0
1773,-0.37,1645449197.890625,P19,D07,0,0,0
1774,0.08,1645449197.90625,P19,D07,0,0,0
1775,0.48,1645449197.921875,P19,D07,0,0,0
1776,0.75,1645449197.9375,P19,D07,0,0,0
1777,0.85,1645449197.953125,P19,D07,0,0,0
1778,0.79,1645449197.96875,P19,D07,0,0,0
1779,0.61,1645449197.984375,P19,D07,0,0,0
1780,0.38,1645449198.0,P19,D07,0,0,0
1781,0.14,1645449198.015625,P19,D07,0,0,0
1782,-0.07,1645449198.03125,P19,D07,0,0,0
1783,-0.22,1645449198.046875,P19,D07,0,0,0
1784,-0.3,1645449198.0625,P19,D07,0,0,0
1785,-0.33,1645449198.078125,P19,D07,0,0,0
1786,-0.32,1645449198.09375,P19,D07,0,0,0
1787,-0.3,1645449198.109375,P19,D07,0,0,0
1788,-0.31,1645449198.125,P19,D07,0,0,0
1789,-0.38,1645449198.140625,P19,D07,0,0,0
1790,-0.54,1645449198.15625,P19,D07,0,0,0
1791,-0.74,1645449198.171875,P19,D07,0,0,0
1792,-0.9,1645449198.1875,P19,D07,0,0,0
1793,-0.94,1645449198.203125,P19,D07,0,0,0
1794,-0.82,1645449198.21875,P19,D07,0,0,0
1795,-0.63,1645449198.234375,P19,D07,0,0,0
1796,-0.47,1645449198.25,P19,D07,0,0,0
1797,-0.46,1645449198.265625,P19,D07,0,0,0
1798,-0.6,1645449198.28125,P19,D07,0,0,0
1799,-0.8,1645449198.296875,P19,D07,0,0,0
1800,-0.93,1645449198.3125,P19,D07,0,0,0
1801,-0.91,1645449198.328125,P19,D07,0,0,0
1802,-0.73,1645449198.34375,P19,D07,0,0,0
1803,-0.48,1645449198.359375,P19,D07,0,0,0
1804,-0.25,1645449198.375,P19,D07,0,0,0
1805,-0.09,1645449198.390625,P19,D07,0,0,0
1806,-0.01,1645449198.40625,P19,D07,0,0,0
1807,0.04,1645449198.421875,P19,D07,0,0,0
1808,0.06,1645449198.4375,P19,D07,0,0,0
1809,0.06,1645449198.453125,P19,D07,0,0,0
1810,0.03,1645449198.46875,P19,D07,0,0,0
1811,-0.05,1645449198.484375,P19,D07,0,0,0
1812,-0.11,1645449198.5,P19,D07,0,0,0
1813,-0.14,1645449198.515625,P19,D07,0,0,0
1814,-0.09,1645449198.53125,P19,D07,0,0,0
1815,-0.02,1645449198.546875,P19,D07,0,0,0
1816,0.02,1645449198.5625,P19,D07,0,0,0
1817,-0.01,1645449198.578125,P19,D07,0,0,0
1818,-0.11,1645449198.59375,P19,D07,0,0,0
1819,-0.2,1645449198.609375,P19,D07,0,0,0
1820,-0.21,1645449198.625,P19,D07,0,0,0
1821,-0.08,1645449198.640625,P19,D07,0,0,0
1822,0.17,1645449198.65625,P19,D07,0,0,0
1823,0.48,1645449198.671875,P19,D07,0,0,0
1824,0.76,1645449198.6875,P19,D07,0,0,0
1825,0.96,1645449198.703125,P19,D07,0,0,0
1826,1.05,1645449198.71875,P19,D07,0,0,0
1827,1.02,1645449198.734375,P19,D07,0,0,0
1828,0.87,1645449198.75,P19,D07,0,0,0
1829,0.61,1645449198.765625,P19,D07,0,0,0
1830,0.28,1645449198.78125,P19,D07,0,0,0
1831,-0.08,1645449198.796875,P19,D07,0,0,0
1832,-0.36,1645449198.8125,P19,D07,0,0,0
1833,-0.49,1645449198.828125,P19,D07,0,0,0
1834,-0.47,1645449198.84375,P19,D07,0,0,0
1835,-0.34,1645449198.859375,P19,D07,0,0,0
1836,-0.18,1645449198.875,P19,D07,0,0,0
1837,-0.07,1645449198.890625,P19,D07,0,0,0
1838,-0.03,1645449198.90625,P19,D07,0,0,0
1839,-0.01,1645449198.921875,P19,D07,0,0,0
1840,0.03,1645449198.9375,P19,D07,0,0,0
1841,0.11,1645449198.953125,P19,D07,0,0,0
1842,0.23,1645449198.96875,P19,D07,0,0,0
1843,0.32,1645449198.984375,P19,D07,0,0,0
1844,0.35,1645449199.0,P19,D07,0,0,0
1845,0.32,1645449199.015625,P19,D07,0,0,0
1846,0.23,1645449199.03125,P19,D07,0,0,0
1847,0.1,1645449199.046875,P19,D07,0,0,0
1848,-0.06,1645449199.0625,P19,D07,0,0,0
1849,-0.21,1645449199.078125,P19,D07,0,0,0
1850,-0.3,1645449199.09375,P19,D07,0,0,0
1851,-0.28,1645449199.109375,P19,D07,0,0,0
1852,-0.12,1645449199.125,P19,D07,0,0,0
1853,0.11,1645449199.140625,P19,D07,0,0,0
1854,0.29,1645449199.15625,P19,D07,0,0,0
1855,0.27,1645449199.171875,P19,D07,0,0,0
1856,0.01,1645449199.1875,P19,D07,0,0,0
1857,-0.43,1645449199.203125,P19,D07,0,0,0
1858,-0.86,1645449199.21875,P19,D07,0,0,0
1859,-1.1,1645449199.234375,P19,D07,0,0,0
1860,-1.04,1645449199.25,P19,D07,0,0,0
1861,-0.74,1645449199.265625,P19,D07,0,0,0
1862,-0.34,1645449199.28125,P19,D07,0,0,0
1863,-0.02,1645449199.296875,P19,D07,0,0,0
1864,0.13,1645449199.3125,P19,D07,0,0,0
1865,0.12,1645449199.328125,P19,D07,0,0,0
1866,0.06,1645449199.34375,P19,D07,0,0,0
1867,0.03,1645449199.359375,P19,D07,0,0,0
1868,0.05,1645449199.375,P19,D07,0,0,0
1869,0.06,1645449199.390625,P19,D07,0,0,0
1870,-0.02,1645449199.40625,P19,D07,0,0,0
1871,-0.21,1645449199.421875,P19,D07,0,0,0
1872,-0.46,1645449199.4375,P19,D07,0,0,0
1873,-0.64,1645449199.453125,P19,D07,0,0,0
1874,-0.64,1645449199.46875,P19,D07,0,0,0
1875,-0.42,1645449199.484375,P19,D07,0,0,0
1876,-0.08,1645449199.5,P19,D07,0,0,0
1877,0.27,1645449199.515625,P19,D07,0,0,0
1878,0.49,1645449199.53125,P19,D07,0,0,0
1879,0.51,1645449199.546875,P19,D07,0,0,0
1880,0.37,1645449199.5625,P19,D07,0,0,0
1881,0.16,1645449199.578125,P19,D07,0,0,0
1882,0.0,1645449199.59375,P19,D07,0,0,0
1883,-0.04,1645449199.609375,P19,D07,0,0,0
1884,0.05,1645449199.625,P19,D07,0,0,0
1885,0.23,1645449199.640625,P19,D07,0,0,0
1886,0.43,1645449199.65625,P19,D07,0,0,0
1887,0.59,1645449199.671875,P19,D07,0,0,0
1888,0.65,1645449199.6875,P19,D07,0,0,0
1889,0.58,1645449199.703125,P19,D07,0,0,0
1890,0.4,1645449199.71875,P19,D07,0,0,0
1891,0.14,1645449199.734375,P19,D07,0,0,0
1892,-0.15,1645449199.75,P19,D07,0,0,0
1893,-0.38,1645449199.765625,P19,D07,0,0,0
1894,-0.5,1645449199.78125,P19,D07,0,0,0
1895,-0.48,1645449199.796875,P19,D07,0,0,0
1896,-0.32,1645449199.8125,P19,D07,0,0,0
1897,-0.09,1645449199.828125,P19,D07,0,0,0
1898,0.14,1645449199.84375,P19,D07,0,0,0
1899,0.29,1645449199.859375,P19,D07,0,0,0
1900,0.32,1645449199.875,P19,D07,0,0,0
1901,0.22,1645449199.890625,P19,D07,0,0,0
1902,0.03,1645449199.90625,P19,D07,0,0,0
1903,-0.17,1645449199.921875,P19,D07,0,0,0
1904,-0.34,1645449199.9375,P19,D07,0,0,0
1905,-0.45,1645449199.953125,P19,D07,0,0,0
1906,-0.52,1645449199.96875,P19,D07,0,0,0
1907,-0.6,1645449199.984375,P19,D07,0,0,0
1908,-0.67,1645449200.0,P19,D07,0,0,0
1909,-0.68,1645449200.015625,P19,D07,0,0,0
1910,-0.55,1645449200.03125,P19,D07,0,0,0
1911,-0.23,1645449200.046875,P19,D07,0,0,0
1912,0.22,1645449200.0625,P19,D07,0,0,0
1913,0.7,1645449200.078125,P19,D07,0,0,0
1914,1.04,1645449200.09375,P19,D07,0,0,0
1915,1.11,1645449200.109375,P19,D07,0,0,0
1916,0.9,1645449200.125,P19,D07,0,0,0
1917,0.49,1645449200.140625,P19,D07,0,0,0
1918,0.04,1645449200.15625,P19,D07,0,0,0
1919,-0.27,1645449200.171875,P19,D07,0,0,0
1920,-0.32,1645449200.1875,P19,D07,0,0,0
1921,-0.09,1645449200.203125,P19,D07,0,0,0
1922,0.35,1645449200.21875,P19,D07,0,0,0
1923,0.87,1645449200.234375,P19,D07,0,0,0
1924,1.29,1645449200.25,P19,D07,0,0,0
1925,1.47,1645449200.265625,P19,D07,0,0,0
1926,1.37,1645449200.28125,P19,D07,0,0,0
1927,1.04,1645449200.296875,P19,D07,0,0,0
1928,0.62,1645449200.3125,P19,D07,0,0,0
1929,0.26,1645449200.328125,P19,D07,0,0,0
1930,0.03,1645449200.34375,P19,D07,0,0,0
1931,-0.07,1645449200.359375,P19,D07,0,0,0
1932,-0.13,1645449200.375,P19,D07,0,0,0
1933,-0.22,1645449200.390625,P19,D07,0,0,0
1934,-0.37,1645449200.40625,P19,D07,0,0,0
1935,-0.53,1645449200.421875,P19,D07,0,0,0
1936,-0.61,1645449200.4375,P19,D07,0,0,0
1937,-0.56,1645449200.453125,P19,D07,0,0,0
1938,-0.41,1645449200.46875,P19,D07,0,0,0
1939,-0.24,1645449200.484375,P19,D07,0,0,0
1940,-0.14,1645449200.5,P19,D07,0,0,0
1941,-0.16,1645449200.515625,P19,D07,0,0,0
1942,-0.28,1645449200.53125,P19,D07,0,0,0
1943,-0.41,1645449200.546875,P19,D07,0,0,0
1944,-0.47,1645449200.5625,P19,D07,0,0,0
1945,-0.45,1645449200.578125,P19,D07,0,0,0
1946,-0.38,1645449200.59375,P19,D07,0,0,0
1947,-0.34,1645449200.609375,P19,D07,0,0,0
1948,-0.39,1645449200.625,P19,D07,0,0,0
1949,-0.57,1645449200.640625,P19,D07,0,0,0
1950,-0.85,1645449200.65625,P19,D07,0,0,0
1951,-1.17,1645449200.671875,P19,D07,0,0,0
1952,-1.45,1645449200.6875,P19,D07,0,0,0
1953,-1.62,1645449200.703125,P19,D07,0,0,0
1954,-1.61,1645449200.71875,P19,D07,0,0,0
1955,-1.42,1645449200.734375,P19,D07,0,0,0
1956,-1.1,1645449200.75,P19,D07,0,0,0
1957,-0.72,1645449200.765625,P19,D07,0,0,0
1958,-0.39,1645449200.78125,P19,D07,0,0,0
1959,-0.17,1645449200.796875,P19,D07,0,0,0
1960,-0.04,1645449200.8125,P19,D07,0,0,0
1961,0.05,1645449200.828125,P19,D07,0,0,0
1962,0.16,1645449200.84375,P19,D07,0,0,0
1963,0.36,1645449200.859375,P19,D07,0,0,0
1964,0.63,1645449200.875,P19,D07,0,0,0
1965,0.9,1645449200.890625,P19,D07,0,0,0
1966,1.09,1645449200.90625,P19,D07,0,0,0
1967,1.15,1645449200.921875,P19,D07,0,0,0
1968,1.06,1645449200.9375,P19,D07,0,0,0
1969,0.88,1645449200.953125,P19,D07,0,0,0
1970,0.69,1645449200.96875,P19,D07,0,0,0
1971,0.57,1645449200.984375,P19,D07,0,0,0
1972,0.55,1645449201.0,P19,D07,0,0,0
1973,0.62,1645449201.015625,P19,D07,0,0,0
1974,0.73,1645449201.03125,P19,D07,0,0,0
1975,0.85,1645449201.046875,P19,D07,0,0,0
1976,0.92,1645449201.0625,P19,D07,0,0,0
1977,0.93,1645449201.078125,P19,D07,0,0,0
1978,0.88,1645449201.09375,P19,D07,0,0,0
1979,0.8,1645449201.109375,P19,D07,0,0,0
1980,0.7,1645449201.125,P19,D07,0,0,0
1981,0.6,1645449201.140625,P19,D07,0,0,0
1982,0.5,1645449201.15625,P19,D07,0,0,0
1983,0.38,1645449201.171875,P19,D07,0,0,0
1984,0.22,1645449201.1875,P19,D07,0,0,0
1985,0.0,1645449201.203125,P19,D07,0,0,0
1986,-0.27,1645449201.21875,P19,D07,0,0,0
1987,-0.54,1645449201.234375,P19,D07,0,0,0
1988,-0.73,1645449201.25,P19,D07,0,0,0
1989,-0.78,1645449201.265625,P19,D07,0,0,0
1990,-0.64,1645449201.28125,P19,D07,0,0,0
1991,-0.35,1645449201.296875,P19,D07,0,0,0
1992,-0.01,1645449201.3125,P19,D07,0,0,0
1993,0.29,1645449201.328125,P19,D07,0,0,0
1994,0.48,1645449201.34375,P19,D07,0,0,0
1995,0.51,1645449201.359375,P19,D07,0,0,0
1996,0.39,1645449201.375,P19,D07,0,0,0
1997,0.15,1645449201.390625,P19,D07,0,0,0
1998,-0.21,1645449201.40625,P19,D07,0,0,0
1999,-0.61,1645449201.421875,P19,D07,0,0,0
2000,-0.98,1645449201.4375,P19,D07,0,0,0
2001,-1.2,1645449201.453125,P19,D07,0,0,0
2002,-1.18,1645449201.46875,P19,D07,0,0,0
2003,-0.89,1645449201.484375,P19,D07,0,0,0
2004,-0.41,1645449201.5,P19,D07,0,0,0
2005,0.13,1645449201.515625,P19,D07,0,0,0
2006,0.6,1645449201.53125,P19,D07,0,0,0
2007,0.9,1645449201.546875,P19,D07,0,0,0
2008,1.03,1645449201.5625,P19,D07,0,0,0
2009,1.03,1645449201.578125,P19,D07,0,0,0
2010,0.9,1645449201.59375,P19,D07,0,0,0
2011,0.68,1645449201.609375,P19,D07,0,0,0
2012,0.35,1645449201.625,P19,D07,0,0,0
2013,-0.04,1645449201.640625,P19,D07,0,0,0
2014,-0.45,1645449201.65625,P19,D07,0,0,0
2015,-0.78,1645449201.671875,P19,D07,0,0,0
2016,-0.94,1645449201.6875,P19,D07,0,0,0
2017,-0.92,1645449201.703125,P19,D07,0,0,0
2018,-0.74,1645449201.71875,P19,D07,0,0,0
2019,-0.44,1645449201.734375,P19,D07,0,0,0
2020,-0.07,1645449201.75,P19,D07,0,0,0
2021,0.31,1645449201.765625,P19,D07,0,0,0
2022,0.69,1645449201.78125,P19,D07,0,0,0
2023,1.01,1645449201.796875,P19,D07,0,0,0
2024,1.19,1645449201.8125,P19,D07,0,0,0
2025,1.15,1645449201.828125,P19,D07,0,0,0
2026,0.88,1645449201.84375,P19,D07,0,0,0
2027,0.43,1645449201.859375,P19,D07,0,0,0
2028,-0.03,1645449201.875,P19,D07,0,0,0
2029,-0.34,1645449201.890625,P19,D07,0,0,0
2030,-0.39,1645449201.90625,P19,D07,0,0,0
2031,-0.18,1645449201.921875,P19,D07,0,0,0
2032,0.14,1645449201.9375,P19,D07,0,0,0
2033,0.41,1645449201.953125,P19,D07,0,0,0
2034,0.49,1645449201.96875,P19,D07,0,0,0
2035,0.33,1645449201.984375,P19,D07,0,0,0
2036,-0.03,1645449202.0,P19,D07,0,0,0
2037,-0.47,1645449202.015625,P19,D07,0,0,0
2038,-0.91,1645449202.03125,P19,D07,0,0,0
2039,-1.28,1645449202.046875,P19,D07,0,0,0
2040,-1.55,1645449202.0625,P19,D07,0,0,0
2041,-1.72,1645449202.078125,P19,D07,0,0,0
2042,-1.72,1645449202.09375,P19,D07,0,0,0
2043,-1.52,1645449202.109375,P19,D07,0,0,0
2044,-1.11,1645449202.125,P19,D07,0,0,0
2045,-0.57,1645449202.140625,P19,D07,0,0,0
2046,-0.05,1645449202.15625,P19,D07,0,0,0
2047,0.29,1645449202.171875,P19,D07,0,0,0
2048,0.34,1645449202.1875,P19,D07,0,0,0
2049,0.12,1645449202.203125,P19,D07,0,0,0
2050,-0.26,1645449202.21875,P19,D07,0,0,0
2051,-0.63,1645449202.234375,P19,D07,0,0,0
2052,-0.82,1645449202.25,P19,D07,0,0,0
2053,-0.78,1645449202.265625,P19,D07,0,0,0
2054,-0.54,1645449202.28125,P19,D07,0,0,0
2055,-0.17,1645449202.296875,P19,D07,0,0,0
2056,0.22,1645449202.3125,P19,D07,0,0,0
2057,0.58,1645449202.328125,P19,D07,0,0,0
2058,0.86,1645449202.34375,P19,D07,0,0,0
2059,1.05,1645449202.359375,P19,D07,0,0,0
2060,1.14,1645449202.375,P19,D07,0,0,0
2061,1.1,1645449202.390625,P19,D07,0,0,0
2062,0.95,1645449202.40625,P19,D07,0,0,0
2063,0.73,1645449202.421875,P19,D07,0,0,0
2064,0.49,1645449202.4375,P19,D07,0,0,0
2065,0.3,1645449202.453125,P19,D07,0,0,0
2066,0.21,1645449202.46875,P19,D07,0,0,0
2067,0.21,1645449202.484375,P19,D07,0,0,0
2068,0.25,1645449202.5,P19,D07,0,0,0
2069,0.27,1645449202.515625,P19,D07,0,0,0
2070,0.22,1645449202.53125,P19,D07,0,0,0
2071,0.12,1645449202.546875,P19,D07,0,0,0
2072,0.01,1645449202.5625,P19,D07,0,0,0
2073,-0.04,1645449202.578125,P19,D07,0,0,0
2074,0.02,1645449202.59375,P19,D07,0,0,0
2075,0.19,1645449202.609375,P19,D07,0,0,0
2076,0.38,1645449202.625,P19,D07,0,0,0
2077,0.46,1645449202.640625,P19,D07,0,0,0
2078,0.34,1645449202.65625,P19,D07,0,0,0
2079,0.0,1645449202.671875,P19,D07,0,0,0
2080,-0.42,1645449202.6875,P19,D07,0,0,0
2081,-0.76,1645449202.703125,P19,D07,0,0,0
2082,-0.87,1645449202.71875,P19,D07,0,0,0
2083,-0.73,1645449202.734375,P19,D07,0,0,0
2084,-0.43,1645449202.75,P19,D07,0,0,0
2085,-0.15,1645449202.765625,P19,D07,0,0,0
2086,-0.04,1645449202.78125,P19,D07,0,0,0
2087,-0.14,1645449202.796875,P19,D07,0,0,0
2088,-0.36,1645449202.8125,P19,D07,0,0,0
2089,-0.59,1645449202.828125,P19,D07,0,0,0
2090,-0.71,1645449202.84375,P19,D07,0,0,0
2091,-0.69,1645449202.859375,P19,D07,0,0,0
2092,-0.58,1645449202.875,P19,D07,0,0,0
2093,-0.46,1645449202.890625,P19,D07,0,0,0
2094,-0.41,1645449202.90625,P19,D07,0,0,0
2095,-0.44,1645449202.921875,P19,D07,0,0,0
2096,-0.5,1645449202.9375,P19,D07,0,0,0
2097,-0.51,1645449202.953125,P19,D07,0,0,0
2098,-0.4,1645449202.96875,P19,D07,0,0,0
2099,-0.17,1645449202.984375,P19,D07,0,0,0
2100,0.12,1645449203.0,P19,D07,0,0,0
2101,0.36,1645449203.015625,P19,D07,0,0,0
2102,0.44,1645449203.03125,P19,D07,0,0,0
2103,0.33,1645449203.046875,P19,D07,0,0,0
2104,0.08,1645449203.0625,P19,D07,0,0,0
2105,-0.15,1645449203.078125,P19,D07,0,0,0
2106,-0.2,1645449203.09375,P19,D07,0,0,0
2107,0.04,1645449203.109375,P19,D07,0,0,0
2108,0.51,1645449203.125,P19,D07,0,0,0
2109,1.08,1645449203.140625,P19,D07,0,0,0
2110,1.54,1645449203.15625,P19,D07,0,0,0
2111,1.74,1645449203.171875,P19,D07,0,0,0
2112,1.66,1645449203.1875,P19,D07,0,0,0
2113,1.35,1645449203.203125,P19,D07,0,0,0
2114,0.93,1645449203.21875,P19,D07,0,0,0
2115,0.53,1645449203.234375,P19,D07,0,0,0
2116,0.2,1645449203.25,P19,D07,0,0,0
2117,-0.02,1645449203.265625,P19,D07,0,0,0
2118,-0.15,1645449203.28125,P19,D07,0,0,0
2119,-0.22,1645449203.296875,P19,D07,0,0,0
2120,-0.27,1645449203.3125,P19,D07,0,0,0
2121,-0.34,1645449203.328125,P19,D07,0,0,0
2122,-0.45,1645449203.34375,P19,D07,0,0,0
2123,-0.6,1645449203.359375,P19,D07,0,0,0
2124,-0.72,1645449203.375,P19,D07,0,0,0
2125,-0.74,1645449203.390625,P19,D07,0,0,0
2126,-0.63,1645449203.40625,P19,D07,0,0,0
2127,-0.39,1645449203.421875,P19,D07,0,0,0
2128,-0.1,1645449203.4375,P19,D07,0,0,0
2129,0.1,1645449203.453125,P19,D07,0,0,0
2130,0.14,1645449203.46875,P19,D07,0,0,0
2131,-0.0,1645449203.484375,P19,D07,0,0,0
2132,-0.25,1645449203.5,P19,D07,0,0,0
2133,-0.48,1645449203.515625,P19,D07,0,0,0
2134,-0.59,1645449203.53125,P19,D07,0,0,0
2135,-0.54,1645449203.546875,P19,D07,0,0,0
2136,-0.37,1645449203.5625,P19,D07,0,0,0
2137,-0.17,1645449203.578125,P19,D07,0,0,0
2138,-0.03,1645449203.59375,P19,D07,0,0,0
2139,0.0,1645449203.609375,P19,D07,0,0,0
2140,-0.05,1645449203.625,P19,D07,0,0,0
2141,-0.15,1645449203.640625,P19,D07,0,0,0
2142,-0.27,1645449203.65625,P19,D07,0,0,0
2143,-0.4,1645449203.671875,P19,D07,0,0,0
2144,-0.55,1645449203.6875,P19,D07,0,0,0
2145,-0.73,1645449203.703125,P19,D07,0,0,0
2146,-0.87,1645449203.71875,P19,D07,0,0,0
2147,-0.9,1645449203.734375,P19,D07,0,0,0
2148,-0.72,1645449203.75,P19,D07,0,0,0
2149,-0.34,1645449203.765625,P19,D07,0,0,0
2150,0.16,1645449203.78125,P19,D07,0,0,0
2151,0.61,1645449203.796875,P19,D07,0,0,0
2152,0.87,1645449203.8125,P19,D07,0,0,0
2153,0.9,1645449203.828125,P19,D07,0,0,0
2154,0.78,1645449203.84375,P19,D07,0,0,0
2155,0.66,1645449203.859375,P19,D07,0,0,0
2156,0.65,1645449203.875,P19,D07,0,0,0
2157,0.75,1645449203.890625,P19,D07,0,0,0
2158,0.91,1645449203.90625,P19,D07,0,0,0
2159,1.01,1645449203.921875,P19,D07,0,0,0
2160,0.99,1645449203.9375,P19,D07,0,0,0
2161,0.85,1645449203.953125,P19,D07,0,0,0
2162,0.62,1645449203.96875,P19,D07,0,0,0
2163,0.39,1645449203.984375,P19,D07,0,0,0
2164,0.17,1645449204.0,P19,D07,0,0,0
2165,-0.03,1645449204.015625,P19,D07,0,0,0
2166,-0.18,1645449204.03125,P19,D07,0,0,0
2167,-0.27,1645449204.046875,P19,D07,0,0,0
2168,-0.26,1645449204.0625,P19,D07,0,0,0
2169,-0.15,1645449204.078125,P19,D07,0,0,0
2170,0.04,1645449204.09375,P19,D07,0,0,0
2171,0.21,1645449204.109375,P19,D07,0,0,0
2172,0.27,1645449204.125,P19,D07,0,0,0
2173,0.17,1645449204.140625,P19,D07,0,0,0
2174,-0.05,1645449204.15625,P19,D07,0,0,0
2175,-0.33,1645449204.171875,P19,D07,0,0,0
2176,-0.57,1645449204.1875,P19,D07,0,0,0
2177,-0.72,1645449204.203125,P19,D07,0,0,0
2178,-0.74,1645449204.21875,P19,D07,0,0,0
2179,-0.64,1645449204.234375,P19,D07,0,0,0
2180,-0.44,1645449204.25,P19,D07,0,0,0
2181,-0.18,1645449204.265625,P19,D07,0,0,0
2182,0.09,1645449204.28125,P19,D07,0,0,0
2183,0.29,1645449204.296875,P19,D07,0,0,0
2184,0.36,1645449204.3125,P19,D07,0,0,0
2185,0.27,1645449204.328125,P19,D07,0,0,0
2186,0.06,1645449204.34375,P19,D07,0,0,0
2187,-0.22,1645449204.359375,P19,D07,0,0,0
2188,-0.48,1645449204.375,P19,D07,0,0,0
2189,-0.7,1645449204.390625,P19,D07,0,0,0
2190,-0.85,1645449204.40625,P19,D07,0,0,0
2191,-0.95,1645449204.421875,P19,D07,0,0,0
2192,-0.99,1645449204.4375,P19,D07,0,0,0
2193,-0.93,1645449204.453125,P19,D07,0,0,0
2194,-0.74,1645449204.46875,P19,D07,0,0,0
2195,-0.44,1645449204.484375,P19,D07,0,0,0
2196,-0.07,1645449204.5,P19,D07,0,0,0
2197,0.25,1645449204.515625,P19,D07,0,0,0
2198,0.43,1645449204.53125,P19,D07,0,0,0
2199,0.44,1645449204.546875,P19,D07,0,0,0
2200,0.3,1645449204.5625,P19,D07,0,0,0
2201,0.1,1645449204.578125,P19,D07,0,0,0
2202,-0.09,1645449204.59375,P19,D07,0,0,0
2203,-0.2,1645449204.609375,P19,D07,0,0,0
2204,-0.19,1645449204.625,P19,D07,0,0,0
2205,-0.07,1645449204.640625,P19,D07,0,0,0
2206,0.13,1645449204.65625,P19,D07,0,0,0
2207,0.35,1645449204.671875,P19,D07,0,0,0
2208,0.53,1645449204.6875,P19,D07,0,0,0
2209,0.62,1645449204.703125,P19,D07,0,0,0
2210,0.63,1645449204.71875,P19,D07,0,0,0
2211,0.58,1645449204.734375,P19,D07,0,0,0
2212,0.52,1645449204.75,P19,D07,0,0,0
2213,0.47,1645449204.765625,P19,D07,0,0,0
2214,0.44,1645449204.78125,P19,D07,0,0,0
2215,0.36,1645449204.796875,P19,D07,0,0,0
2216,0.21,1645449204.8125,P19,D07,0,0,0
2217,-0.01,1645449204.828125,P19,D07,0,0,0
2218,-0.23,1645449204.84375,P19,D07,0,0,0
2219,-0.34,1645449204.859375,P19,D07,0,0,0
2220,-0.29,1645449204.875,P19,D07,0,0,0
2221,-0.06,1645449204.890625,P19,D07,0,0,0
2222,0.29,1645449204.90625,P19,D07,0,0,0
2223,0.64,1645449204.921875,P19,D07,0,0,0
2224,0.89,1645449204.9375,P19,D07,0,0,0
2225,0.99,1645449204.953125,P19,D07,0,0,0
2226,0.93,1645449204.96875,P19,D07,0,0,0
2227,0.78,1645449204.984375,P19,D07,0,0,0
2228,0.62,1645449205.0,P19,D07,0,0,0
2229,0.5,1645449205.015625,P19,D07,0,0,0
2230,0.46,1645449205.03125,P19,D07,0,0,0
2231,0.52,1645449205.046875,P19,D07,0,0,0
2232,0.65,1645449205.0625,P19,D07,0,0,0
2233,0.8,1645449205.078125,P19,D07,0,0,0
2234,0.9,1645449205.09375,P19,D07,0,0,0
2235,0.9,1645449205.109375,P19,D07,0,0,0
2236,0.8,1645449205.125,P19,D07,0,0,0
2237,0.61,1645449205.140625,P19,D07,0,0,0
2238,0.4,1645449205.15625,P19,D07,0,0,0
2239,0.23,1645449205.171875,P19,D07,0,0,0
2240,0.13,1645449205.1875,P19,D07,0,0,0
2241,0.1,1645449205.203125,P19,D07,0,0,0
2242,0.12,1645449205.21875,P19,D07,0,0,0
2243,0.13,1645449205.234375,P19,D07,0,0,0
2244,0.12,1645449205.25,P19,D07,0,0,0
2245,0.09,1645449205.265625,P19,D07,0,0,0
2246,0.06,1645449205.28125,P19,D07,0,0,0
2247,0.02,1645449205.296875,P19,D07,0,0,0
2248,-0.02,1645449205.3125,P19,D07,0,0,0
2249,-0.1,1645449205.328125,P19,D07,0,0,0
2250,-0.25,1645449205.34375,P19,D07,0,0,0
2251,-0.47,1645449205.359375,P19,D07,0,0,0
2252,-0.74,1645449205.375,P19,D07,0,0,0
2253,-1.02,1645449205.390625,P19,D07,0,0,0
2254,-1.25,1645449205.40625,P19,D07,0,0,0
2255,-1.38,1645449205.421875,P19,D07,0,0,0
2256,-1.38,1645449205.4375,P19,D07,0,0,0
2257,-1.26,1645449205.453125,P19,D07,0,0,0
2258,-1.07,1645449205.46875,P19,D07,0,0,0
2259,-0.86,1645449205.484375,P19,D07,0,0,0
2260,-0.68,1645449205.5,P19,D07,0,0,0
2261,-0.57,1645449205.515625,P19,D07,0,0,0
2262,-0.51,1645449205.53125,P19,D07,0,0,0
2263,-0.51,1645449205.546875,P19,D07,0,0,0
2264,-0.56,1645449205.5625,P19,D07,0,0,0
2265,-0.68,1645449205.578125,P19,D07,0,0,0
2266,-0.81,1645449205.59375,P19,D07,0,0,0
2267,-0.91,1645449205.609375,P19,D07,0,0,0
2268,-0.89,1645449205.625,P19,D07,0,0,0
2269,-0.72,1645449205.640625,P19,D07,0,0,0
2270,-0.41,1645449205.65625,P19,D07,0,0,0
2271,-0.05,1645449205.671875,P19,D07,0,0,0
2272,0.25,1645449205.6875,P19,D07,0,0,0
2273,0.44,1645449205.703125,P19,D07,0,0,0
2274,0.46,1645449205.71875,P19,D07,0,0,0
2275,0.38,1645449205.734375,P19,D07,0,0,0
2276,0.26,1645449205.75,P19,D07,0,0,0
2277,0.18,1645449205.765625,P19,D07,0,0,0
2278,0.17,1645449205.78125,P19,D07,0,0,0
2279,0.24,1645449205.796875,P19,D07,0,0,0
2280,0.38,1645449205.8125,P19,D07,0,0,0
2281,0.55,1645449205.828125,P19,D07,0,0,0
2282,0.72,1645449205.84375,P19,D07,0,0,0
2283,0.85,1645449205.859375,P19,D07,0,0,0
2284,0.88,1645449205.875,P19,D07,0,0,0
2285,0.8,1645449205.890625,P19,D07,0,0,0
2286,0.6,1645449205.90625,P19,D07,0,0,0
2287,0.35,1645449205.921875,P19,D07,0,0,0
2288,0.12,1645449205.9375,P19,D07,0,0,0
2289,0.01,1645449205.953125,P19,D07,0,0,0
2290,0.03,1645449205.96875,P19,D07,0,0,0
2291,0.14,1645449205.984375,P19,D07,0,0,0
2292,0.24,1645449206.0,P19,D07,0,0,0
2293,0.21,1645449206.015625,P19,D07,0,0,0
2294,0.01,1645449206.03125,P19,D07,0,0,0
2295,-0.33,1645449206.046875,P19,D07,0,0,0
2296,-0.67,1645449206.0625,P19,D07,0,0,0
2297,-0.85,1645449206.078125,P19,D07,0,0,0
2298,-0.75,1645449206.09375,P19,D07,0,0,0
2299,-0.39,1645449206.109375,P19,D07,0,0,0
2300,0.12,1645449206.125,P19,D07,0,0,0
2301,0.62,1645449206.140625,P19,D07,0,0,0
2302,0.98,1645449206.15625,P19,D07,0,0,0
2303,1.16,1645449206.171875,P19,D07,0,0,0
2304,1.15,1645449206.1875,P19,D07,0,0,0
2305,1.02,1645449206.203125,P19,D07,0,0,0
2306,0.8,1645449206.21875,P19,D07,0,0,0
2307,0.5,1645449206.234375,P19,D07,0,0,0
2308,0.09,1645449206.25,P19,D07,0,0,0
2309,-0.41,1645449206.265625,P19,D07,0,0,0
2310,-0.95,1645449206.28125,P19,D07,0,0,0
2311,-1.43,1645449206.296875,P19,D07,0,0,0
2312,-1.76,1645449206.3125,P19,D07,0,0,0
2313,-1.85,1645449206.328125,P19,D07,0,0,0
2314,-1.68,1645449206.34375,P19,D07,0,0,0
2315,-1.3,1645449206.359375,P19,D07,0,0,0
2316,-0.83,1645449206.375,P19,D07,0,0,0
2317,-0.38,1645449206.390625,P19,D07,0,0,0
2318,-0.07,1645449206.40625,P19,D07,0,0,0
2319,0.08,1645449206.421875,P19,D07,0,0,0
2320,0.08,1645449206.4375,P19,D07,0,0,0
2321,0.02,1645449206.453125,P19,D07,0,0,0
2322,-0.01,1645449206.46875,P19,D07,0,0,0
2323,0.04,1645449206.484375,P19,D07,0,0,0
2324,0.15,1645449206.5,P19,D07,0,0,0
2325,0.25,1645449206.515625,P19,D07,0,0,0
2326,0.29,1645449206.53125,P19,D07,0,0,0
2327,0.22,1645449206.546875,P19,D07,0,0,0
2328,0.07,1645449206.5625,P19,D07,0,0,0
2329,-0.09,1645449206.578125,P19,D07,0,0,0
2330,-0.19,1645449206.59375,P19,D07,0,0,0
2331,-0.19,1645449206.609375,P19,D07,0,0,0
2332,-0.08,1645449206.625,P19,D07,0,0,0
2333,0.11,1645449206.640625,P19,D07,0,0,0
2334,0.32,1645449206.65625,P19,D07,0,0,0
2335,0.52,1645449206.671875,P19,D07,0,0,0
2336,0.67,1645449206.6875,P19,D07,0,0,0
2337,0.74,1645449206.703125,P19,D07,0,0,0
2338,0.71,1645449206.71875,P19,D07,0,0,0
2339,0.56,1645449206.734375,P19,D07,0,0,0
2340,0.34,1645449206.75,P19,D07,0,0,0
2341,0.11,1645449206.765625,P19,D07,0,0,0
2342,-0.04,1645449206.78125,P19,D07,0,0,0
2343,-0.03,1645449206.796875,P19,D07,0,0,0
2344,0.1,1645449206.8125,P19,D07,0,0,0
2345,0.27,1645449206.828125,P19,D07,0,0,0
2346,0.35,1645449206.84375,P19,D07,0,0,0
2347,0.28,1645449206.859375,P19,D07,0,0,0
2348,0.05,1645449206.875,P19,D07,0,0,0
2349,-0.25,1645449206.890625,P19,D07,0,0,0
2350,-0.51,1645449206.90625,P19,D07,0,0,0
2351,-0.69,1645449206.921875,P19,D07,0,0,0
2352,-0.83,1645449206.9375,P19,D07,0,0,0
2353,-0.99,1645449206.953125,P19,D07,0,0,0
2354,-1.18,1645449206.96875,P19,D07,0,0,0
2355,-1.34,1645449206.984375,P19,D07,0,0,0
2356,-1.36,1645449207.0,P19,D07,0,0,0
2357,-1.17,1645449207.015625,P19,D07,0,0,0
2358,-0.8,1645449207.03125,P19,D07,0,0,0
2359,-0.4,1645449207.046875,P19,D07,0,0,0
2360,-0.17,1645449207.0625,P19,D07,0,0,0
2361,-0.17,1645449207.078125,P19,D07,0,0,0
2362,-0.35,1645449207.09375,P19,D07,0,0,0
2363,-0.55,1645449207.109375,P19,D07,0,0,0
2364,-0.56,1645449207.125,P19,D07,0,0,0
2365,-0.31,1645449207.140625,P19,D07,0,0,0
2366,0.14,1645449207.15625,P19,D07,0,0,0
2367,0.64,1645449207.171875,P19,D07,0,0,0
2368,1.01,1645449207.1875,P19,D07,0,0,0
2369,1.15,1645449207.203125,P19,D07,0,0,0
2370,1.09,1645449207.21875,P19,D07,0,0,0
2371,0.94,1645449207.234375,P19,D07,0,0,0
2372,0.83,1645449207.25,P19,D07,0,0,0
2373,0.81,1645449207.265625,P19,D07,0,0,0
2374,0.84,1645449207.28125,P19,D07,0,0,0
2375,0.8,1645449207.296875,P19,D07,0,0,0
2376,0.59,1645449207.3125,P19,D07,0,0,0
2377,0.2,1645449207.328125,P19,D07,0,0,0
2378,-0.26,1645449207.34375,P19,D07,0,0,0
2379,-0.63,1645449207.359375,P19,D07,0,0,0
2380,-0.76,1645449207.375,P19,D07,0,0,0
2381,-0.59,1645449207.390625,P19,D07,0,0,0
2382,-0.19,1645449207.40625,P19,D07,0,0,0
2383,0.28,1645449207.421875,P19,D07,0,0,0
2384,0.66,1645449207.4375,P19,D07,0,0,0
2385,0.82,1645449207.453125,P19,D07,0,0,0
2386,0.76,1645449207.46875,P19,D07,0,0,0
2387,0.58,1645449207.484375,P19,D07,0,0,0
2388,0.39,1645449207.5,P19,D07,0,0,0
2389,0.31,1645449207.515625,P19,D07,0,0,0
2390,0.36,1645449207.53125,P19,D07,0,0,0
2391,0.47,1645449207.546875,P19,D07,0,0,0
2392,0.54,1645449207.5625,P19,D07,0,0,0
2393,0.48,1645449207.578125,P19,D07,0,0,0
2394,0.27,1645449207.59375,P19,D07,0,0,0
2395,-0.01,1645449207.609375,P19,D07,0,0,0
2396,-0.23,1645449207.625,P19,D07,0,0,0
2397,-0.25,1645449207.640625,P19,D07,0,0,0
2398,-0.06,1645449207.65625,P19,D07,0,0,0
2399,0.28,1645449207.671875,P19,D07,0,0,0
2400,0.59,1645449207.6875,P19,D07,0,0,0
2401,0.72,1645449207.703125,P19,D07,0,0,0
2402,0.6,1645449207.71875,P19,D07,0,0,0
2403,0.23,1645449207.734375,P19,D07,0,0,0
2404,-0.28,1645449207.75,P19,D07,0,0,0
2405,-0.81,1645449207.765625,P19,D07,0,0,0
2406,-1.27,1645449207.78125,P19,D07,0,0,0
2407,-1.57,1645449207.796875,P19,D07,0,0,0
2408,-1.66,1645449207.8125,P19,D07,0,0,0
2409,-1.5,1645449207.828125,P19,D07,0,0,0
2410,-1.09,1645449207.84375,P19,D07,0,0,0
2411,-0.46,1645449207.859375,P19,D07,0,0,0
2412,0.26,1645449207.875,P19,D07,0,0,0
2413,0.91,1645449207.890625,P19,D07,0,0,0
2414,1.36,1645449207.90625,P19,D07,0,0,0
2415,1.53,1645449207.921875,P19,D07,0,0,0
2416,1.42,1645449207.9375,P19,D07,0,0,0
2417,1.13,1645449207.953125,P19,D07,0,0,0
2418,0.77,1645449207.96875,P19,D07,0,0,0
2419,0.46,1645449207.984375,P19,D07,0,0,0
2420,0.25,1645449208.0,P19,D07,0,0,0
2421,0.13,1645449208.015625,P19,D07,0,0,0
2422,0.08,1645449208.03125,P19,D07,0,0,0
2423,0.03,1645449208.046875,P19,D07,0,0,0
2424,-0.02,1645449208.0625,P19,D07,0,0,0
2425,-0.08,1645449208.078125,P19,D07,0,0,0
2426,-0.13,1645449208.09375,P19,D07,0,0,0
2427,-0.15,1645449208.109375,P19,D07,0,0,0
2428,-0.18,1645449208.125,P19,D07,0,0,0
2429,-0.22,1645449208.140625,P19,D07,0,0,0
2430,-0.3,1645449208.15625,P19,D07,0,0,0
2431,-0.41,1645449208.171875,P19,D07,0,0,0
2432,-0.52,1645449208.1875,P19,D07,0,0,0
2433,-0.61,1645449208.203125,P19,D07,0,0,0
2434,-0.65,1645449208.21875,P19,D07,0,0,0
2435,-0.66,1645449208.234375,P19,D07,0,0,0
2436,-0.64,1645449208.25,P19,D07,0,0,0
2437,-0.62,1645449208.265625,P19,D07,0,0,0
2438,-0.6,1645449208.28125,P19,D07,0,0,0
2439,-0.61,1645449208.296875,P19,D07,0,0,0
2440,-0.65,1645449208.3125,P19,D07,0,0,0
2441,-0.74,1645449208.328125,P19,D07,0,0,0
2442,-0.89,1645449208.34375,P19,D07,0,0,0
2443,-1.08,1645449208.359375,P19,D07,0,0,0
2444,-1.25,1645449208.375,P19,D07,0,0,0
2445,-1.33,1645449208.390625,P19,D07,0,0,0
2446,-1.25,1645449208.40625,P19,D07,0,0,0
2447,-0.99,1645449208.421875,P19,D07,0,0,0
2448,-0.56,1645449208.4375,P19,D07,0,0,0
2449,-0.04,1645449208.453125,P19,D07,0,0,0
2450,0.49,1645449208.46875,P19,D07,0,0,0
2451,0.93,1645449208.484375,P19,D07,0,0,0
2452,1.19,1645449208.5,P19,D07,0,0,0
2453,1.26,1645449208.515625,P19,D07,0,0,0
2454,1.17,1645449208.53125,P19,D07,0,0,0
2455,1.0,1645449208.546875,P19,D07,0,0,0
2456,0.85,1645449208.5625,P19,D07,0,0,0
2457,0.78,1645449208.578125,P19,D07,0,0,0
2458,0.79,1645449208.59375,P19,D07,0,0,0
2459,0.8,1645449208.609375,P19,D07,0,0,0
2460,0.77,1645449208.625,P19,D07,0,0,0
2461,0.63,1645449208.640625,P19,D07,0,0,0
2462,0.41,1645449208.65625,P19,D07,0,0,0
2463,0.16,1645449208.671875,P19,D07,0,0,0
2464,-0.04,1645449208.6875,P19,D07,0,0,0
2465,-0.13,1645449208.703125,P19,D07,0,0,0
2466,-0.09,1645449208.71875,P19,D07,0,0,0
2467,0.02,1645449208.734375,P19,D07,0,0,0
2468,0.12,1645449208.75,P19,D07,0,0,0
2469,0.16,1645449208.765625,P19,D07,0,0,0
2470,0.1,1645449208.78125,P19,D07,0,0,0
2471,-0.04,1645449208.796875,P19,D07,0,0,0
2472,-0.19,1645449208.8125,P19,D07,0,0,0
2473,-0.3,1645449208.828125,P19,D07,0,0,0
2474,-0.33,1645449208.84375,P19,D07,0,0,0
2475,-0.29,1645449208.859375,P19,D07,0,0,0
2476,-0.23,1645449208.875,P19,D07,0,0,0
2477,-0.16,1645449208.890625,P19,D07,0,0,0
2478,-0.11,1645449208.90625,P19,D07,0,0,0
2479,-0.03,1645449208.921875,P19,D07,0,0,0
2480,0.13,1645449208.9375,P19,D07,0,0,0
2481,0.41,1645449208.953125,P19,D07,0,0,0
2482,0.78,1645449208.96875,P19,D07,0,0,0
2483,1.18,1645449208.984375,P19,D07,0,0,0
2484,1.52,1645449209.0,P19,D07,0,0,0
2485,1.72,1645449209.015625,P19,D07,0,0,0
2486,1.74,1645449209.03125,P19,D07,0,0,0
2487,1.59,1645449209.046875,P19,D07,0,0,0
2488,1.34,1645449209.0625,P19,D07,0,0,0
2489,1.03,1645449209.078125,P19,D07,0,0,0
2490,0.68,1645449209.09375,P19,D07,0,0,0
2491,0.31,1645449209.109375,P19,D07,0,0,0
2492,-0.07,1645449209.125,P19,D07,0,0,0
2493,-0.42,1645449209.140625,P19,D07,0,0,0
2494,-0.71,1645449209.15625,P19,D07,0,0,0
2495,-0.89,1645449209.171875,P19,D07,0,0,0
2496,-0.96,1645449209.1875,P19,D07,0,0,0
2497,-0.95,1645449209.203125,P19,D07,0,0,0
2498,-0.89,1645449209.21875,P19,D07,0,0,0
2499,-0.79,1645449209.234375,P19,D07,0,0,0
2500,-0.64,1645449209.25,P19,D07,0,0,0
2501,-0.44,1645449209.265625,P19,D07,0,0,0
2502,-0.21,1645449209.28125,P19,D07,0,0,0
2503,-0.03,1645449209.296875,P19,D07,0,0,0
2504,-0.0,1645449209.3125,P19,D07,0,0,0
2505,-0.14,1645449209.328125,P19,D07,0,0,0
2506,-0.38,1645449209.34375,P19,D07,0,0,0
2507,-0.61,1645449209.359375,P19,D07,0,0,0
2508,-0.69,1645449209.375,P19,D07,0,0,0
2509,-0.58,1645449209.390625,P19,D07,0,0,0
2510,-0.31,1645449209.40625,P19,D07,0,0,0
2511,-0.01,1645449209.421875,P19,D07,0,0,0
2512,0.24,1645449209.4375,P19,D07,0,0,0
2513,0.41,1645449209.453125,P19,D07,0,0,0
2514,0.52,1645449209.46875,P19,D07,0,0,0
2515,0.61,1645449209.484375,P19,D07,0,0,0
2516,0.71,1645449209.5,P19,D07,0,0,0
2517,0.77,1645449209.515625,P19,D07,0,0,0
2518,0.76,1645449209.53125,P19,D07,0,0,0
2519,0.64,1645449209.546875,P19,D07,0,0,0
2520,0.4,1645449209.5625,P19,D07,0,0,0
2521,0.09,1645449209.578125,P19,D07,0,0,0
2522,-0.23,1645449209.59375,P19,D07,0,0,0
2523,-0.52,1645449209.609375,P19,D07,0,0,0
2524,-0.76,1645449209.625,P19,D07,0,0,0
2525,-0.95,1645449209.640625,P19,D07,0,0,0
2526,-1.16,1645449209.65625,P19,D07,0,0,0
2527,-1.42,1645449209.671875,P19,D07,0,0,0
2528,-1.74,1645449209.6875,P19,D07,0,0,0
2529,-2.06,1645449209.703125,P19,D07,0,0,0
2530,-2.26,1645449209.71875,P19,D07,0,0,0
2531,-2.22,1645449209.734375,P19,D07,0,0,0
2532,-1.87,1645449209.75,P19,D07,0,0,0
2533,-1.26,1645449209.765625,P19,D07,0,0,0
2534,-0.54,1645449209.78125,P19,D07,0,0,0
2535,0.09,1645449209.796875,P19,D07,0,0,0
2536,0.51,1645449209.8125,P19,D07,0,0,0
2537,0.69,1645449209.828125,P19,D07,0,0,0
2538,0.71,1645449209.84375,P19,D07,0,0,0
2539,0.67,1645449209.859375,P19,D07,0,0,0
2540,0.62,1645449209.875,P19,D07,0,0,0
2541,0.59,1645449209.890625,P19,D07,0,0,0
2542,0.53,1645449209.90625,P19,D07,0,0,0
2543,0.45,1645449209.921875,P19,D07,0,0,0
2544,0.4,1645449209.9375,P19,D07,0,0,0
2545,0.46,1645449209.953125,P19,D07,0,0,0
2546,0.64,1645449209.96875,P19,D07,0,0,0
2547,0.93,1645449209.984375,P19,D07,0,0,0
2548,1.18,1645449210.0,P19,D07,0,0,0
2549,1.27,1645449210.015625,P19,D07,0,0,0
2550,1.12,1645449210.03125,P19,D07,0,0,0
2551,0.77,1645449210.046875,P19,D07,0,0,0
2552,0.37,1645449210.0625,P19,D07,0,0,0
2553,0.03,1645449210.078125,P19,D07,0,0,0
2554,-0.14,1645449210.09375,P19,D07,0,0,0
2555,-0.18,1645449210.109375,P19,D07,0,0,0
2556,-0.12,1645449210.125,P19,D07,0,0,0
2557,-0.02,1645449210.140625,P19,D07,0,0,0
2558,0.06,1645449210.15625,P19,D07,0,0,0
2559,0.14,1645449210.171875,P19,D07,0,0,0
2560,0.19,1645449210.1875,P19,D07,0,0,0
2561,0.16,1645449210.203125,P19,D07,0,0,0
2562,0.03,1645449210.21875,P19,D07,0,0,0
2563,-0.23,1645449210.234375,P19,D07,0,0,0
2564,-0.54,1645449210.25,P19,D07,0,0,0
2565,-0.75,1645449210.265625,P19,D07,0,0,0
2566,-0.76,1645449210.28125,P19,D07,0,0,0
2567,-0.49,1645449210.296875,P19,D07,0,0,0
2568,-0.01,1645449210.3125,P19,D07,0,0,0
2569,0.55,1645449210.328125,P19,D07,0,0,0
2570,1.03,1645449210.34375,P19,D07,0,0,0
2571,1.31,1645449210.359375,P19,D07,0,0,0
2572,1.36,1645449210.375,P19,D07,0,0,0
2573,1.2,1645449210.390625,P19,D07,0,0,0
2574,0.93,1645449210.40625,P19,D07,0,0,0
2575,0.61,1645449210.421875,P19,D07,0,0,0
2576,0.31,1645449210.4375,P19,D07,0,0,0
2577,0.07,1645449210.453125,P19,D07,0,0,0
2578,-0.1,1645449210.46875,P19,D07,0,0,0
2579,-0.18,1645449210.484375,P19,D07,0,0,0
2580,-0.18,1645449210.5,P19,D07,0,0,0
2581,-0.11,1645449210.515625,P19,D07,0,0,0
2582,0.0,1645449210.53125,P19,D07,0,0,0
2583,0.11,1645449210.546875,P19,D07,0,0,0
2584,0.17,1645449210.5625,P19,D07,0,0,0
2585,0.17,1645449210.578125,P19,D07,0,0,0
2586,0.12,1645449210.59375,P19,D07,0,0,0
2587,0.05,1645449210.609375,P19,D07,0,0,0
2588,0.02,1645449210.625,P19,D07,0,0,0
2589,0.05,1645449210.640625,P19,D07,0,0,0
2590,0.13,1645449210.65625,P19,D07,0,0,0
2591,0.18,1645449210.671875,P19,D07,0,0,0
2592,0.16,1645449210.6875,P19,D07,0,0,0
2593,0.02,1645449210.703125,P19,D07,0,0,0
2594,-0.19,1645449210.71875,P19,D07,0,0,0
2595,-0.4,1645449210.734375,P19,D07,0,0,0
2596,-0.52,1645449210.75,P19,D07,0,0,0
2597,-0.5,1645449210.765625,P19,D07,0,0,0
2598,-0.35,1645449210.78125,P19,D07,0,0,0
2599,-0.13,1645449210.796875,P19,D07,0,0,0
2600,0.06,1645449210.8125,P19,D07,0,0,0
2601,0.14,1645449210.828125,P19,D07,0,0,0
2602,0.08,1645449210.84375,P19,D07,0,0,0
2603,-0.1,1645449210.859375,P19,D07,0,0,0
2604,-0.31,1645449210.875,P19,D07,0,0,0
2605,-0.48,1645449210.890625,P19,D07,0,0,0
2606,-0.56,1645449210.90625,P19,D07,0,0,0
2607,-0.56,1645449210.921875,P19,D07,0,0,0
2608,-0.51,1645449210.9375,P19,D07,0,0,0
2609,-0.5,1645449210.953125,P19,D07,0,0,0
2610,-0.54,1645449210.96875,P19,D07,0,0,0
2611,-0.65,1645449210.984375,P19,D07,0,0,0
2612,-0.78,1645449211.0,P19,D07,0,0,0
2613,-0.88,1645449211.015625,P19,D07,0,0,0
2614,-0.93,1645449211.03125,P19,D07,0,0,0
2615,-0.93,1645449211.046875,P19,D07,0,0,0
2616,-0.9,1645449211.0625,P19,D07,0,0,0
2617,-0.85,1645449211.078125,P19,D07,0,0,0
2618,-0.74,1645449211.09375,P19,D07,0,0,0
2619,-0.53,1645449211.109375,P19,D07,0,0,0
2620,-0.19,1645449211.125,P19,D07,0,0,0
2621,0.25,1645449211.140625,P19,D07,0,0,0
2622,0.71,1645449211.15625,P19,D07,0,0,0
2623,1.09,1645449211.171875,P19,D07,0,0,0
2624,1.26,1645449211.1875,P19,D07,0,0,0
2625,1.19,1645449211.203125,P19,D07,0,0,0
2626,0.89,1645449211.21875,P19,D07,0,0,0
2627,0.5,1645449211.234375,P19,D07,0,0,0
2628,0.16,1645449211.25,P19,D07,0,0,0
2629,-0.01,1645449211.265625,P19,D07,0,0,0
2630,0.01,1645449211.28125,P19,D07,0,0,0
2631,0.16,1645449211.296875,P19,D07,0,0,0
2632,0.35,1645449211.3125,P19,D07,0,0,0
2633,0.51,1645449211.328125,P19,D07,0,0,0
2634,0.63,1645449211.34375,P19,D07,0,0,0
2635,0.72,1645449211.359375,P19,D07,0,0,0
2636,0.77,1645449211.375,P19,D07,0,0,0
2637,0.73,1645449211.390625,P19,D07,0,0,0
2638,0.53,1645449211.40625,P19,D07,0,0,0
2639,0.16,1645449211.421875,P19,D07,0,0,0
2640,-0.32,1645449211.4375,P19,D07,0,0,0
2641,-0.81,1645449211.453125,P19,D07,0,0,0
2642,-1.16,1645449211.46875,P19,D07,0,0,0
2643,-1.32,1645449211.484375,P19,D07,0,0,0
2644,-1.29,1645449211.5,P19,D07,0,0,0
2645,-1.14,1645449211.515625,P19,D07,0,0,0
2646,-0.91,1645449211.53125,P19,D07,0,0,0
2647,-0.63,1645449211.546875,P19,D07,0,0,0
2648,-0.3,1645449211.5625,P19,D07,0,0,0
2649,0.03,1645449211.578125,P19,D07,0,0,0
2650,0.27,1645449211.59375,P19,D07,0,0,0
2651,0.32,1645449211.609375,P19,D07,0,0,0
2652,0.11,1645449211.625,P19,D07,0,0,0
2653,-0.29,1645449211.640625,P19,D07,0,0,0
2654,-0.72,1645449211.65625,P19,D07,0,0,0
2655,-1.0,1645449211.671875,P19,D07,0,0,0
2656,-1.01,1645449211.6875,P19,D07,0,0,0
2657,-0.74,1645449211.703125,P19,D07,0,0,0
2658,-0.34,1645449211.71875,P19,D07,0,0,0
2659,0.03,1645449211.734375,P19,D07,0,0,0
2660,0.23,1645449211.75,P19,D07,0,0,0
2661,0.25,1645449211.765625,P19,D07,0,0,0
2662,0.13,1645449211.78125,P19,D07,0,0,0
2663,-0.0,1645449211.796875,P19,D07,0,0,0
2664,-0.06,1645449211.8125,P19,D07,0,0,0
2665,0.01,1645449211.828125,P19,D07,0,0,0
2666,0.18,1645449211.84375,P19,D07,0,0,0
2667,0.39,1645449211.859375,P19,D07,0,0,0
2668,0.6,1645449211.875,P19,D07,0,0,0
2669,0.77,1645449211.890625,P19,D07,0,0,0
2670,0.86,1645449211.90625,P19,D07,0,0,0
2671,0.83,1645449211.921875,P19,D07,0,0,0
2672,0.67,1645449211.9375,P19,D07,0,0,0
2673,0.4,1645449211.953125,P19,D07,0,0,0
2674,0.08,1645449211.96875,P19,D07,0,0,0
2675,-0.16,1645449211.984375,P19,D07,0,0,0
2676,-0.26,1645449212.0,P19,D07,0,0,0
2677,-0.19,1645449212.015625,P19,D07,0,0,0
2678,-0.03,1645449212.03125,P19,D07,0,0,0
2679,0.13,1645449212.046875,P19,D07,0,0,0
2680,0.22,1645449212.0625,P19,D07,0,0,0
2681,0.23,1645449212.078125,P19,D07,0,0,0
2682,0.21,1645449212.09375,P19,D07,0,0,0
2683,0.25,1645449212.109375,P19,D07,0,0,0
2684,0.37,1645449212.125,P19,D07,0,0,0
2685,0.56,1645449212.140625,P19,D07,0,0,0
2686,0.75,1645449212.15625,P19,D07,0,0,0
2687,0.84,1645449212.171875,P19,D07,0,0,0
2688,0.81,1645449212.1875,P19,D07,0,0,0
2689,0.65,1645449212.203125,P19,D07,0,0,0
2690,0.42,1645449212.21875,P19,D07,0,0,0
2691,0.2,1645449212.234375,P19,D07,0,0,0
2692,0.05,1645449212.25,P19,D07,0,0,0
2693,-0.02,1645449212.265625,P19,D07,0,0,0
2694,-0.03,1645449212.28125,P19,D07,0,0,0
2695,-0.05,1645449212.296875,P19,D07,0,0,0
2696,-0.15,1645449212.3125,P19,D07,0,0,0
2697,-0.35,1645449212.328125,P19,D07,0,0,0
2698,-0.61,1645449212.34375,P19,D07,0,0,0
2699,-0.82,1645449212.359375,P19,D07,0,0,0
2700,-0.87,1645449212.375,P19,D07,0,0,0
2701,-0.72,1645449212.390625,P19,D07,0,0,0
2702,-0.44,1645449212.40625,P19,D07,0,0,0
2703,-0.15,1645449212.421875,P19,D07,0,0,0
2704,0.02,1645449212.4375,P19,D07,0,0,0
2705,0.03,1645449212.453125,P19,D07,0,0,0
2706,-0.06,1645449212.46875,P19,D07,0,0,0
2707,-0.19,1645449212.484375,P19,D07,0,0,0
2708,-0.26,1645449212.5,P19,D07,0,0,0
2709,-0.29,1645449212.515625,P19,D07,0,0,0
2710,-0.32,1645449212.53125,P19,D07,0,0,0
2711,-0.41,1645449212.546875,P19,D07,0,0,0
2712,-0.57,1645449212.5625,P19,D07,0,0,0
2713,-0.73,1645449212.578125,P19,D07,0,0,0
2714,-0.79,1645449212.59375,P19,D07,0,0,0
2715,-0.63,1645449212.609375,P19,D07,0,0,0
2716,-0.27,1645449212.625,P19,D07,0,0,0
2717,0.22,1645449212.640625,P19,D07,0,0,0
2718,0.68,1645449212.65625,P19,D07,0,0,0
2719,0.97,1645449212.671875,P19,D07,0,0,0
2720,1.06,1645449212.6875,P19,D07,0,0,0
2721,1.03,1645449212.703125,P19,D07,0,0,0
2722,1.0,1645449212.71875,P19,D07,0,0,0
2723,1.06,1645449212.734375,P19,D07,0,0,0
2724,1.21,1645449212.75,P19,D07,0,0,0
2725,1.33,1645449212.765625,P19,D07,0,0,0
2726,1.32,1645449212.78125,P19,D07,0,0,0
2727,1.09,1645449212.796875,P19,D07,0,0,0
2728,0.7,1645449212.8125,P19,D07,0,0,0
2729,0.24,1645449212.828125,P19,D07,0,0,0
2730,-0.16,1645449212.84375,P19,D07,0,0,0
2731,-0.44,1645449212.859375,P19,D07,0,0,0
2732,-0.59,1645449212.875,P19,D07,0,0,0
2733,-0.65,1645449212.890625,P19,D07,0,0,0
2734,-0.66,1645449212.90625,P19,D07,0,0,0
2735,-0.61,1645449212.921875,P19,D07,0,0,0
2736,-0.53,1645449212.9375,P19,D07,0,0,0
2737,-0.44,1645449212.953125,P19,D07,0,0,0
2738,-0.37,1645449212.96875,P19,D07,0,0,0
2739,-0.38,1645449212.984375,P19,D07,0,0,0
2740,-0.44,1645449213.0,P19,D07,0,0,0
2741,-0.53,1645449213.015625,P19,D07,0,0,0
2742,-0.6,1645449213.03125,P19,D07,0,0,0
2743,-0.62,1645449213.046875,P19,D07,0,0,0
2744,-0.58,1645449213.0625,P19,D07,0,0,0
2745,-0.48,1645449213.078125,P19,D07,0,0,0
2746,-0.31,1645449213.09375,P19,D07,0,0,0
2747,-0.09,1645449213.109375,P19,D07,0,0,0
2748,0.14,1645449213.125,P19,D07,0,0,0
2749,0.35,1645449213.140625,P19,D07,0,0,0
2750,0.48,1645449213.15625,P19,D07,0,0,0
2751,0.5,1645449213.171875,P19,D07,0,0,0
2752,0.41,1645449213.1875,P19,D07,0,0,0
2753,0.28,1645449213.203125,P19,D07,0,0,0
2754,0.15,1645449213.21875,P19,D07,0,0,0
2755,0.11,1645449213.234375,P19,D07,0,0,0
2756,0.15,1645449213.25,P19,D07,0,0,0
2757,0.27,1645449213.265625,P19,D07,0,0,0
2758,0.4,1645449213.28125,P19,D07,0,0,0
2759,0.51,1645449213.296875,P19,D07,0,0,0
2760,0.56,1645449213.3125,P19,D07,0,0,0
2761,0.6,1645449213.328125,P19,D07,0,0,0
2762,0.64,1645449213.34375,P19,D07,0,0,0
2763,0.72,1645449213.359375,P19,D07,0,0,0
2764,0.82,1645449213.375,P19,D07,0,0,0
2765,0.87,1645449213.390625,P19,D07,0,0,0
2766,0.82,1645449213.40625,P19,D07,0,0,0
2767,0.63,1645449213.421875,P19,D07,0,0,0
2768,0.35,1645449213.4375,P19,D07,0,0,0
2769,0.09,1645449213.453125,P19,D07,0,0,0
2770,-0.05,1645449213.46875,P19,D07,0,0,0
2771,-0.01,1645449213.484375,P19,D07,0,0,0
2772,0.17,1645449213.5,P19,D07,0,0,0
2773,0.35,1645449213.515625,P19,D07,0,0,0
2774,0.41,1645449213.53125,P19,D07,0,0,0
2775,0.29,1645449213.546875,P19,D07,0,0,0
2776,-0.02,1645449213.5625,P19,D07,0,0,0
2777,-0.43,1645449213.578125,P19,D07,0,0,0
2778,-0.83,1645449213.59375,P19,D07,0,0,0
2779,-1.14,1645449213.609375,P19,D07,0,0,0
2780,-1.28,1645449213.625,P19,D07,0,0,0
2781,-1.2,1645449213.640625,P19,D07,0,0,0
2782,-0.92,1645449213.65625,P19,D07,0,0,0
2783,-0.51,1645449213.671875,P19,D07,0,0,0
2784,-0.11,1645449213.6875,P19,D07,0,0,0
2785,0.12,1645449213.703125,P19,D07,0,0,0
2786,0.11,1645449213.71875,P19,D07,0,0,0
2787,-0.11,1645449213.734375,P19,D07,0,0,0
2788,-0.38,1645449213.75,P19,D07,0,0,0
2789,-0.55,1645449213.765625,P19,D07,0,0,0
2790,-0.56,1645449213.78125,P19,D07,0,0,0
2791,-0.43,1645449213.796875,P19,D07,0,0,0
2792,-0.31,1645449213.8125,P19,D07,0,0,0
2793,-0.29,1645449213.828125,P19,D07,0,0,0
2794,-0.4,1645449213.84375,P19,D07,0,0,0
2795,-0.52,1645449213.859375,P19,D07,0,0,0
2796,-0.5,1645449213.875,P19,D07,0,0,0
2797,-0.26,1645449213.890625,P19,D07,0,0,0
2798,0.17,1645449213.90625,P19,D07,0,0,0
2799,0.65,1645449213.921875,P19,D07,0,0,0
2800,0.99,1645449213.9375,P19,D07,0,0,0
2801,1.08,1645449213.953125,P19,D07,0,0,0
2802,0.88,1645449213.96875,P19,D07,0,0,0
2803,0.48,1645449213.984375,P19,D07,0,0,0
2804,0.0,1645449214.0,P19,D07,0,0,0
2805,-0.41,1645449214.015625,P19,D07,0,0,0
2806,-0.65,1645449214.03125,P19,D07,0,0,0
2807,-0.67,1645449214.046875,P19,D07,0,0,0
2808,-0.49,1645449214.0625,P19,D07,0,0,0
2809,-0.21,1645449214.078125,P19,D07,0,0,0
2810,0.07,1645449214.09375,P19,D07,0,0,0
2811,0.22,1645449214.109375,P19,D07,0,0,0
2812,0.21,1645449214.125,P19,D07,0,0,0
2813,0.07,1645449214.140625,P19,D07,0,0,0
2814,-0.1,1645449214.15625,P19,D07,0,0,0
2815,-0.22,1645449214.171875,P19,D07,0,0,0
2816,-0.26,1645449214.1875,P19,D07,0,0,0
2817,-0.24,1645449214.203125,P19,D07,0,0,0
2818,-0.21,1645449214.21875,P19,D07,0,0,0
2819,-0.23,1645449214.234375,P19,D07,0,0,0
2820,-0.28,1645449214.25,P19,D07,0,0,0
2821,-0.36,1645449214.265625,P19,D07,0,0,0
2822,-0.45,1645449214.28125,P19,D07,0,0,0
2823,-0.52,1645449214.296875,P19,D07,0,0,0
2824,-0.58,1645449214.3125,P19,D07,0,0,0
2825,-0.6,1645449214.328125,P19,D07,0,0,0
2826,-0.56,1645449214.34375,P19,D07,0,0,0
2827,-0.46,1645449214.359375,P19,D07,0,0,0
2828,-0.31,1645449214.375,P19,D07,0,0,0
2829,-0.19,1645449214.390625,P19,D07,0,0,0
2830,-0.12,1645449214.40625,P19,D07,0,0,0
2831,-0.11,1645449214.421875,P19,D07,0,0,0
2832,-0.12,1645449214.4375,P19,D07,0,0,0
2833,-0.09,1645449214.453125,P19,D07,0,0,0
2834,0.0,1645449214.46875,P19,D07,0,0,0
2835,0.15,1645449214.484375,P19,D07,0,0,0
2836,0.3,1645449214.5,P19,D07,0,0,0
2837,0.41,1645449214.515625,P19,D07,0,0,0
2838,0.46,1645449214.53125,P19,D07,0,0,0
2839,0.47,1645449214.546875,P19,D07,0,0,0
2840,0.45,1645449214.5625,P19,D07,0,0,0
2841,0.42,1645449214.578125,P19,D07,0,0,0
2842,0.36,1645449214.59375,P19,D07,0,0,0
2843,0.27,1645449214.609375,P19,D07,0,0,0
2844,0.16,1645449214.625,P19,D07,0,0,0
2845,0.08,1645449214.640625,P19,D07,0,0,0
2846,0.1,1645449214.65625,P19,D07,0,0,0
2847,0.23,1645449214.671875,P19,D07,0,0,0
2848,0.48,1645449214.6875,P19,D07,0,0,0
2849,0.78,1645449214.703125,P19,D07,0,0,0
2850,1.05,1645449214.71875,P19,D07,0,0,0
2851,1.22,1645449214.734375,P19,D07,0,0,0
2852,1.26,1645449214.75,P19,D07,0,0,0
2853,1.16,1645449214.765625,P19,D07,0,0,0
2854,0.96,1645449214.78125,P19,D07,0,0,0
2855,0.74,1645449214.796875,P19,D07,0,0,0
2856,0.55,1645449214.8125,P19,D07,0,0,0
2857,0.42,1645449214.828125,P19,D07,0,0,0
2858,0.34,1645449214.84375,P19,D07,0,0,0
2859,0.28,1645449214.859375,P19,D07,0,0,0
2860,0.2,1645449214.875,P19,D07,0,0,0
2861,0.06,1645449214.890625,P19,D07,0,0,0
2862,-0.14,1645449214.90625,P19,D07,0,0,0
2863,-0.37,1645449214.921875,P19,D07,0,0,0
2864,-0.58,1645449214.9375,P19,D07,0,0,0
2865,-0.74,1645449214.953125,P19,D07,0,0,0
2866,-0.82,1645449214.96875,P19,D07,0,0,0
2867,-0.84,1645449214.984375,P19,D07,0,0,0
2868,-0.84,1645449215.0,P19,D07,0,0,0
2869,-0.83,1645449215.015625,P19,D07,0,0,0
2870,-0.8,1645449215.03125,P19,D07,0,0,0
2871,-0.74,1645449215.046875,P19,D07,0,0,0
2872,-0.64,1645449215.0625,P19,D07,0,0,0
2873,-0.54,1645449215.078125,P19,D07,0,0,0
2874,-0.52,1645449215.09375,P19,D07,0,0,0
2875,-0.61,1645449215.109375,P19,D07,0,0,0
2876,-0.82,1645449215.125,P19,D07,0,0,0
2877,-1.08,1645449215.140625,P19,D07,0,0,0
2878,-1.26,1645449215.15625,P19,D07,0,0,0
2879,-1.28,1645449215.171875,P19,D07,0,0,0
2880,-1.09,1645449215.1875,P19,D07,0,0,0
2881,-0.72,1645449215.203125,P19,D07,0,0,0
2882,-0.26,1645449215.21875,P19,D07,0,0,0
2883,0.2,1645449215.234375,P19,D07,0,0,0
2884,0.63,1645449215.25,P19,D07,0,0,0
2885,0.97,1645449215.265625,P19,D07,0,0,0
2886,1.18,1645449215.28125,P19,D07,0,0,0
2887,1.19,1645449215.296875,P19,D07,0,0,0
2888,0.95,1645449215.3125,P19,D07,0,0,0
2889,0.48,1645449215.328125,P19,D07,0,0,0
2890,-0.09,1645449215.34375,P19,D07,0,0,0
2891,-0.56,1645449215.359375,P19,D07,0,0,0
2892,-0.76,1645449215.375,P19,D07,0,0,0
2893,-0.6,1645449215.390625,P19,D07,0,0,0
2894,-0.14,1645449215.40625,P19,D07,0,0,0
2895,0.44,1645449215.421875,P19,D07,0,0,0
2896,0.9,1645449215.4375,P19,D07,0,0,0
2897,1.09,1645449215.453125,P19,D07,0,0,0
2898,1.0,1645449215.46875,P19,D07,0,0,0
2899,0.75,1645449215.484375,P19,D07,0,0,0
2900,0.48,1645449215.5,P19,D07,0,0,0
2901,0.32,1645449215.515625,P19,D07,0,0,0
2902,0.28,1645449215.53125,P19,D07,0,0,0
2903,0.31,1645449215.546875,P19,D07,0,0,0
2904,0.33,1645449215.5625,P19,D07,0,0,0
2905,0.29,1645449215.578125,P19,D07,0,0,0
2906,0.2,1645449215.59375,P19,D07,0,0,0
2907,0.08,1645449215.609375,P19,D07,0,0,0
2908,-0.04,1645449215.625,P19,D07,0,0,0
2909,-0.18,1645449215.640625,P19,D07,0,0,0
2910,-0.38,1645449215.65625,P19,D07,0,0,0
2911,-0.64,1645449215.671875,P19,D07,0,0,0
2912,-0.9,1645449215.6875,P19,D07,0,0,0
2913,-1.08,1645449215.703125,P19,D07,0,0,0
2914,-1.12,1645449215.71875,P19,D07,0,0,0
2915,-1.02,1645449215.734375,P19,D07,0,0,0
2916,-0.86,1645449215.75,P19,D07,0,0,0
2917,-0.7,1645449215.765625,P19,D07,0,0,0
2918,-0.62,1645449215.78125,P19,D07,0,0,0
2919,-0.58,1645449215.796875,P19,D07,0,0,0
2920,-0.52,1645449215.8125,P19,D07,0,0,0
