,data,timestamp,participant,document,val,arou,eng
0,-0.9,1645111212.890625,P12,D09,1,1,1
1,-0.7,1645111212.90625,P12,D09,1,1,1
2,-0.44,1645111212.921875,P12,D09,1,1,1
3,-0.19,1645111212.9375,P12,D09,1,1,1
4,-0.01,1645111212.953125,P12,D09,1,1,1
5,0.09,1645111212.96875,P12,D09,1,1,1
6,0.14,1645111212.984375,P12,D09,1,1,1
7,0.15,1645111213.0,P12,D09,1,1,1
8,0.12,1645111213.015625,P12,D09,1,1,1
9,0.05,1645111213.03125,P12,D09,1,1,1
10,-0.06,1645111213.046875,P12,D09,1,1,1
11,-0.16,1645111213.0625,P12,D09,1,1,1
12,-0.19,1645111213.078125,P12,D09,1,1,1
13,-0.15,1645111213.09375,P12,D09,1,1,1
14,-0.07,1645111213.109375,P12,D09,1,1,1
15,-0.02,1645111213.125,P12,D09,1,1,1
16,-0.07,1645111213.140625,P12,D09,1,1,1
17,-0.24,1645111213.15625,P12,D09,1,1,1
18,-0.44,1645111213.171875,P12,D09,1,1,1
19,-0.58,1645111213.1875,P12,D09,1,1,1
20,-0.55,1645111213.203125,P12,D09,1,1,1
21,-0.35,1645111213.21875,P12,D09,1,1,1
22,-0.06,1645111213.234375,P12,D09,1,1,1
23,0.22,1645111213.25,P12,D09,1,1,1
24,0.36,1645111213.265625,P12,D09,1,1,1
25,0.32,1645111213.28125,P12,D09,1,1,1
26,0.13,1645111213.296875,P12,D09,1,1,1
27,-0.1,1645111213.3125,P12,D09,1,1,1
28,-0.26,1645111213.328125,P12,D09,1,1,1
29,-0.27,1645111213.34375,P12,D09,1,1,1
30,-0.12,1645111213.359375,P12,D09,1,1,1
31,0.15,1645111213.375,P12,D09,1,1,1
32,0.39,1645111213.390625,P12,D09,1,1,1
33,0.5,1645111213.40625,P12,D09,1,1,1
34,0.4,1645111213.421875,P12,D09,1,1,1
35,0.11,1645111213.4375,P12,D09,1,1,1
36,-0.26,1645111213.453125,P12,D09,1,1,1
37,-0.58,1645111213.46875,P12,D09,1,1,1
38,-0.72,1645111213.484375,P12,D09,1,1,1
39,-0.63,1645111213.5,P12,D09,1,1,1
40,-0.34,1645111213.515625,P12,D09,1,1,1
41,0.06,1645111213.53125,P12,D09,1,1,1
42,0.46,1645111213.546875,P12,D09,1,1,1
43,0.79,1645111213.5625,P12,D09,1,1,1
44,0.97,1645111213.578125,P12,D09,1,1,1
45,0.99,1645111213.59375,P12,D09,1,1,1
46,0.85,1645111213.609375,P12,D09,1,1,1
47,0.6,1645111213.625,P12,D09,1,1,1
48,0.31,1645111213.640625,P12,D09,1,1,1
49,0.08,1645111213.65625,P12,D09,1,1,1
50,-0.04,1645111213.671875,P12,D09,1,1,1
51,0.0,1645111213.6875,P12,D09,1,1,1
52,0.17,1645111213.703125,P12,D09,1,1,1
53,0.36,1645111213.71875,P12,D09,1,1,1
54,0.51,1645111213.734375,P12,D09,1,1,1
55,0.56,1645111213.75,P12,D09,1,1,1
56,0.52,1645111213.765625,P12,D09,1,1,1
57,0.48,1645111213.78125,P12,D09,1,1,1
58,0.49,1645111213.796875,P12,D09,1,1,1
59,0.6,1645111213.8125,P12,D09,1,1,1
60,0.77,1645111213.828125,P12,D09,1,1,1
61,0.92,1645111213.84375,P12,D09,1,1,1
62,0.96,1645111213.859375,P12,D09,1,1,1
63,0.84,1645111213.875,P12,D09,1,1,1
64,0.57,1645111213.890625,P12,D09,1,1,1
65,0.21,1645111213.90625,P12,D09,1,1,1
66,-0.17,1645111213.921875,P12,D09,1,1,1
67,-0.47,1645111213.9375,P12,D09,1,1,1
68,-0.67,1645111213.953125,P12,D09,1,1,1
69,-0.74,1645111213.96875,P12,D09,1,1,1
70,-0.7,1645111213.984375,P12,D09,1,1,1
71,-0.54,1645111214.0,P12,D09,1,1,1
72,-0.3,1645111214.015625,P12,D09,1,1,1
73,-0.02,1645111214.03125,P12,D09,1,1,1
74,0.23,1645111214.046875,P12,D09,1,1,1
75,0.39,1645111214.0625,P12,D09,1,1,1
76,0.45,1645111214.078125,P12,D09,1,1,1
77,0.42,1645111214.09375,P12,D09,1,1,1
78,0.35,1645111214.109375,P12,D09,1,1,1
79,0.29,1645111214.125,P12,D09,1,1,1
80,0.24,1645111214.140625,P12,D09,1,1,1
81,0.15,1645111214.15625,P12,D09,1,1,1
82,-0.01,1645111214.171875,P12,D09,1,1,1
83,-0.22,1645111214.1875,P12,D09,1,1,1
84,-0.45,1645111214.203125,P12,D09,1,1,1
85,-0.58,1645111214.21875,P12,D09,1,1,1
86,-0.56,1645111214.234375,P12,D09,1,1,1
87,-0.4,1645111214.25,P12,D09,1,1,1
88,-0.17,1645111214.265625,P12,D09,1,1,1
89,-0.02,1645111214.28125,P12,D09,1,1,1
90,-0.04,1645111214.296875,P12,D09,1,1,1
91,-0.26,1645111214.3125,P12,D09,1,1,1
92,-0.58,1645111214.328125,P12,D09,1,1,1
93,-0.85,1645111214.34375,P12,D09,1,1,1
94,-0.92,1645111214.359375,P12,D09,1,1,1
95,-0.74,1645111214.375,P12,D09,1,1,1
96,-0.35,1645111214.390625,P12,D09,1,1,1
97,0.1,1645111214.40625,P12,D09,1,1,1
98,0.47,1645111214.421875,P12,D09,1,1,1
99,0.64,1645111214.4375,P12,D09,1,1,1
100,0.58,1645111214.453125,P12,D09,1,1,1
101,0.34,1645111214.46875,P12,D09,1,1,1
102,0.02,1645111214.484375,P12,D09,1,1,1
103,-0.32,1645111214.5,P12,D09,1,1,1
104,-0.61,1645111214.515625,P12,D09,1,1,1
105,-0.82,1645111214.53125,P12,D09,1,1,1
106,-0.94,1645111214.546875,P12,D09,1,1,1
107,-0.92,1645111214.5625,P12,D09,1,1,1
108,-0.75,1645111214.578125,P12,D09,1,1,1
109,-0.44,1645111214.59375,P12,D09,1,1,1
110,-0.05,1645111214.609375,P12,D09,1,1,1
111,0.32,1645111214.625,P12,D09,1,1,1
112,0.59,1645111214.640625,P12,D09,1,1,1
113,0.7,1645111214.65625,P12,D09,1,1,1
114,0.66,1645111214.671875,P12,D09,1,1,1
115,0.5,1645111214.6875,P12,D09,1,1,1
116,0.26,1645111214.703125,P12,D09,1,1,1
117,-0.01,1645111214.71875,P12,D09,1,1,1
118,-0.26,1645111214.734375,P12,D09,1,1,1
119,-0.47,1645111214.75,P12,D09,1,1,1
120,-0.59,1645111214.765625,P12,D09,1,1,1
121,-0.55,1645111214.78125,P12,D09,1,1,1
122,-0.37,1645111214.796875,P12,D09,1,1,1
123,-0.06,1645111214.8125,P12,D09,1,1,1
124,0.26,1645111214.828125,P12,D09,1,1,1
125,0.47,1645111214.84375,P12,D09,1,1,1
126,0.52,1645111214.859375,P12,D09,1,1,1
127,0.39,1645111214.875,P12,D09,1,1,1
128,0.18,1645111214.890625,P12,D09,1,1,1
129,-0.0,1645111214.90625,P12,D09,1,1,1
130,-0.07,1645111214.921875,P12,D09,1,1,1
131,-0.01,1645111214.9375,P12,D09,1,1,1
132,0.12,1645111214.953125,P12,D09,1,1,1
133,0.23,1645111214.96875,P12,D09,1,1,1
134,0.28,1645111214.984375,P12,D09,1,1,1
135,0.24,1645111215.0,P12,D09,1,1,1
136,0.14,1645111215.015625,P12,D09,1,1,1
137,0.01,1645111215.03125,P12,D09,1,1,1
138,-0.11,1645111215.046875,P12,D09,1,1,1
139,-0.17,1645111215.0625,P12,D09,1,1,1
140,-0.16,1645111215.078125,P12,D09,1,1,1
141,-0.08,1645111215.09375,P12,D09,1,1,1
142,0.06,1645111215.109375,P12,D09,1,1,1
143,0.23,1645111215.125,P12,D09,1,1,1
144,0.37,1645111215.140625,P12,D09,1,1,1
145,0.47,1645111215.15625,P12,D09,1,1,1
146,0.52,1645111215.171875,P12,D09,1,1,1
147,0.5,1645111215.1875,P12,D09,1,1,1
148,0.44,1645111215.203125,P12,D09,1,1,1
149,0.33,1645111215.21875,P12,D09,1,1,1
150,0.19,1645111215.234375,P12,D09,1,1,1
151,0.04,1645111215.25,P12,D09,1,1,1
152,-0.07,1645111215.265625,P12,D09,1,1,1
153,-0.1,1645111215.28125,P12,D09,1,1,1
154,-0.06,1645111215.296875,P12,D09,1,1,1
155,0.04,1645111215.3125,P12,D09,1,1,1
156,0.17,1645111215.328125,P12,D09,1,1,1
157,0.29,1645111215.34375,P12,D09,1,1,1
158,0.43,1645111215.359375,P12,D09,1,1,1
159,0.61,1645111215.375,P12,D09,1,1,1
160,0.81,1645111215.390625,P12,D09,1,1,1
161,0.98,1645111215.40625,P12,D09,1,1,1
162,1.06,1645111215.421875,P12,D09,1,1,1
163,0.99,1645111215.4375,P12,D09,1,1,1
164,0.78,1645111215.453125,P12,D09,1,1,1
165,0.47,1645111215.46875,P12,D09,1,1,1
166,0.12,1645111215.484375,P12,D09,1,1,1
167,-0.25,1645111215.5,P12,D09,1,1,1
168,-0.59,1645111215.515625,P12,D09,1,1,1
169,-0.88,1645111215.53125,P12,D09,1,1,1
170,-1.07,1645111215.546875,P12,D09,1,1,1
171,-1.1,1645111215.5625,P12,D09,1,1,1
172,-0.94,1645111215.578125,P12,D09,1,1,1
173,-0.65,1645111215.59375,P12,D09,1,1,1
174,-0.32,1645111215.609375,P12,D09,1,1,1
175,-0.06,1645111215.625,P12,D09,1,1,1
176,0.1,1645111215.640625,P12,D09,1,1,1
177,0.22,1645111215.65625,P12,D09,1,1,1
178,0.38,1645111215.671875,P12,D09,1,1,1
179,0.64,1645111215.6875,P12,D09,1,1,1
180,0.96,1645111215.703125,P12,D09,1,1,1
181,1.22,1645111215.71875,P12,D09,1,1,1
182,1.28,1645111215.734375,P12,D09,1,1,1
183,1.06,1645111215.75,P12,D09,1,1,1
184,0.61,1645111215.765625,P12,D09,1,1,1
185,0.07,1645111215.78125,P12,D09,1,1,1
186,-0.41,1645111215.796875,P12,D09,1,1,1
187,-0.73,1645111215.8125,P12,D09,1,1,1
188,-0.86,1645111215.828125,P12,D09,1,1,1
189,-0.85,1645111215.84375,P12,D09,1,1,1
190,-0.75,1645111215.859375,P12,D09,1,1,1
191,-0.62,1645111215.875,P12,D09,1,1,1
192,-0.5,1645111215.890625,P12,D09,1,1,1
193,-0.39,1645111215.90625,P12,D09,1,1,1
194,-0.31,1645111215.921875,P12,D09,1,1,1
195,-0.31,1645111215.9375,P12,D09,1,1,1
196,-0.41,1645111215.953125,P12,D09,1,1,1
197,-0.6,1645111215.96875,P12,D09,1,1,1
198,-0.79,1645111215.984375,P12,D09,1,1,1
199,-0.9,1645111216.0,P12,D09,1,1,1
200,-0.81,1645111216.015625,P12,D09,1,1,1
201,-0.52,1645111216.03125,P12,D09,1,1,1
202,-0.08,1645111216.046875,P12,D09,1,1,1
203,0.39,1645111216.0625,P12,D09,1,1,1
204,0.78,1645111216.078125,P12,D09,1,1,1
205,1.05,1645111216.09375,P12,D09,1,1,1
206,1.19,1645111216.109375,P12,D09,1,1,1
207,1.23,1645111216.125,P12,D09,1,1,1
208,1.19,1645111216.140625,P12,D09,1,1,1
209,1.03,1645111216.15625,P12,D09,1,1,1
210,0.75,1645111216.171875,P12,D09,1,1,1
211,0.36,1645111216.1875,P12,D09,1,1,1
212,-0.05,1645111216.203125,P12,D09,1,1,1
213,-0.4,1645111216.21875,P12,D09,1,1,1
214,-0.6,1645111216.234375,P12,D09,1,1,1
215,-0.63,1645111216.25,P12,D09,1,1,1
216,-0.52,1645111216.265625,P12,D09,1,1,1
217,-0.33,1645111216.28125,P12,D09,1,1,1
218,-0.12,1645111216.296875,P12,D09,1,1,1
219,0.05,1645111216.3125,P12,D09,1,1,1
220,0.14,1645111216.328125,P12,D09,1,1,1
221,0.14,1645111216.34375,P12,D09,1,1,1
222,0.04,1645111216.359375,P12,D09,1,1,1
223,-0.14,1645111216.375,P12,D09,1,1,1
224,-0.34,1645111216.390625,P12,D09,1,1,1
225,-0.51,1645111216.40625,P12,D09,1,1,1
226,-0.6,1645111216.421875,P12,D09,1,1,1
227,-0.61,1645111216.4375,P12,D09,1,1,1
228,-0.56,1645111216.453125,P12,D09,1,1,1
229,-0.47,1645111216.46875,P12,D09,1,1,1
230,-0.35,1645111216.484375,P12,D09,1,1,1
231,-0.18,1645111216.5,P12,D09,1,1,1
232,0.03,1645111216.515625,P12,D09,1,1,1
233,0.23,1645111216.53125,P12,D09,1,1,1
234,0.31,1645111216.546875,P12,D09,1,1,1
235,0.24,1645111216.5625,P12,D09,1,1,1
236,-0.0,1645111216.578125,P12,D09,1,1,1
237,-0.3,1645111216.59375,P12,D09,1,1,1
238,-0.53,1645111216.609375,P12,D09,1,1,1
239,-0.59,1645111216.625,P12,D09,1,1,1
240,-0.48,1645111216.640625,P12,D09,1,1,1
241,-0.29,1645111216.65625,P12,D09,1,1,1
242,-0.14,1645111216.671875,P12,D09,1,1,1
243,-0.1,1645111216.6875,P12,D09,1,1,1
244,-0.17,1645111216.703125,P12,D09,1,1,1
245,-0.26,1645111216.71875,P12,D09,1,1,1
246,-0.32,1645111216.734375,P12,D09,1,1,1
247,-0.32,1645111216.75,P12,D09,1,1,1
248,-0.3,1645111216.765625,P12,D09,1,1,1
249,-0.29,1645111216.78125,P12,D09,1,1,1
250,-0.31,1645111216.796875,P12,D09,1,1,1
251,-0.32,1645111216.8125,P12,D09,1,1,1
252,-0.24,1645111216.828125,P12,D09,1,1,1
253,-0.03,1645111216.84375,P12,D09,1,1,1
254,0.29,1645111216.859375,P12,D09,1,1,1
255,0.64,1645111216.875,P12,D09,1,1,1
256,0.9,1645111216.890625,P12,D09,1,1,1
257,1.0,1645111216.90625,P12,D09,1,1,1
258,0.89,1645111216.921875,P12,D09,1,1,1
259,0.6,1645111216.9375,P12,D09,1,1,1
260,0.21,1645111216.953125,P12,D09,1,1,1
261,-0.21,1645111216.96875,P12,D09,1,1,1
262,-0.54,1645111216.984375,P12,D09,1,1,1
263,-0.72,1645111217.0,P12,D09,1,1,1
264,-0.73,1645111217.015625,P12,D09,1,1,1
265,-0.63,1645111217.03125,P12,D09,1,1,1
266,-0.52,1645111217.046875,P12,D09,1,1,1
267,-0.49,1645111217.0625,P12,D09,1,1,1
268,-0.6,1645111217.078125,P12,D09,1,1,1
269,-0.8,1645111217.09375,P12,D09,1,1,1
270,-0.97,1645111217.109375,P12,D09,1,1,1
271,-1.02,1645111217.125,P12,D09,1,1,1
272,-0.87,1645111217.140625,P12,D09,1,1,1
273,-0.57,1645111217.15625,P12,D09,1,1,1
274,-0.2,1645111217.171875,P12,D09,1,1,1
275,0.15,1645111217.1875,P12,D09,1,1,1
276,0.4,1645111217.203125,P12,D09,1,1,1
277,0.57,1645111217.21875,P12,D09,1,1,1
278,0.66,1645111217.234375,P12,D09,1,1,1
279,0.72,1645111217.25,P12,D09,1,1,1
280,0.76,1645111217.265625,P12,D09,1,1,1
281,0.78,1645111217.28125,P12,D09,1,1,1
282,0.76,1645111217.296875,P12,D09,1,1,1
283,0.69,1645111217.3125,P12,D09,1,1,1
284,0.55,1645111217.328125,P12,D09,1,1,1
285,0.34,1645111217.34375,P12,D09,1,1,1
286,0.1,1645111217.359375,P12,D09,1,1,1
287,-0.14,1645111217.375,P12,D09,1,1,1
288,-0.35,1645111217.390625,P12,D09,1,1,1
289,-0.49,1645111217.40625,P12,D09,1,1,1
290,-0.58,1645111217.421875,P12,D09,1,1,1
291,-0.63,1645111217.4375,P12,D09,1,1,1
292,-0.65,1645111217.453125,P12,D09,1,1,1
293,-0.63,1645111217.46875,P12,D09,1,1,1
294,-0.56,1645111217.484375,P12,D09,1,1,1
295,-0.42,1645111217.5,P12,D09,1,1,1
296,-0.24,1645111217.515625,P12,D09,1,1,1
297,-0.06,1645111217.53125,P12,D09,1,1,1
298,0.07,1645111217.546875,P12,D09,1,1,1
299,0.13,1645111217.5625,P12,D09,1,1,1
300,0.11,1645111217.578125,P12,D09,1,1,1
301,0.05,1645111217.59375,P12,D09,1,1,1
302,-0.02,1645111217.609375,P12,D09,1,1,1
303,-0.08,1645111217.625,P12,D09,1,1,1
304,-0.11,1645111217.640625,P12,D09,1,1,1
305,-0.11,1645111217.65625,P12,D09,1,1,1
306,-0.08,1645111217.671875,P12,D09,1,1,1
307,-0.02,1645111217.6875,P12,D09,1,1,1
308,0.07,1645111217.703125,P12,D09,1,1,1
309,0.23,1645111217.71875,P12,D09,1,1,1
310,0.42,1645111217.734375,P12,D09,1,1,1
311,0.6,1645111217.75,P12,D09,1,1,1
312,0.68,1645111217.765625,P12,D09,1,1,1
313,0.6,1645111217.78125,P12,D09,1,1,1
314,0.35,1645111217.796875,P12,D09,1,1,1
315,-0.01,1645111217.8125,P12,D09,1,1,1
316,-0.36,1645111217.828125,P12,D09,1,1,1
317,-0.58,1645111217.84375,P12,D09,1,1,1
318,-0.63,1645111217.859375,P12,D09,1,1,1
319,-0.53,1645111217.875,P12,D09,1,1,1
320,-0.36,1645111217.890625,P12,D09,1,1,1
321,-0.22,1645111217.90625,P12,D09,1,1,1
322,-0.18,1645111217.921875,P12,D09,1,1,1
323,-0.23,1645111217.9375,P12,D09,1,1,1
324,-0.34,1645111217.953125,P12,D09,1,1,1
325,-0.42,1645111217.96875,P12,D09,1,1,1
326,-0.41,1645111217.984375,P12,D09,1,1,1
327,-0.28,1645111218.0,P12,D09,1,1,1
328,-0.02,1645111218.015625,P12,D09,1,1,1
329,0.29,1645111218.03125,P12,D09,1,1,1
330,0.58,1645111218.046875,P12,D09,1,1,1
331,0.76,1645111218.0625,P12,D09,1,1,1
332,0.8,1645111218.078125,P12,D09,1,1,1
333,0.69,1645111218.09375,P12,D09,1,1,1
334,0.51,1645111218.109375,P12,D09,1,1,1
335,0.33,1645111218.125,P12,D09,1,1,1
336,0.21,1645111218.140625,P12,D09,1,1,1
337,0.16,1645111218.15625,P12,D09,1,1,1
338,0.16,1645111218.171875,P12,D09,1,1,1
339,0.16,1645111218.1875,P12,D09,1,1,1
340,0.17,1645111218.203125,P12,D09,1,1,1
341,0.2,1645111218.21875,P12,D09,1,1,1
342,0.28,1645111218.234375,P12,D09,1,1,1
343,0.44,1645111218.25,P12,D09,1,1,1
344,0.62,1645111218.265625,P12,D09,1,1,1
345,0.78,1645111218.28125,P12,D09,1,1,1
346,0.85,1645111218.296875,P12,D09,1,1,1
347,0.82,1645111218.3125,P12,D09,1,1,1
348,0.7,1645111218.328125,P12,D09,1,1,1
349,0.54,1645111218.34375,P12,D09,1,1,1
350,0.4,1645111218.359375,P12,D09,1,1,1
351,0.28,1645111218.375,P12,D09,1,1,1
352,0.17,1645111218.390625,P12,D09,1,1,1
353,0.07,1645111218.40625,P12,D09,1,1,1
354,-0.02,1645111218.421875,P12,D09,1,1,1
355,-0.06,1645111218.4375,P12,D09,1,1,1
356,-0.02,1645111218.453125,P12,D09,1,1,1
357,0.08,1645111218.46875,P12,D09,1,1,1
358,0.19,1645111218.484375,P12,D09,1,1,1
359,0.22,1645111218.5,P12,D09,1,1,1
360,0.14,1645111218.515625,P12,D09,1,1,1
361,-0.04,1645111218.53125,P12,D09,1,1,1
362,-0.26,1645111218.546875,P12,D09,1,1,1
363,-0.45,1645111218.5625,P12,D09,1,1,1
364,-0.54,1645111218.578125,P12,D09,1,1,1
365,-0.51,1645111218.59375,P12,D09,1,1,1
366,-0.36,1645111218.609375,P12,D09,1,1,1
367,-0.12,1645111218.625,P12,D09,1,1,1
368,0.13,1645111218.640625,P12,D09,1,1,1
369,0.31,1645111218.65625,P12,D09,1,1,1
370,0.33,1645111218.671875,P12,D09,1,1,1
371,0.17,1645111218.6875,P12,D09,1,1,1
372,-0.12,1645111218.703125,P12,D09,1,1,1
373,-0.39,1645111218.71875,P12,D09,1,1,1
374,-0.5,1645111218.734375,P12,D09,1,1,1
375,-0.39,1645111218.75,P12,D09,1,1,1
376,-0.09,1645111218.765625,P12,D09,1,1,1
377,0.23,1645111218.78125,P12,D09,1,1,1
378,0.4,1645111218.796875,P12,D09,1,1,1
379,0.34,1645111218.8125,P12,D09,1,1,1
380,0.09,1645111218.828125,P12,D09,1,1,1
381,-0.21,1645111218.84375,P12,D09,1,1,1
382,-0.44,1645111218.859375,P12,D09,1,1,1
383,-0.52,1645111218.875,P12,D09,1,1,1
384,-0.5,1645111218.890625,P12,D09,1,1,1
385,-0.43,1645111218.90625,P12,D09,1,1,1
386,-0.38,1645111218.921875,P12,D09,1,1,1
387,-0.35,1645111218.9375,P12,D09,1,1,1
388,-0.31,1645111218.953125,P12,D09,1,1,1
389,-0.23,1645111218.96875,P12,D09,1,1,1
390,-0.08,1645111218.984375,P12,D09,1,1,1
391,0.13,1645111219.0,P12,D09,1,1,1
392,0.36,1645111219.015625,P12,D09,1,1,1
393,0.56,1645111219.03125,P12,D09,1,1,1
394,0.7,1645111219.046875,P12,D09,1,1,1
395,0.75,1645111219.0625,P12,D09,1,1,1
396,0.71,1645111219.078125,P12,D09,1,1,1
397,0.58,1645111219.09375,P12,D09,1,1,1
398,0.41,1645111219.109375,P12,D09,1,1,1
399,0.24,1645111219.125,P12,D09,1,1,1
400,0.12,1645111219.140625,P12,D09,1,1,1
401,0.13,1645111219.15625,P12,D09,1,1,1
402,0.26,1645111219.171875,P12,D09,1,1,1
403,0.48,1645111219.1875,P12,D09,1,1,1
404,0.72,1645111219.203125,P12,D09,1,1,1
405,0.87,1645111219.21875,P12,D09,1,1,1
406,0.87,1645111219.234375,P12,D09,1,1,1
407,0.67,1645111219.25,P12,D09,1,1,1
408,0.34,1645111219.265625,P12,D09,1,1,1
409,-0.03,1645111219.28125,P12,D09,1,1,1
410,-0.35,1645111219.296875,P12,D09,1,1,1
411,-0.52,1645111219.3125,P12,D09,1,1,1
412,-0.52,1645111219.328125,P12,D09,1,1,1
413,-0.38,1645111219.34375,P12,D09,1,1,1
414,-0.12,1645111219.359375,P12,D09,1,1,1
415,0.17,1645111219.375,P12,D09,1,1,1
416,0.42,1645111219.390625,P12,D09,1,1,1
417,0.54,1645111219.40625,P12,D09,1,1,1
418,0.49,1645111219.421875,P12,D09,1,1,1
419,0.25,1645111219.4375,P12,D09,1,1,1
420,-0.12,1645111219.453125,P12,D09,1,1,1
421,-0.51,1645111219.46875,P12,D09,1,1,1
422,-0.8,1645111219.484375,P12,D09,1,1,1
423,-0.92,1645111219.5,P12,D09,1,1,1
424,-0.88,1645111219.515625,P12,D09,1,1,1
425,-0.73,1645111219.53125,P12,D09,1,1,1
426,-0.54,1645111219.546875,P12,D09,1,1,1
427,-0.37,1645111219.5625,P12,D09,1,1,1
428,-0.23,1645111219.578125,P12,D09,1,1,1
429,-0.11,1645111219.59375,P12,D09,1,1,1
430,0.0,1645111219.609375,P12,D09,1,1,1
431,0.1,1645111219.625,P12,D09,1,1,1
432,0.17,1645111219.640625,P12,D09,1,1,1
433,0.15,1645111219.65625,P12,D09,1,1,1
434,0.01,1645111219.671875,P12,D09,1,1,1
435,-0.24,1645111219.6875,P12,D09,1,1,1
436,-0.55,1645111219.703125,P12,D09,1,1,1
437,-0.84,1645111219.71875,P12,D09,1,1,1
438,-1.03,1645111219.734375,P12,D09,1,1,1
439,-1.08,1645111219.75,P12,D09,1,1,1
440,-0.99,1645111219.765625,P12,D09,1,1,1
441,-0.85,1645111219.78125,P12,D09,1,1,1
442,-0.72,1645111219.796875,P12,D09,1,1,1
443,-0.64,1645111219.8125,P12,D09,1,1,1
444,-0.57,1645111219.828125,P12,D09,1,1,1
445,-0.44,1645111219.84375,P12,D09,1,1,1
446,-0.18,1645111219.859375,P12,D09,1,1,1
447,0.19,1645111219.875,P12,D09,1,1,1
448,0.59,1645111219.890625,P12,D09,1,1,1
449,0.91,1645111219.90625,P12,D09,1,1,1
450,1.06,1645111219.921875,P12,D09,1,1,1
451,1.05,1645111219.9375,P12,D09,1,1,1
452,0.96,1645111219.953125,P12,D09,1,1,1
453,0.88,1645111219.96875,P12,D09,1,1,1
454,0.84,1645111219.984375,P12,D09,1,1,1
455,0.8,1645111220.0,P12,D09,1,1,1
456,0.67,1645111220.015625,P12,D09,1,1,1
457,0.41,1645111220.03125,P12,D09,1,1,1
458,0.0,1645111220.046875,P12,D09,1,1,1
459,-0.45,1645111220.0625,P12,D09,1,1,1
460,-0.84,1645111220.078125,P12,D09,1,1,1
461,-1.04,1645111220.09375,P12,D09,1,1,1
462,-1.05,1645111220.109375,P12,D09,1,1,1
463,-0.93,1645111220.125,P12,D09,1,1,1
464,-0.79,1645111220.140625,P12,D09,1,1,1
465,-0.72,1645111220.15625,P12,D09,1,1,1
466,-0.75,1645111220.171875,P12,D09,1,1,1
467,-0.82,1645111220.1875,P12,D09,1,1,1
468,-0.85,1645111220.203125,P12,D09,1,1,1
469,-0.76,1645111220.21875,P12,D09,1,1,1
470,-0.53,1645111220.234375,P12,D09,1,1,1
471,-0.2,1645111220.25,P12,D09,1,1,1
472,0.15,1645111220.265625,P12,D09,1,1,1
473,0.45,1645111220.28125,P12,D09,1,1,1
474,0.65,1645111220.296875,P12,D09,1,1,1
475,0.75,1645111220.3125,P12,D09,1,1,1
476,0.75,1645111220.328125,P12,D09,1,1,1
477,0.66,1645111220.34375,P12,D09,1,1,1
478,0.51,1645111220.359375,P12,D09,1,1,1
479,0.32,1645111220.375,P12,D09,1,1,1
480,0.15,1645111220.390625,P12,D09,1,1,1
481,0.08,1645111220.40625,P12,D09,1,1,1
482,0.11,1645111220.421875,P12,D09,1,1,1
483,0.22,1645111220.4375,P12,D09,1,1,1
484,0.31,1645111220.453125,P12,D09,1,1,1
485,0.31,1645111220.46875,P12,D09,1,1,1
486,0.2,1645111220.484375,P12,D09,1,1,1
487,0.01,1645111220.5,P12,D09,1,1,1
488,-0.17,1645111220.515625,P12,D09,1,1,1
489,-0.29,1645111220.53125,P12,D09,1,1,1
490,-0.3,1645111220.546875,P12,D09,1,1,1
491,-0.22,1645111220.5625,P12,D09,1,1,1
492,-0.08,1645111220.578125,P12,D09,1,1,1
493,0.08,1645111220.59375,P12,D09,1,1,1
494,0.23,1645111220.609375,P12,D09,1,1,1
495,0.38,1645111220.625,P12,D09,1,1,1
496,0.51,1645111220.640625,P12,D09,1,1,1
497,0.61,1645111220.65625,P12,D09,1,1,1
498,0.65,1645111220.671875,P12,D09,1,1,1
499,0.62,1645111220.6875,P12,D09,1,1,1
500,0.52,1645111220.703125,P12,D09,1,1,1
501,0.34,1645111220.71875,P12,D09,1,1,1
502,0.12,1645111220.734375,P12,D09,1,1,1
503,-0.11,1645111220.75,P12,D09,1,1,1
504,-0.32,1645111220.765625,P12,D09,1,1,1
505,-0.46,1645111220.78125,P12,D09,1,1,1
506,-0.55,1645111220.796875,P12,D09,1,1,1
507,-0.57,1645111220.8125,P12,D09,1,1,1
508,-0.54,1645111220.828125,P12,D09,1,1,1
509,-0.5,1645111220.84375,P12,D09,1,1,1
510,-0.46,1645111220.859375,P12,D09,1,1,1
511,-0.45,1645111220.875,P12,D09,1,1,1
512,-0.44,1645111220.890625,P12,D09,1,1,1
513,-0.39,1645111220.90625,P12,D09,1,1,1
514,-0.23,1645111220.921875,P12,D09,1,1,1
515,0.05,1645111220.9375,P12,D09,1,1,1
516,0.39,1645111220.953125,P12,D09,1,1,1
517,0.68,1645111220.96875,P12,D09,1,1,1
518,0.76,1645111220.984375,P12,D09,1,1,1
519,0.58,1645111221.0,P12,D09,1,1,1
520,0.2,1645111221.015625,P12,D09,1,1,1
521,-0.22,1645111221.03125,P12,D09,1,1,1
522,-0.53,1645111221.046875,P12,D09,1,1,1
523,-0.63,1645111221.0625,P12,D09,1,1,1
524,-0.57,1645111221.078125,P12,D09,1,1,1
525,-0.49,1645111221.09375,P12,D09,1,1,1
526,-0.47,1645111221.109375,P12,D09,1,1,1
527,-0.53,1645111221.125,P12,D09,1,1,1
528,-0.58,1645111221.140625,P12,D09,1,1,1
529,-0.51,1645111221.15625,P12,D09,1,1,1
530,-0.28,1645111221.171875,P12,D09,1,1,1
531,0.08,1645111221.1875,P12,D09,1,1,1
532,0.43,1645111221.203125,P12,D09,1,1,1
533,0.62,1645111221.21875,P12,D09,1,1,1
534,0.56,1645111221.234375,P12,D09,1,1,1
535,0.27,1645111221.25,P12,D09,1,1,1
536,-0.15,1645111221.265625,P12,D09,1,1,1
537,-0.55,1645111221.28125,P12,D09,1,1,1
538,-0.79,1645111221.296875,P12,D09,1,1,1
539,-0.8,1645111221.3125,P12,D09,1,1,1
540,-0.56,1645111221.328125,P12,D09,1,1,1
541,-0.18,1645111221.34375,P12,D09,1,1,1
542,0.22,1645111221.359375,P12,D09,1,1,1
543,0.48,1645111221.375,P12,D09,1,1,1
544,0.53,1645111221.390625,P12,D09,1,1,1
545,0.38,1645111221.40625,P12,D09,1,1,1
546,0.08,1645111221.421875,P12,D09,1,1,1
547,-0.25,1645111221.4375,P12,D09,1,1,1
548,-0.49,1645111221.453125,P12,D09,1,1,1
549,-0.59,1645111221.46875,P12,D09,1,1,1
550,-0.51,1645111221.484375,P12,D09,1,1,1
551,-0.27,1645111221.5,P12,D09,1,1,1
552,0.1,1645111221.515625,P12,D09,1,1,1
553,0.52,1645111221.53125,P12,D09,1,1,1
554,0.92,1645111221.546875,P12,D09,1,1,1
555,1.21,1645111221.5625,P12,D09,1,1,1
556,1.32,1645111221.578125,P12,D09,1,1,1
557,1.24,1645111221.59375,P12,D09,1,1,1
558,1.0,1645111221.609375,P12,D09,1,1,1
559,0.7,1645111221.625,P12,D09,1,1,1
560,0.42,1645111221.640625,P12,D09,1,1,1
561,0.23,1645111221.65625,P12,D09,1,1,1
562,0.12,1645111221.671875,P12,D09,1,1,1
563,0.05,1645111221.6875,P12,D09,1,1,1
564,-0.04,1645111221.703125,P12,D09,1,1,1
565,-0.16,1645111221.71875,P12,D09,1,1,1
566,-0.3,1645111221.734375,P12,D09,1,1,1
567,-0.43,1645111221.75,P12,D09,1,1,1
568,-0.53,1645111221.765625,P12,D09,1,1,1
569,-0.64,1645111221.78125,P12,D09,1,1,1
570,-0.75,1645111221.796875,P12,D09,1,1,1
571,-0.86,1645111221.8125,P12,D09,1,1,1
572,-0.94,1645111221.828125,P12,D09,1,1,1
573,-0.95,1645111221.84375,P12,D09,1,1,1
574,-0.86,1645111221.859375,P12,D09,1,1,1
575,-0.71,1645111221.875,P12,D09,1,1,1
576,-0.55,1645111221.890625,P12,D09,1,1,1
577,-0.43,1645111221.90625,P12,D09,1,1,1
578,-0.34,1645111221.921875,P12,D09,1,1,1
579,-0.22,1645111221.9375,P12,D09,1,1,1
580,0.0,1645111221.953125,P12,D09,1,1,1
581,0.35,1645111221.96875,P12,D09,1,1,1
582,0.77,1645111221.984375,P12,D09,1,1,1
583,1.16,1645111222.0,P12,D09,1,1,1
584,1.43,1645111222.015625,P12,D09,1,1,1
585,1.55,1645111222.03125,P12,D09,1,1,1
586,1.53,1645111222.046875,P12,D09,1,1,1
587,1.44,1645111222.0625,P12,D09,1,1,1
588,1.29,1645111222.078125,P12,D09,1,1,1
589,1.08,1645111222.09375,P12,D09,1,1,1
590,0.78,1645111222.109375,P12,D09,1,1,1
591,0.42,1645111222.125,P12,D09,1,1,1
592,0.07,1645111222.140625,P12,D09,1,1,1
593,-0.16,1645111222.15625,P12,D09,1,1,1
594,-0.2,1645111222.171875,P12,D09,1,1,1
595,-0.09,1645111222.1875,P12,D09,1,1,1
596,0.05,1645111222.203125,P12,D09,1,1,1
597,0.04,1645111222.21875,P12,D09,1,1,1
598,-0.21,1645111222.234375,P12,D09,1,1,1
599,-0.67,1645111222.25,P12,D09,1,1,1
600,-1.17,1645111222.265625,P12,D09,1,1,1
601,-1.5,1645111222.28125,P12,D09,1,1,1
602,-1.51,1645111222.296875,P12,D09,1,1,1
603,-1.21,1645111222.3125,P12,D09,1,1,1
604,-0.73,1645111222.328125,P12,D09,1,1,1
605,-0.27,1645111222.34375,P12,D09,1,1,1
606,0.01,1645111222.359375,P12,D09,1,1,1
607,0.09,1645111222.375,P12,D09,1,1,1
608,0.03,1645111222.390625,P12,D09,1,1,1
609,-0.03,1645111222.40625,P12,D09,1,1,1
610,-0.0,1645111222.421875,P12,D09,1,1,1
611,0.12,1645111222.4375,P12,D09,1,1,1
612,0.27,1645111222.453125,P12,D09,1,1,1
613,0.35,1645111222.46875,P12,D09,1,1,1
614,0.33,1645111222.484375,P12,D09,1,1,1
615,0.21,1645111222.5,P12,D09,1,1,1
616,0.04,1645111222.515625,P12,D09,1,1,1
617,-0.12,1645111222.53125,P12,D09,1,1,1
618,-0.25,1645111222.546875,P12,D09,1,1,1
619,-0.33,1645111222.5625,P12,D09,1,1,1
620,-0.33,1645111222.578125,P12,D09,1,1,1
621,-0.25,1645111222.59375,P12,D09,1,1,1
622,-0.06,1645111222.609375,P12,D09,1,1,1
623,0.2,1645111222.625,P12,D09,1,1,1
624,0.48,1645111222.640625,P12,D09,1,1,1
625,0.7,1645111222.65625,P12,D09,1,1,1
626,0.79,1645111222.671875,P12,D09,1,1,1
627,0.75,1645111222.6875,P12,D09,1,1,1
628,0.58,1645111222.703125,P12,D09,1,1,1
629,0.35,1645111222.71875,P12,D09,1,1,1
630,0.1,1645111222.734375,P12,D09,1,1,1
631,-0.09,1645111222.75,P12,D09,1,1,1
632,-0.15,1645111222.765625,P12,D09,1,1,1
633,-0.06,1645111222.78125,P12,D09,1,1,1
634,0.15,1645111222.796875,P12,D09,1,1,1
635,0.41,1645111222.8125,P12,D09,1,1,1
636,0.61,1645111222.828125,P12,D09,1,1,1
637,0.63,1645111222.84375,P12,D09,1,1,1
638,0.47,1645111222.859375,P12,D09,1,1,1
639,0.22,1645111222.875,P12,D09,1,1,1
640,-0.01,1645111222.890625,P12,D09,1,1,1
641,-0.1,1645111222.90625,P12,D09,1,1,1
642,-0.01,1645111222.921875,P12,D09,1,1,1
643,0.19,1645111222.9375,P12,D09,1,1,1
644,0.4,1645111222.953125,P12,D09,1,1,1
645,0.54,1645111222.96875,P12,D09,1,1,1
646,0.6,1645111222.984375,P12,D09,1,1,1
647,0.6,1645111223.0,P12,D09,1,1,1
648,0.57,1645111223.015625,P12,D09,1,1,1
649,0.51,1645111223.03125,P12,D09,1,1,1
650,0.4,1645111223.046875,P12,D09,1,1,1
651,0.23,1645111223.0625,P12,D09,1,1,1
652,-0.0,1645111223.078125,P12,D09,1,1,1
653,-0.26,1645111223.09375,P12,D09,1,1,1
654,-0.51,1645111223.109375,P12,D09,1,1,1
655,-0.72,1645111223.125,P12,D09,1,1,1
656,-0.87,1645111223.140625,P12,D09,1,1,1
657,-0.92,1645111223.15625,P12,D09,1,1,1
658,-0.83,1645111223.171875,P12,D09,1,1,1
659,-0.56,1645111223.1875,P12,D09,1,1,1
660,-0.12,1645111223.203125,P12,D09,1,1,1
661,0.36,1645111223.21875,P12,D09,1,1,1
662,0.73,1645111223.234375,P12,D09,1,1,1
663,0.83,1645111223.25,P12,D09,1,1,1
664,0.6,1645111223.265625,P12,D09,1,1,1
665,0.11,1645111223.28125,P12,D09,1,1,1
666,-0.42,1645111223.296875,P12,D09,1,1,1
667,-0.79,1645111223.3125,P12,D09,1,1,1
668,-0.87,1645111223.328125,P12,D09,1,1,1
669,-0.68,1645111223.34375,P12,D09,1,1,1
670,-0.38,1645111223.359375,P12,D09,1,1,1
671,-0.13,1645111223.375,P12,D09,1,1,1
672,-0.03,1645111223.390625,P12,D09,1,1,1
673,-0.1,1645111223.40625,P12,D09,1,1,1
674,-0.22,1645111223.421875,P12,D09,1,1,1
675,-0.28,1645111223.4375,P12,D09,1,1,1
676,-0.22,1645111223.453125,P12,D09,1,1,1
677,-0.03,1645111223.46875,P12,D09,1,1,1
678,0.2,1645111223.484375,P12,D09,1,1,1
679,0.37,1645111223.5,P12,D09,1,1,1
680,0.41,1645111223.515625,P12,D09,1,1,1
681,0.32,1645111223.53125,P12,D09,1,1,1
682,0.14,1645111223.546875,P12,D09,1,1,1
683,-0.06,1645111223.5625,P12,D09,1,1,1
684,-0.23,1645111223.578125,P12,D09,1,1,1
685,-0.37,1645111223.59375,P12,D09,1,1,1
686,-0.51,1645111223.609375,P12,D09,1,1,1
687,-0.64,1645111223.625,P12,D09,1,1,1
688,-0.74,1645111223.640625,P12,D09,1,1,1
689,-0.75,1645111223.65625,P12,D09,1,1,1
690,-0.63,1645111223.671875,P12,D09,1,1,1
691,-0.42,1645111223.6875,P12,D09,1,1,1
692,-0.2,1645111223.703125,P12,D09,1,1,1
693,-0.09,1645111223.71875,P12,D09,1,1,1
694,-0.17,1645111223.734375,P12,D09,1,1,1
695,-0.41,1645111223.75,P12,D09,1,1,1
696,-0.7,1645111223.765625,P12,D09,1,1,1
697,-0.91,1645111223.78125,P12,D09,1,1,1
698,-0.94,1645111223.796875,P12,D09,1,1,1
699,-0.81,1645111223.8125,P12,D09,1,1,1
700,-0.57,1645111223.828125,P12,D09,1,1,1
701,-0.26,1645111223.84375,P12,D09,1,1,1
702,0.08,1645111223.859375,P12,D09,1,1,1
703,0.46,1645111223.875,P12,D09,1,1,1
704,0.86,1645111223.890625,P12,D09,1,1,1
705,1.21,1645111223.90625,P12,D09,1,1,1
706,1.42,1645111223.921875,P12,D09,1,1,1
707,1.44,1645111223.9375,P12,D09,1,1,1
708,1.27,1645111223.953125,P12,D09,1,1,1
709,1.03,1645111223.96875,P12,D09,1,1,1
710,0.83,1645111223.984375,P12,D09,1,1,1
711,0.72,1645111224.0,P12,D09,1,1,1
712,0.67,1645111224.015625,P12,D09,1,1,1
713,0.59,1645111224.03125,P12,D09,1,1,1
714,0.43,1645111224.046875,P12,D09,1,1,1
715,0.19,1645111224.0625,P12,D09,1,1,1
716,-0.06,1645111224.078125,P12,D09,1,1,1
717,-0.25,1645111224.09375,P12,D09,1,1,1
718,-0.35,1645111224.109375,P12,D09,1,1,1
719,-0.38,1645111224.125,P12,D09,1,1,1
720,-0.42,1645111224.140625,P12,D09,1,1,1
721,-0.47,1645111224.15625,P12,D09,1,1,1
722,-0.53,1645111224.171875,P12,D09,1,1,1
723,-0.56,1645111224.1875,P12,D09,1,1,1
724,-0.56,1645111224.203125,P12,D09,1,1,1
725,-0.57,1645111224.21875,P12,D09,1,1,1
726,-0.63,1645111224.234375,P12,D09,1,1,1
727,-0.77,1645111224.25,P12,D09,1,1,1
728,-0.95,1645111224.265625,P12,D09,1,1,1
729,-1.1,1645111224.28125,P12,D09,1,1,1
730,-1.12,1645111224.296875,P12,D09,1,1,1
731,-0.95,1645111224.3125,P12,D09,1,1,1
732,-0.59,1645111224.328125,P12,D09,1,1,1
733,-0.1,1645111224.34375,P12,D09,1,1,1
734,0.4,1645111224.359375,P12,D09,1,1,1
735,0.82,1645111224.375,P12,D09,1,1,1
736,1.05,1645111224.390625,P12,D09,1,1,1
737,1.05,1645111224.40625,P12,D09,1,1,1
738,0.83,1645111224.421875,P12,D09,1,1,1
739,0.45,1645111224.4375,P12,D09,1,1,1
740,0.03,1645111224.453125,P12,D09,1,1,1
741,-0.32,1645111224.46875,P12,D09,1,1,1
742,-0.46,1645111224.484375,P12,D09,1,1,1
743,-0.38,1645111224.5,P12,D09,1,1,1
744,-0.11,1645111224.515625,P12,D09,1,1,1
745,0.19,1645111224.53125,P12,D09,1,1,1
746,0.38,1645111224.546875,P12,D09,1,1,1
747,0.36,1645111224.5625,P12,D09,1,1,1
748,0.13,1645111224.578125,P12,D09,1,1,1
749,-0.17,1645111224.59375,P12,D09,1,1,1
750,-0.37,1645111224.609375,P12,D09,1,1,1
751,-0.33,1645111224.625,P12,D09,1,1,1
752,-0.04,1645111224.640625,P12,D09,1,1,1
753,0.4,1645111224.65625,P12,D09,1,1,1
754,0.82,1645111224.671875,P12,D09,1,1,1
755,1.06,1645111224.6875,P12,D09,1,1,1
756,1.07,1645111224.703125,P12,D09,1,1,1
757,0.88,1645111224.71875,P12,D09,1,1,1
758,0.58,1645111224.734375,P12,D09,1,1,1
759,0.26,1645111224.75,P12,D09,1,1,1
760,-0.03,1645111224.765625,P12,D09,1,1,1
761,-0.25,1645111224.78125,P12,D09,1,1,1
762,-0.42,1645111224.796875,P12,D09,1,1,1
763,-0.51,1645111224.8125,P12,D09,1,1,1
764,-0.51,1645111224.828125,P12,D09,1,1,1
765,-0.42,1645111224.84375,P12,D09,1,1,1
766,-0.26,1645111224.859375,P12,D09,1,1,1
767,-0.07,1645111224.875,P12,D09,1,1,1
768,0.07,1645111224.890625,P12,D09,1,1,1
769,0.13,1645111224.90625,P12,D09,1,1,1
770,0.06,1645111224.921875,P12,D09,1,1,1
771,-0.11,1645111224.9375,P12,D09,1,1,1
772,-0.31,1645111224.953125,P12,D09,1,1,1
773,-0.43,1645111224.96875,P12,D09,1,1,1
774,-0.38,1645111224.984375,P12,D09,1,1,1
775,-0.12,1645111225.0,P12,D09,1,1,1
776,0.28,1645111225.015625,P12,D09,1,1,1
777,0.71,1645111225.03125,P12,D09,1,1,1
778,1.0,1645111225.046875,P12,D09,1,1,1
779,1.05,1645111225.0625,P12,D09,1,1,1
780,0.82,1645111225.078125,P12,D09,1,1,1
781,0.41,1645111225.09375,P12,D09,1,1,1
782,-0.05,1645111225.109375,P12,D09,1,1,1
783,-0.41,1645111225.125,P12,D09,1,1,1
784,-0.57,1645111225.140625,P12,D09,1,1,1
785,-0.49,1645111225.15625,P12,D09,1,1,1
786,-0.26,1645111225.171875,P12,D09,1,1,1
787,0.04,1645111225.1875,P12,D09,1,1,1
788,0.3,1645111225.203125,P12,D09,1,1,1
789,0.43,1645111225.21875,P12,D09,1,1,1
790,0.41,1645111225.234375,P12,D09,1,1,1
791,0.28,1645111225.25,P12,D09,1,1,1
792,0.09,1645111225.265625,P12,D09,1,1,1
793,-0.08,1645111225.28125,P12,D09,1,1,1
794,-0.22,1645111225.296875,P12,D09,1,1,1
795,-0.33,1645111225.3125,P12,D09,1,1,1
796,-0.42,1645111225.328125,P12,D09,1,1,1
797,-0.5,1645111225.34375,P12,D09,1,1,1
798,-0.56,1645111225.359375,P12,D09,1,1,1
799,-0.57,1645111225.375,P12,D09,1,1,1
800,-0.54,1645111225.390625,P12,D09,1,1,1
801,-0.5,1645111225.40625,P12,D09,1,1,1
802,-0.45,1645111225.421875,P12,D09,1,1,1
803,-0.41,1645111225.4375,P12,D09,1,1,1
804,-0.38,1645111225.453125,P12,D09,1,1,1
805,-0.34,1645111225.46875,P12,D09,1,1,1
806,-0.3,1645111225.484375,P12,D09,1,1,1
807,-0.25,1645111225.5,P12,D09,1,1,1
808,-0.16,1645111225.515625,P12,D09,1,1,1
809,-0.03,1645111225.53125,P12,D09,1,1,1
810,0.18,1645111225.546875,P12,D09,1,1,1
811,0.44,1645111225.5625,P12,D09,1,1,1
812,0.73,1645111225.578125,P12,D09,1,1,1
813,0.95,1645111225.59375,P12,D09,1,1,1
814,1.07,1645111225.609375,P12,D09,1,1,1
815,1.06,1645111225.625,P12,D09,1,1,1
816,0.97,1645111225.640625,P12,D09,1,1,1
817,0.82,1645111225.65625,P12,D09,1,1,1
818,0.6,1645111225.671875,P12,D09,1,1,1
819,0.28,1645111225.6875,P12,D09,1,1,1
820,-0.17,1645111225.703125,P12,D09,1,1,1
821,-0.72,1645111225.71875,P12,D09,1,1,1
822,-1.24,1645111225.734375,P12,D09,1,1,1
823,-1.57,1645111225.75,P12,D09,1,1,1
824,-1.61,1645111225.765625,P12,D09,1,1,1
825,-1.37,1645111225.78125,P12,D09,1,1,1
826,-0.97,1645111225.796875,P12,D09,1,1,1
827,-0.56,1645111225.8125,P12,D09,1,1,1
828,-0.27,1645111225.828125,P12,D09,1,1,1
829,-0.13,1645111225.84375,P12,D09,1,1,1
830,-0.11,1645111225.859375,P12,D09,1,1,1
831,-0.17,1645111225.875,P12,D09,1,1,1
832,-0.27,1645111225.890625,P12,D09,1,1,1
833,-0.4,1645111225.90625,P12,D09,1,1,1
834,-0.5,1645111225.921875,P12,D09,1,1,1
835,-0.5,1645111225.9375,P12,D09,1,1,1
836,-0.35,1645111225.953125,P12,D09,1,1,1
837,-0.05,1645111225.96875,P12,D09,1,1,1
838,0.31,1645111225.984375,P12,D09,1,1,1
839,0.57,1645111226.0,P12,D09,1,1,1
840,0.6,1645111226.015625,P12,D09,1,1,1
841,0.36,1645111226.03125,P12,D09,1,1,1
842,-0.04,1645111226.046875,P12,D09,1,1,1
843,-0.44,1645111226.0625,P12,D09,1,1,1
844,-0.65,1645111226.078125,P12,D09,1,1,1
845,-0.57,1645111226.09375,P12,D09,1,1,1
846,-0.24,1645111226.109375,P12,D09,1,1,1
847,0.2,1645111226.125,P12,D09,1,1,1
848,0.61,1645111226.140625,P12,D09,1,1,1
849,0.89,1645111226.15625,P12,D09,1,1,1
850,1.01,1645111226.171875,P12,D09,1,1,1
851,1.02,1645111226.1875,P12,D09,1,1,1
852,0.97,1645111226.203125,P12,D09,1,1,1
853,0.9,1645111226.21875,P12,D09,1,1,1
854,0.77,1645111226.234375,P12,D09,1,1,1
855,0.6,1645111226.25,P12,D09,1,1,1
856,0.4,1645111226.265625,P12,D09,1,1,1
857,0.23,1645111226.28125,P12,D09,1,1,1
858,0.14,1645111226.296875,P12,D09,1,1,1
859,0.15,1645111226.3125,P12,D09,1,1,1
860,0.24,1645111226.328125,P12,D09,1,1,1
861,0.35,1645111226.34375,P12,D09,1,1,1
862,0.44,1645111226.359375,P12,D09,1,1,1
863,0.49,1645111226.375,P12,D09,1,1,1
864,0.49,1645111226.390625,P12,D09,1,1,1
865,0.44,1645111226.40625,P12,D09,1,1,1
866,0.35,1645111226.421875,P12,D09,1,1,1
867,0.2,1645111226.4375,P12,D09,1,1,1
868,0.02,1645111226.453125,P12,D09,1,1,1
869,-0.13,1645111226.46875,P12,D09,1,1,1
870,-0.15,1645111226.484375,P12,D09,1,1,1
871,-0.01,1645111226.5,P12,D09,1,1,1
872,0.27,1645111226.515625,P12,D09,1,1,1
873,0.62,1645111226.53125,P12,D09,1,1,1
874,0.9,1645111226.546875,P12,D09,1,1,1
875,1.03,1645111226.5625,P12,D09,1,1,1
876,1.0,1645111226.578125,P12,D09,1,1,1
877,0.84,1645111226.59375,P12,D09,1,1,1
878,0.65,1645111226.609375,P12,D09,1,1,1
879,0.5,1645111226.625,P12,D09,1,1,1
880,0.42,1645111226.640625,P12,D09,1,1,1
881,0.4,1645111226.65625,P12,D09,1,1,1
882,0.38,1645111226.671875,P12,D09,1,1,1
883,0.28,1645111226.6875,P12,D09,1,1,1
884,0.05,1645111226.703125,P12,D09,1,1,1
885,-0.3,1645111226.71875,P12,D09,1,1,1
886,-0.73,1645111226.734375,P12,D09,1,1,1
887,-1.15,1645111226.75,P12,D09,1,1,1
888,-1.46,1645111226.765625,P12,D09,1,1,1
889,-1.58,1645111226.78125,P12,D09,1,1,1
890,-1.46,1645111226.796875,P12,D09,1,1,1
891,-1.12,1645111226.8125,P12,D09,1,1,1
892,-0.64,1645111226.828125,P12,D09,1,1,1
893,-0.13,1645111226.84375,P12,D09,1,1,1
894,0.26,1645111226.859375,P12,D09,1,1,1
895,0.47,1645111226.875,P12,D09,1,1,1
896,0.49,1645111226.890625,P12,D09,1,1,1
897,0.37,1645111226.90625,P12,D09,1,1,1
898,0.23,1645111226.921875,P12,D09,1,1,1
899,0.15,1645111226.9375,P12,D09,1,1,1
900,0.14,1645111226.953125,P12,D09,1,1,1
901,0.14,1645111226.96875,P12,D09,1,1,1
902,0.06,1645111226.984375,P12,D09,1,1,1
903,-0.15,1645111227.0,P12,D09,1,1,1
904,-0.47,1645111227.015625,P12,D09,1,1,1
905,-0.81,1645111227.03125,P12,D09,1,1,1
906,-1.06,1645111227.046875,P12,D09,1,1,1
907,-1.16,1645111227.0625,P12,D09,1,1,1
908,-1.1,1645111227.078125,P12,D09,1,1,1
909,-0.93,1645111227.09375,P12,D09,1,1,1
910,-0.75,1645111227.109375,P12,D09,1,1,1
911,-0.59,1645111227.125,P12,D09,1,1,1
912,-0.48,1645111227.140625,P12,D09,1,1,1
913,-0.4,1645111227.15625,P12,D09,1,1,1
914,-0.34,1645111227.171875,P12,D09,1,1,1
915,-0.28,1645111227.1875,P12,D09,1,1,1
916,-0.24,1645111227.203125,P12,D09,1,1,1
917,-0.2,1645111227.21875,P12,D09,1,1,1
918,-0.16,1645111227.234375,P12,D09,1,1,1
919,-0.08,1645111227.25,P12,D09,1,1,1
920,0.04,1645111227.265625,P12,D09,1,1,1
921,0.17,1645111227.28125,P12,D09,1,1,1
922,0.28,1645111227.296875,P12,D09,1,1,1
923,0.35,1645111227.3125,P12,D09,1,1,1
924,0.37,1645111227.328125,P12,D09,1,1,1
925,0.37,1645111227.34375,P12,D09,1,1,1
926,0.38,1645111227.359375,P12,D09,1,1,1
927,0.39,1645111227.375,P12,D09,1,1,1
928,0.39,1645111227.390625,P12,D09,1,1,1
929,0.36,1645111227.40625,P12,D09,1,1,1
930,0.28,1645111227.421875,P12,D09,1,1,1
931,0.2,1645111227.4375,P12,D09,1,1,1
932,0.17,1645111227.453125,P12,D09,1,1,1
933,0.23,1645111227.46875,P12,D09,1,1,1
934,0.43,1645111227.484375,P12,D09,1,1,1
935,0.74,1645111227.5,P12,D09,1,1,1
936,1.07,1645111227.515625,P12,D09,1,1,1
937,1.3,1645111227.53125,P12,D09,1,1,1
938,1.32,1645111227.546875,P12,D09,1,1,1
939,1.08,1645111227.5625,P12,D09,1,1,1
940,0.67,1645111227.578125,P12,D09,1,1,1
941,0.22,1645111227.59375,P12,D09,1,1,1
942,-0.05,1645111227.609375,P12,D09,1,1,1
943,-0.04,1645111227.625,P12,D09,1,1,1
944,0.24,1645111227.640625,P12,D09,1,1,1
945,0.66,1645111227.65625,P12,D09,1,1,1
946,1.01,1645111227.671875,P12,D09,1,1,1
947,1.14,1645111227.6875,P12,D09,1,1,1
948,0.99,1645111227.703125,P12,D09,1,1,1
949,0.63,1645111227.71875,P12,D09,1,1,1
950,0.15,1645111227.734375,P12,D09,1,1,1
951,-0.33,1645111227.75,P12,D09,1,1,1
952,-0.77,1645111227.765625,P12,D09,1,1,1
953,-1.13,1645111227.78125,P12,D09,1,1,1
954,-1.39,1645111227.796875,P12,D09,1,1,1
955,-1.49,1645111227.8125,P12,D09,1,1,1
956,-1.4,1645111227.828125,P12,D09,1,1,1
957,-1.1,1645111227.84375,P12,D09,1,1,1
958,-0.64,1645111227.859375,P12,D09,1,1,1
959,-0.13,1645111227.875,P12,D09,1,1,1
960,0.29,1645111227.890625,P12,D09,1,1,1
961,0.49,1645111227.90625,P12,D09,1,1,1
962,0.42,1645111227.921875,P12,D09,1,1,1
963,0.13,1645111227.9375,P12,D09,1,1,1
964,-0.24,1645111227.953125,P12,D09,1,1,1
965,-0.55,1645111227.96875,P12,D09,1,1,1
966,-0.68,1645111227.984375,P12,D09,1,1,1
967,-0.62,1645111228.0,P12,D09,1,1,1
968,-0.43,1645111228.015625,P12,D09,1,1,1
969,-0.17,1645111228.03125,P12,D09,1,1,1
970,0.07,1645111228.046875,P12,D09,1,1,1
971,0.27,1645111228.0625,P12,D09,1,1,1
972,0.45,1645111228.078125,P12,D09,1,1,1
973,0.58,1645111228.09375,P12,D09,1,1,1
974,0.66,1645111228.109375,P12,D09,1,1,1
975,0.62,1645111228.125,P12,D09,1,1,1
976,0.49,1645111228.140625,P12,D09,1,1,1
977,0.31,1645111228.15625,P12,D09,1,1,1
978,0.15,1645111228.171875,P12,D09,1,1,1
979,0.07,1645111228.1875,P12,D09,1,1,1
980,0.09,1645111228.203125,P12,D09,1,1,1
981,0.17,1645111228.21875,P12,D09,1,1,1
982,0.25,1645111228.234375,P12,D09,1,1,1
983,0.31,1645111228.25,P12,D09,1,1,1
984,0.35,1645111228.265625,P12,D09,1,1,1
985,0.39,1645111228.28125,P12,D09,1,1,1
986,0.41,1645111228.296875,P12,D09,1,1,1
987,0.38,1645111228.3125,P12,D09,1,1,1
988,0.24,1645111228.328125,P12,D09,1,1,1
989,-0.03,1645111228.34375,P12,D09,1,1,1
990,-0.4,1645111228.359375,P12,D09,1,1,1
991,-0.78,1645111228.375,P12,D09,1,1,1
992,-1.08,1645111228.390625,P12,D09,1,1,1
993,-1.25,1645111228.40625,P12,D09,1,1,1
994,-1.28,1645111228.421875,P12,D09,1,1,1
995,-1.24,1645111228.4375,P12,D09,1,1,1
996,-1.19,1645111228.453125,P12,D09,1,1,1
997,-1.19,1645111228.46875,P12,D09,1,1,1
998,-1.24,1645111228.484375,P12,D09,1,1,1
999,-1.29,1645111228.5,P12,D09,1,1,1
1000,-1.28,1645111228.515625,P12,D09,1,1,1
1001,-1.18,1645111228.53125,P12,D09,1,1,1
1002,-0.96,1645111228.546875,P12,D09,1,1,1
1003,-0.66,1645111228.5625,P12,D09,1,1,1
1004,-0.32,1645111228.578125,P12,D09,1,1,1
1005,0.0,1645111228.59375,P12,D09,1,1,1
1006,0.26,1645111228.609375,P12,D09,1,1,1
1007,0.44,1645111228.625,P12,D09,1,1,1
1008,0.52,1645111228.640625,P12,D09,1,1,1
1009,0.49,1645111228.65625,P12,D09,1,1,1
1010,0.36,1645111228.671875,P12,D09,1,1,1
1011,0.2,1645111228.6875,P12,D09,1,1,1
1012,0.08,1645111228.703125,P12,D09,1,1,1
1013,0.05,1645111228.71875,P12,D09,1,1,1
1014,0.14,1645111228.734375,P12,D09,1,1,1
1015,0.33,1645111228.75,P12,D09,1,1,1
1016,0.53,1645111228.765625,P12,D09,1,1,1
1017,0.65,1645111228.78125,P12,D09,1,1,1
1018,0.65,1645111228.796875,P12,D09,1,1,1
1019,0.52,1645111228.8125,P12,D09,1,1,1
1020,0.31,1645111228.828125,P12,D09,1,1,1
1021,0.1,1645111228.84375,P12,D09,1,1,1
1022,-0.07,1645111228.859375,P12,D09,1,1,1
1023,-0.17,1645111228.875,P12,D09,1,1,1
1024,-0.23,1645111228.890625,P12,D09,1,1,1
1025,-0.24,1645111228.90625,P12,D09,1,1,1
1026,-0.2,1645111228.921875,P12,D09,1,1,1
1027,-0.08,1645111228.9375,P12,D09,1,1,1
1028,0.09,1645111228.953125,P12,D09,1,1,1
1029,0.26,1645111228.96875,P12,D09,1,1,1
1030,0.32,1645111228.984375,P12,D09,1,1,1
1031,0.18,1645111229.0,P12,D09,1,1,1
1032,-0.15,1645111229.015625,P12,D09,1,1,1
1033,-0.57,1645111229.03125,P12,D09,1,1,1
1034,-0.89,1645111229.046875,P12,D09,1,1,1
1035,-0.95,1645111229.0625,P12,D09,1,1,1
1036,-0.71,1645111229.078125,P12,D09,1,1,1
1037,-0.26,1645111229.09375,P12,D09,1,1,1
1038,0.19,1645111229.109375,P12,D09,1,1,1
1039,0.48,1645111229.125,P12,D09,1,1,1
1040,0.55,1645111229.140625,P12,D09,1,1,1
1041,0.47,1645111229.15625,P12,D09,1,1,1
1042,0.42,1645111229.171875,P12,D09,1,1,1
1043,0.47,1645111229.1875,P12,D09,1,1,1
1044,0.61,1645111229.203125,P12,D09,1,1,1
1045,0.71,1645111229.21875,P12,D09,1,1,1
1046,0.65,1645111229.234375,P12,D09,1,1,1
1047,0.41,1645111229.25,P12,D09,1,1,1
1048,0.12,1645111229.265625,P12,D09,1,1,1
1049,-0.05,1645111229.28125,P12,D09,1,1,1
1050,0.01,1645111229.296875,P12,D09,1,1,1
1051,0.3,1645111229.3125,P12,D09,1,1,1
1052,0.67,1645111229.328125,P12,D09,1,1,1
1053,0.94,1645111229.34375,P12,D09,1,1,1
1054,0.98,1645111229.359375,P12,D09,1,1,1
1055,0.79,1645111229.375,P12,D09,1,1,1
1056,0.45,1645111229.390625,P12,D09,1,1,1
1057,0.06,1645111229.40625,P12,D09,1,1,1
1058,-0.3,1645111229.421875,P12,D09,1,1,1
1059,-0.57,1645111229.4375,P12,D09,1,1,1
1060,-0.72,1645111229.453125,P12,D09,1,1,1
1061,-0.71,1645111229.46875,P12,D09,1,1,1
1062,-0.53,1645111229.484375,P12,D09,1,1,1
1063,-0.23,1645111229.5,P12,D09,1,1,1
1064,0.07,1645111229.515625,P12,D09,1,1,1
1065,0.23,1645111229.53125,P12,D09,1,1,1
1066,0.19,1645111229.546875,P12,D09,1,1,1
1067,-0.0,1645111229.5625,P12,D09,1,1,1
1068,-0.2,1645111229.578125,P12,D09,1,1,1
1069,-0.28,1645111229.59375,P12,D09,1,1,1
1070,-0.22,1645111229.609375,P12,D09,1,1,1
1071,-0.13,1645111229.625,P12,D09,1,1,1
1072,-0.15,1645111229.640625,P12,D09,1,1,1
1073,-0.39,1645111229.65625,P12,D09,1,1,1
1074,-0.79,1645111229.671875,P12,D09,1,1,1
1075,-1.17,1645111229.6875,P12,D09,1,1,1
1076,-1.34,1645111229.703125,P12,D09,1,1,1
1077,-1.17,1645111229.71875,P12,D09,1,1,1
1078,-0.74,1645111229.734375,P12,D09,1,1,1
1079,-0.25,1645111229.75,P12,D09,1,1,1
1080,0.09,1645111229.765625,P12,D09,1,1,1
1081,0.17,1645111229.78125,P12,D09,1,1,1
1082,0.03,1645111229.796875,P12,D09,1,1,1
1083,-0.18,1645111229.8125,P12,D09,1,1,1
1084,-0.31,1645111229.828125,P12,D09,1,1,1
1085,-0.3,1645111229.84375,P12,D09,1,1,1
1086,-0.2,1645111229.859375,P12,D09,1,1,1
1087,-0.09,1645111229.875,P12,D09,1,1,1
1088,-0.05,1645111229.890625,P12,D09,1,1,1
1089,-0.07,1645111229.90625,P12,D09,1,1,1
1090,-0.1,1645111229.921875,P12,D09,1,1,1
1091,-0.04,1645111229.9375,P12,D09,1,1,1
1092,0.11,1645111229.953125,P12,D09,1,1,1
1093,0.33,1645111229.96875,P12,D09,1,1,1
1094,0.54,1645111229.984375,P12,D09,1,1,1
1095,0.69,1645111230.0,P12,D09,1,1,1
1096,0.8,1645111230.015625,P12,D09,1,1,1
1097,0.88,1645111230.03125,P12,D09,1,1,1
1098,0.99,1645111230.046875,P12,D09,1,1,1
1099,1.1,1645111230.0625,P12,D09,1,1,1
1100,1.16,1645111230.078125,P12,D09,1,1,1
1101,1.14,1645111230.09375,P12,D09,1,1,1
1102,1.01,1645111230.109375,P12,D09,1,1,1
1103,0.78,1645111230.125,P12,D09,1,1,1
1104,0.51,1645111230.140625,P12,D09,1,1,1
1105,0.26,1645111230.15625,P12,D09,1,1,1
1106,0.07,1645111230.171875,P12,D09,1,1,1
1107,-0.02,1645111230.1875,P12,D09,1,1,1
1108,-0.01,1645111230.203125,P12,D09,1,1,1
1109,0.04,1645111230.21875,P12,D09,1,1,1
1110,0.08,1645111230.234375,P12,D09,1,1,1
1111,0.04,1645111230.25,P12,D09,1,1,1
1112,-0.1,1645111230.265625,P12,D09,1,1,1
1113,-0.3,1645111230.28125,P12,D09,1,1,1
1114,-0.46,1645111230.296875,P12,D09,1,1,1
1115,-0.49,1645111230.3125,P12,D09,1,1,1
1116,-0.37,1645111230.328125,P12,D09,1,1,1
1117,-0.17,1645111230.34375,P12,D09,1,1,1
1118,-0.0,1645111230.359375,P12,D09,1,1,1
1119,0.02,1645111230.375,P12,D09,1,1,1
1120,-0.11,1645111230.390625,P12,D09,1,1,1
1121,-0.29,1645111230.40625,P12,D09,1,1,1
1122,-0.41,1645111230.421875,P12,D09,1,1,1
1123,-0.41,1645111230.4375,P12,D09,1,1,1
1124,-0.3,1645111230.453125,P12,D09,1,1,1
1125,-0.21,1645111230.46875,P12,D09,1,1,1
1126,-0.24,1645111230.484375,P12,D09,1,1,1
1127,-0.42,1645111230.5,P12,D09,1,1,1
1128,-0.69,1645111230.515625,P12,D09,1,1,1
1129,-0.92,1645111230.53125,P12,D09,1,1,1
1130,-0.96,1645111230.546875,P12,D09,1,1,1
1131,-0.79,1645111230.5625,P12,D09,1,1,1
1132,-0.46,1645111230.578125,P12,D09,1,1,1
1133,-0.09,1645111230.59375,P12,D09,1,1,1
1134,0.19,1645111230.609375,P12,D09,1,1,1
1135,0.33,1645111230.625,P12,D09,1,1,1
1136,0.35,1645111230.640625,P12,D09,1,1,1
1137,0.29,1645111230.65625,P12,D09,1,1,1
1138,0.17,1645111230.671875,P12,D09,1,1,1
1139,0.04,1645111230.6875,P12,D09,1,1,1
1140,-0.11,1645111230.703125,P12,D09,1,1,1
1141,-0.26,1645111230.71875,P12,D09,1,1,1
1142,-0.34,1645111230.734375,P12,D09,1,1,1
1143,-0.28,1645111230.75,P12,D09,1,1,1
1144,-0.02,1645111230.765625,P12,D09,1,1,1
1145,0.41,1645111230.78125,P12,D09,1,1,1
1146,0.91,1645111230.796875,P12,D09,1,1,1
1147,1.31,1645111230.8125,P12,D09,1,1,1
1148,1.5,1645111230.828125,P12,D09,1,1,1
1149,1.47,1645111230.84375,P12,D09,1,1,1
1150,1.28,1645111230.859375,P12,D09,1,1,1
1151,1.06,1645111230.875,P12,D09,1,1,1
1152,0.88,1645111230.890625,P12,D09,1,1,1
1153,0.73,1645111230.90625,P12,D09,1,1,1
1154,0.56,1645111230.921875,P12,D09,1,1,1
1155,0.32,1645111230.9375,P12,D09,1,1,1
1156,0.0,1645111230.953125,P12,D09,1,1,1
1157,-0.29,1645111230.96875,P12,D09,1,1,1
1158,-0.48,1645111230.984375,P12,D09,1,1,1
1159,-0.5,1645111231.0,P12,D09,1,1,1
1160,-0.42,1645111231.015625,P12,D09,1,1,1
1161,-0.35,1645111231.03125,P12,D09,1,1,1
1162,-0.44,1645111231.046875,P12,D09,1,1,1
1163,-0.73,1645111231.0625,P12,D09,1,1,1
1164,-1.14,1645111231.078125,P12,D09,1,1,1
1165,-1.51,1645111231.09375,P12,D09,1,1,1
1166,-1.68,1645111231.109375,P12,D09,1,1,1
1167,-1.56,1645111231.125,P12,D09,1,1,1
1168,-1.19,1645111231.140625,P12,D09,1,1,1
1169,-0.68,1645111231.15625,P12,D09,1,1,1
1170,-0.16,1645111231.171875,P12,D09,1,1,1
1171,0.25,1645111231.1875,P12,D09,1,1,1
1172,0.54,1645111231.203125,P12,D09,1,1,1
1173,0.73,1645111231.21875,P12,D09,1,1,1
1174,0.88,1645111231.234375,P12,D09,1,1,1
1175,1.01,1645111231.25,P12,D09,1,1,1
1176,1.07,1645111231.265625,P12,D09,1,1,1
1177,1.02,1645111231.28125,P12,D09,1,1,1
1178,0.83,1645111231.296875,P12,D09,1,1,1
1179,0.51,1645111231.3125,P12,D09,1,1,1
1180,0.14,1645111231.328125,P12,D09,1,1,1
1181,-0.18,1645111231.34375,P12,D09,1,1,1
1182,-0.36,1645111231.359375,P12,D09,1,1,1
1183,-0.37,1645111231.375,P12,D09,1,1,1
1184,-0.23,1645111231.390625,P12,D09,1,1,1
1185,-0.04,1645111231.40625,P12,D09,1,1,1
1186,0.13,1645111231.421875,P12,D09,1,1,1
1187,0.2,1645111231.4375,P12,D09,1,1,1
1188,0.18,1645111231.453125,P12,D09,1,1,1
1189,0.12,1645111231.46875,P12,D09,1,1,1
1190,0.07,1645111231.484375,P12,D09,1,1,1
1191,0.08,1645111231.5,P12,D09,1,1,1
1192,0.12,1645111231.515625,P12,D09,1,1,1
1193,0.14,1645111231.53125,P12,D09,1,1,1
1194,0.1,1645111231.546875,P12,D09,1,1,1
1195,-0.04,1645111231.5625,P12,D09,1,1,1
1196,-0.21,1645111231.578125,P12,D09,1,1,1
1197,-0.38,1645111231.59375,P12,D09,1,1,1
1198,-0.48,1645111231.609375,P12,D09,1,1,1
1199,-0.51,1645111231.625,P12,D09,1,1,1
1200,-0.48,1645111231.640625,P12,D09,1,1,1
1201,-0.42,1645111231.65625,P12,D09,1,1,1
1202,-0.35,1645111231.671875,P12,D09,1,1,1
1203,-0.27,1645111231.6875,P12,D09,1,1,1
1204,-0.16,1645111231.703125,P12,D09,1,1,1
1205,-0.02,1645111231.71875,P12,D09,1,1,1
1206,0.15,1645111231.734375,P12,D09,1,1,1
1207,0.34,1645111231.75,P12,D09,1,1,1
1208,0.55,1645111231.765625,P12,D09,1,1,1
1209,0.72,1645111231.78125,P12,D09,1,1,1
1210,0.82,1645111231.796875,P12,D09,1,1,1
1211,0.8,1645111231.8125,P12,D09,1,1,1
1212,0.64,1645111231.828125,P12,D09,1,1,1
1213,0.4,1645111231.84375,P12,D09,1,1,1
1214,0.16,1645111231.859375,P12,D09,1,1,1
1215,0.04,1645111231.875,P12,D09,1,1,1
1216,0.06,1645111231.890625,P12,D09,1,1,1
1217,0.2,1645111231.90625,P12,D09,1,1,1
1218,0.35,1645111231.921875,P12,D09,1,1,1
1219,0.4,1645111231.9375,P12,D09,1,1,1
1220,0.31,1645111231.953125,P12,D09,1,1,1
1221,0.13,1645111231.96875,P12,D09,1,1,1
1222,-0.03,1645111231.984375,P12,D09,1,1,1
1223,-0.04,1645111232.0,P12,D09,1,1,1
1224,0.1,1645111232.015625,P12,D09,1,1,1
1225,0.32,1645111232.03125,P12,D09,1,1,1
1226,0.51,1645111232.046875,P12,D09,1,1,1
1227,0.53,1645111232.0625,P12,D09,1,1,1
1228,0.37,1645111232.078125,P12,D09,1,1,1
1229,0.09,1645111232.09375,P12,D09,1,1,1
1230,-0.19,1645111232.109375,P12,D09,1,1,1
1231,-0.34,1645111232.125,P12,D09,1,1,1
1232,-0.28,1645111232.140625,P12,D09,1,1,1
1233,-0.04,1645111232.15625,P12,D09,1,1,1
1234,0.31,1645111232.171875,P12,D09,1,1,1
1235,0.62,1645111232.1875,P12,D09,1,1,1
1236,0.8,1645111232.203125,P12,D09,1,1,1
1237,0.78,1645111232.21875,P12,D09,1,1,1
1238,0.59,1645111232.234375,P12,D09,1,1,1
1239,0.29,1645111232.25,P12,D09,1,1,1
1240,0.01,1645111232.265625,P12,D09,1,1,1
1241,-0.12,1645111232.28125,P12,D09,1,1,1
1242,-0.04,1645111232.296875,P12,D09,1,1,1
1243,0.22,1645111232.3125,P12,D09,1,1,1
1244,0.54,1645111232.328125,P12,D09,1,1,1
1245,0.77,1645111232.34375,P12,D09,1,1,1
1246,0.77,1645111232.359375,P12,D09,1,1,1
1247,0.51,1645111232.375,P12,D09,1,1,1
1248,0.08,1645111232.390625,P12,D09,1,1,1
1249,-0.43,1645111232.40625,P12,D09,1,1,1
1250,-0.9,1645111232.421875,P12,D09,1,1,1
1251,-1.28,1645111232.4375,P12,D09,1,1,1
1252,-1.54,1645111232.453125,P12,D09,1,1,1
1253,-1.68,1645111232.46875,P12,D09,1,1,1
1254,-1.66,1645111232.484375,P12,D09,1,1,1
1255,-1.45,1645111232.5,P12,D09,1,1,1
1256,-1.08,1645111232.515625,P12,D09,1,1,1
1257,-0.59,1645111232.53125,P12,D09,1,1,1
1258,-0.1,1645111232.546875,P12,D09,1,1,1
1259,0.28,1645111232.5625,P12,D09,1,1,1
1260,0.49,1645111232.578125,P12,D09,1,1,1
1261,0.5,1645111232.59375,P12,D09,1,1,1
1262,0.37,1645111232.609375,P12,D09,1,1,1
1263,0.17,1645111232.625,P12,D09,1,1,1
1264,-0.03,1645111232.640625,P12,D09,1,1,1
1265,-0.18,1645111232.65625,P12,D09,1,1,1
1266,-0.27,1645111232.671875,P12,D09,1,1,1
1267,-0.33,1645111232.6875,P12,D09,1,1,1
1268,-0.37,1645111232.703125,P12,D09,1,1,1
1269,-0.36,1645111232.71875,P12,D09,1,1,1
1270,-0.29,1645111232.734375,P12,D09,1,1,1
1271,-0.12,1645111232.75,P12,D09,1,1,1
1272,0.13,1645111232.765625,P12,D09,1,1,1
1273,0.36,1645111232.78125,P12,D09,1,1,1
1274,0.47,1645111232.796875,P12,D09,1,1,1
1275,0.37,1645111232.8125,P12,D09,1,1,1
1276,0.07,1645111232.828125,P12,D09,1,1,1
1277,-0.31,1645111232.84375,P12,D09,1,1,1
1278,-0.61,1645111232.859375,P12,D09,1,1,1
1279,-0.75,1645111232.875,P12,D09,1,1,1
1280,-0.73,1645111232.890625,P12,D09,1,1,1
1281,-0.67,1645111232.90625,P12,D09,1,1,1
1282,-0.68,1645111232.921875,P12,D09,1,1,1
1283,-0.8,1645111232.9375,P12,D09,1,1,1
1284,-0.96,1645111232.953125,P12,D09,1,1,1
1285,-1.04,1645111232.96875,P12,D09,1,1,1
1286,-0.95,1645111232.984375,P12,D09,1,1,1
1287,-0.74,1645111233.0,P12,D09,1,1,1
1288,-0.54,1645111233.015625,P12,D09,1,1,1
1289,-0.5,1645111233.03125,P12,D09,1,1,1
1290,-0.67,1645111233.046875,P12,D09,1,1,1
1291,-0.96,1645111233.0625,P12,D09,1,1,1
1292,-1.22,1645111233.078125,P12,D09,1,1,1
1293,-1.29,1645111233.09375,P12,D09,1,1,1
1294,-1.1,1645111233.109375,P12,D09,1,1,1
1295,-0.69,1645111233.125,P12,D09,1,1,1
1296,-0.15,1645111233.140625,P12,D09,1,1,1
1297,0.38,1645111233.15625,P12,D09,1,1,1
1298,0.81,1645111233.171875,P12,D09,1,1,1
1299,1.06,1645111233.1875,P12,D09,1,1,1
1300,1.09,1645111233.203125,P12,D09,1,1,1
1301,0.93,1645111233.21875,P12,D09,1,1,1
1302,0.62,1645111233.234375,P12,D09,1,1,1
1303,0.25,1645111233.25,P12,D09,1,1,1
1304,-0.08,1645111233.265625,P12,D09,1,1,1
1305,-0.3,1645111233.28125,P12,D09,1,1,1
1306,-0.38,1645111233.296875,P12,D09,1,1,1
1307,-0.36,1645111233.3125,P12,D09,1,1,1
1308,-0.25,1645111233.328125,P12,D09,1,1,1
1309,-0.07,1645111233.34375,P12,D09,1,1,1
1310,0.16,1645111233.359375,P12,D09,1,1,1
1311,0.42,1645111233.375,P12,D09,1,1,1
1312,0.69,1645111233.390625,P12,D09,1,1,1
1313,0.92,1645111233.40625,P12,D09,1,1,1
1314,1.09,1645111233.421875,P12,D09,1,1,1
1315,1.17,1645111233.4375,P12,D09,1,1,1
1316,1.18,1645111233.453125,P12,D09,1,1,1
1317,1.11,1645111233.46875,P12,D09,1,1,1
1318,0.98,1645111233.484375,P12,D09,1,1,1
1319,0.76,1645111233.5,P12,D09,1,1,1
1320,0.46,1645111233.515625,P12,D09,1,1,1
1321,0.12,1645111233.53125,P12,D09,1,1,1
1322,-0.16,1645111233.546875,P12,D09,1,1,1
1323,-0.31,1645111233.5625,P12,D09,1,1,1
1324,-0.28,1645111233.578125,P12,D09,1,1,1
1325,-0.11,1645111233.59375,P12,D09,1,1,1
1326,0.12,1645111233.609375,P12,D09,1,1,1
1327,0.27,1645111233.625,P12,D09,1,1,1
1328,0.3,1645111233.640625,P12,D09,1,1,1
1329,0.21,1645111233.65625,P12,D09,1,1,1
1330,0.08,1645111233.671875,P12,D09,1,1,1
1331,0.0,1645111233.6875,P12,D09,1,1,1
1332,0.03,1645111233.703125,P12,D09,1,1,1
1333,0.14,1645111233.71875,P12,D09,1,1,1
1334,0.27,1645111233.734375,P12,D09,1,1,1
1335,0.36,1645111233.75,P12,D09,1,1,1
1336,0.39,1645111233.765625,P12,D09,1,1,1
1337,0.35,1645111233.78125,P12,D09,1,1,1
1338,0.29,1645111233.796875,P12,D09,1,1,1
1339,0.24,1645111233.8125,P12,D09,1,1,1
1340,0.2,1645111233.828125,P12,D09,1,1,1
1341,0.16,1645111233.84375,P12,D09,1,1,1
1342,0.12,1645111233.859375,P12,D09,1,1,1
1343,0.06,1645111233.875,P12,D09,1,1,1
1344,0.02,1645111233.890625,P12,D09,1,1,1
1345,0.01,1645111233.90625,P12,D09,1,1,1
1346,0.03,1645111233.921875,P12,D09,1,1,1
1347,0.07,1645111233.9375,P12,D09,1,1,1
1348,0.07,1645111233.953125,P12,D09,1,1,1
1349,0.02,1645111233.96875,P12,D09,1,1,1
1350,-0.09,1645111233.984375,P12,D09,1,1,1
1351,-0.21,1645111234.0,P12,D09,1,1,1
1352,-0.27,1645111234.015625,P12,D09,1,1,1
1353,-0.26,1645111234.03125,P12,D09,1,1,1
1354,-0.17,1645111234.046875,P12,D09,1,1,1
1355,-0.06,1645111234.0625,P12,D09,1,1,1
1356,0.01,1645111234.078125,P12,D09,1,1,1
1357,0.03,1645111234.09375,P12,D09,1,1,1
1358,0.01,1645111234.109375,P12,D09,1,1,1
1359,-0.02,1645111234.125,P12,D09,1,1,1
1360,-0.06,1645111234.140625,P12,D09,1,1,1
1361,-0.15,1645111234.15625,P12,D09,1,1,1
1362,-0.33,1645111234.171875,P12,D09,1,1,1
1363,-0.6,1645111234.1875,P12,D09,1,1,1
1364,-0.9,1645111234.203125,P12,D09,1,1,1
1365,-1.1,1645111234.21875,P12,D09,1,1,1
1366,-1.11,1645111234.234375,P12,D09,1,1,1
1367,-0.87,1645111234.25,P12,D09,1,1,1
1368,-0.42,1645111234.265625,P12,D09,1,1,1
1369,0.11,1645111234.28125,P12,D09,1,1,1
1370,0.59,1645111234.296875,P12,D09,1,1,1
1371,0.9,1645111234.3125,P12,D09,1,1,1
1372,0.96,1645111234.328125,P12,D09,1,1,1
1373,0.78,1645111234.34375,P12,D09,1,1,1
1374,0.43,1645111234.359375,P12,D09,1,1,1
1375,0.02,1645111234.375,P12,D09,1,1,1
1376,-0.32,1645111234.390625,P12,D09,1,1,1
1377,-0.5,1645111234.40625,P12,D09,1,1,1
1378,-0.48,1645111234.421875,P12,D09,1,1,1
1379,-0.33,1645111234.4375,P12,D09,1,1,1
1380,-0.14,1645111234.453125,P12,D09,1,1,1
1381,0.02,1645111234.46875,P12,D09,1,1,1
1382,0.12,1645111234.484375,P12,D09,1,1,1
1383,0.18,1645111234.5,P12,D09,1,1,1
1384,0.24,1645111234.515625,P12,D09,1,1,1
1385,0.31,1645111234.53125,P12,D09,1,1,1
1386,0.36,1645111234.546875,P12,D09,1,1,1
1387,0.34,1645111234.5625,P12,D09,1,1,1
1388,0.23,1645111234.578125,P12,D09,1,1,1
1389,0.04,1645111234.59375,P12,D09,1,1,1
1390,-0.16,1645111234.609375,P12,D09,1,1,1
1391,-0.29,1645111234.625,P12,D09,1,1,1
1392,-0.33,1645111234.640625,P12,D09,1,1,1
1393,-0.3,1645111234.65625,P12,D09,1,1,1
1394,-0.27,1645111234.671875,P12,D09,1,1,1
1395,-0.33,1645111234.6875,P12,D09,1,1,1
1396,-0.48,1645111234.703125,P12,D09,1,1,1
1397,-0.66,1645111234.71875,P12,D09,1,1,1
1398,-0.76,1645111234.734375,P12,D09,1,1,1
1399,-0.69,1645111234.75,P12,D09,1,1,1
1400,-0.43,1645111234.765625,P12,D09,1,1,1
1401,-0.06,1645111234.78125,P12,D09,1,1,1
1402,0.28,1645111234.796875,P12,D09,1,1,1
1403,0.49,1645111234.8125,P12,D09,1,1,1
1404,0.52,1645111234.828125,P12,D09,1,1,1
1405,0.44,1645111234.84375,P12,D09,1,1,1
1406,0.34,1645111234.859375,P12,D09,1,1,1
1407,0.3,1645111234.875,P12,D09,1,1,1
1408,0.34,1645111234.890625,P12,D09,1,1,1
1409,0.42,1645111234.90625,P12,D09,1,1,1
1410,0.49,1645111234.921875,P12,D09,1,1,1
1411,0.55,1645111234.9375,P12,D09,1,1,1
1412,0.58,1645111234.953125,P12,D09,1,1,1
1413,0.57,1645111234.96875,P12,D09,1,1,1
1414,0.47,1645111234.984375,P12,D09,1,1,1
1415,0.21,1645111235.0,P12,D09,1,1,1
1416,-0.2,1645111235.015625,P12,D09,1,1,1
1417,-0.67,1645111235.03125,P12,D09,1,1,1
1418,-1.02,1645111235.046875,P12,D09,1,1,1
1419,-1.08,1645111235.0625,P12,D09,1,1,1
1420,-0.78,1645111235.078125,P12,D09,1,1,1
1421,-0.22,1645111235.09375,P12,D09,1,1,1
1422,0.41,1645111235.109375,P12,D09,1,1,1
1423,0.87,1645111235.125,P12,D09,1,1,1
1424,1.05,1645111235.140625,P12,D09,1,1,1
1425,0.95,1645111235.15625,P12,D09,1,1,1
1426,0.66,1645111235.171875,P12,D09,1,1,1
1427,0.3,1645111235.1875,P12,D09,1,1,1
1428,-0.09,1645111235.203125,P12,D09,1,1,1
1429,-0.5,1645111235.21875,P12,D09,1,1,1
1430,-0.95,1645111235.234375,P12,D09,1,1,1
1431,-1.36,1645111235.25,P12,D09,1,1,1
1432,-1.61,1645111235.265625,P12,D09,1,1,1
1433,-1.55,1645111235.28125,P12,D09,1,1,1
1434,-1.08,1645111235.296875,P12,D09,1,1,1
1435,-0.27,1645111235.3125,P12,D09,1,1,1
1436,0.71,1645111235.328125,P12,D09,1,1,1
1437,1.54,1645111235.34375,P12,D09,1,1,1
1438,1.98,1645111235.359375,P12,D09,1,1,1
1439,1.89,1645111235.375,P12,D09,1,1,1
1440,1.34,1645111235.390625,P12,D09,1,1,1
1441,0.59,1645111235.40625,P12,D09,1,1,1
1442,-0.09,1645111235.421875,P12,D09,1,1,1
1443,-0.46,1645111235.4375,P12,D09,1,1,1
1444,-0.53,1645111235.453125,P12,D09,1,1,1
1445,-0.42,1645111235.46875,P12,D09,1,1,1
1446,-0.32,1645111235.484375,P12,D09,1,1,1
1447,-0.34,1645111235.5,P12,D09,1,1,1
1448,-0.45,1645111235.515625,P12,D09,1,1,1
1449,-0.52,1645111235.53125,P12,D09,1,1,1
1450,-0.43,1645111235.546875,P12,D09,1,1,1
1451,-0.12,1645111235.5625,P12,D09,1,1,1
1452,0.31,1645111235.578125,P12,D09,1,1,1
1453,0.72,1645111235.59375,P12,D09,1,1,1
1454,0.97,1645111235.609375,P12,D09,1,1,1
1455,1.02,1645111235.625,P12,D09,1,1,1
1456,0.92,1645111235.640625,P12,D09,1,1,1
1457,0.75,1645111235.65625,P12,D09,1,1,1
1458,0.58,1645111235.671875,P12,D09,1,1,1
1459,0.42,1645111235.6875,P12,D09,1,1,1
1460,0.24,1645111235.703125,P12,D09,1,1,1
1461,0.03,1645111235.71875,P12,D09,1,1,1
1462,-0.15,1645111235.734375,P12,D09,1,1,1
1463,-0.24,1645111235.75,P12,D09,1,1,1
1464,-0.17,1645111235.765625,P12,D09,1,1,1
1465,0.03,1645111235.78125,P12,D09,1,1,1
1466,0.28,1645111235.796875,P12,D09,1,1,1
1467,0.45,1645111235.8125,P12,D09,1,1,1
1468,0.49,1645111235.828125,P12,D09,1,1,1
1469,0.38,1645111235.84375,P12,D09,1,1,1
1470,0.24,1645111235.859375,P12,D09,1,1,1
1471,0.19,1645111235.875,P12,D09,1,1,1
1472,0.28,1645111235.890625,P12,D09,1,1,1
1473,0.47,1645111235.90625,P12,D09,1,1,1
1474,0.66,1645111235.921875,P12,D09,1,1,1
1475,0.75,1645111235.9375,P12,D09,1,1,1
1476,0.67,1645111235.953125,P12,D09,1,1,1
1477,0.46,1645111235.96875,P12,D09,1,1,1
1478,0.19,1645111235.984375,P12,D09,1,1,1
1479,-0.09,1645111236.0,P12,D09,1,1,1
1480,-0.36,1645111236.015625,P12,D09,1,1,1
1481,-0.62,1645111236.03125,P12,D09,1,1,1
1482,-0.84,1645111236.046875,P12,D09,1,1,1
1483,-0.97,1645111236.0625,P12,D09,1,1,1
1484,-0.94,1645111236.078125,P12,D09,1,1,1
1485,-0.75,1645111236.09375,P12,D09,1,1,1
1486,-0.42,1645111236.109375,P12,D09,1,1,1
1487,-0.08,1645111236.125,P12,D09,1,1,1
1488,0.18,1645111236.140625,P12,D09,1,1,1
1489,0.28,1645111236.15625,P12,D09,1,1,1
1490,0.26,1645111236.171875,P12,D09,1,1,1
1491,0.19,1645111236.1875,P12,D09,1,1,1
1492,0.14,1645111236.203125,P12,D09,1,1,1
1493,0.11,1645111236.21875,P12,D09,1,1,1
1494,0.06,1645111236.234375,P12,D09,1,1,1
1495,-0.05,1645111236.25,P12,D09,1,1,1
1496,-0.2,1645111236.265625,P12,D09,1,1,1
1497,-0.35,1645111236.28125,P12,D09,1,1,1
1498,-0.39,1645111236.296875,P12,D09,1,1,1
1499,-0.3,1645111236.3125,P12,D09,1,1,1
1500,-0.08,1645111236.328125,P12,D09,1,1,1
1501,0.19,1645111236.34375,P12,D09,1,1,1
1502,0.42,1645111236.359375,P12,D09,1,1,1
1503,0.55,1645111236.375,P12,D09,1,1,1
1504,0.58,1645111236.390625,P12,D09,1,1,1
1505,0.54,1645111236.40625,P12,D09,1,1,1
1506,0.46,1645111236.421875,P12,D09,1,1,1
1507,0.34,1645111236.4375,P12,D09,1,1,1
1508,0.2,1645111236.453125,P12,D09,1,1,1
1509,0.01,1645111236.46875,P12,D09,1,1,1
1510,-0.18,1645111236.484375,P12,D09,1,1,1
1511,-0.35,1645111236.5,P12,D09,1,1,1
1512,-0.47,1645111236.515625,P12,D09,1,1,1
1513,-0.54,1645111236.53125,P12,D09,1,1,1
1514,-0.56,1645111236.546875,P12,D09,1,1,1
1515,-0.54,1645111236.5625,P12,D09,1,1,1
1516,-0.46,1645111236.578125,P12,D09,1,1,1
1517,-0.35,1645111236.59375,P12,D09,1,1,1
1518,-0.2,1645111236.609375,P12,D09,1,1,1
1519,-0.06,1645111236.625,P12,D09,1,1,1
1520,0.03,1645111236.640625,P12,D09,1,1,1
1521,0.03,1645111236.65625,P12,D09,1,1,1
1522,-0.04,1645111236.671875,P12,D09,1,1,1
1523,-0.15,1645111236.6875,P12,D09,1,1,1
1524,-0.26,1645111236.703125,P12,D09,1,1,1
1525,-0.34,1645111236.71875,P12,D09,1,1,1
1526,-0.36,1645111236.734375,P12,D09,1,1,1
1527,-0.35,1645111236.75,P12,D09,1,1,1
1528,-0.32,1645111236.765625,P12,D09,1,1,1
1529,-0.28,1645111236.78125,P12,D09,1,1,1
1530,-0.24,1645111236.796875,P12,D09,1,1,1
1531,-0.2,1645111236.8125,P12,D09,1,1,1
1532,-0.15,1645111236.828125,P12,D09,1,1,1
1533,-0.1,1645111236.84375,P12,D09,1,1,1
1534,-0.06,1645111236.859375,P12,D09,1,1,1
1535,-0.08,1645111236.875,P12,D09,1,1,1
1536,-0.16,1645111236.890625,P12,D09,1,1,1
1537,-0.28,1645111236.90625,P12,D09,1,1,1
1538,-0.41,1645111236.921875,P12,D09,1,1,1
1539,-0.48,1645111236.9375,P12,D09,1,1,1
1540,-0.48,1645111236.953125,P12,D09,1,1,1
1541,-0.39,1645111236.96875,P12,D09,1,1,1
1542,-0.26,1645111236.984375,P12,D09,1,1,1
1543,-0.12,1645111237.0,P12,D09,1,1,1
1544,-0.06,1645111237.015625,P12,D09,1,1,1
1545,-0.08,1645111237.03125,P12,D09,1,1,1
1546,-0.2,1645111237.046875,P12,D09,1,1,1
1547,-0.33,1645111237.0625,P12,D09,1,1,1
1548,-0.42,1645111237.078125,P12,D09,1,1,1
1549,-0.39,1645111237.09375,P12,D09,1,1,1
1550,-0.23,1645111237.109375,P12,D09,1,1,1
1551,0.04,1645111237.125,P12,D09,1,1,1
1552,0.32,1645111237.140625,P12,D09,1,1,1
1553,0.52,1645111237.15625,P12,D09,1,1,1
1554,0.56,1645111237.171875,P12,D09,1,1,1
1555,0.46,1645111237.1875,P12,D09,1,1,1
1556,0.31,1645111237.203125,P12,D09,1,1,1
1557,0.2,1645111237.21875,P12,D09,1,1,1
1558,0.19,1645111237.234375,P12,D09,1,1,1
1559,0.25,1645111237.25,P12,D09,1,1,1
1560,0.33,1645111237.265625,P12,D09,1,1,1
1561,0.34,1645111237.28125,P12,D09,1,1,1
1562,0.28,1645111237.296875,P12,D09,1,1,1
1563,0.19,1645111237.3125,P12,D09,1,1,1
1564,0.14,1645111237.328125,P12,D09,1,1,1
1565,0.18,1645111237.34375,P12,D09,1,1,1
1566,0.31,1645111237.359375,P12,D09,1,1,1
1567,0.5,1645111237.375,P12,D09,1,1,1
1568,0.67,1645111237.390625,P12,D09,1,1,1
1569,0.77,1645111237.40625,P12,D09,1,1,1
1570,0.78,1645111237.421875,P12,D09,1,1,1
1571,0.7,1645111237.4375,P12,D09,1,1,1
1572,0.55,1645111237.453125,P12,D09,1,1,1
1573,0.33,1645111237.46875,P12,D09,1,1,1
1574,0.07,1645111237.484375,P12,D09,1,1,1
1575,-0.21,1645111237.5,P12,D09,1,1,1
1576,-0.47,1645111237.515625,P12,D09,1,1,1
1577,-0.67,1645111237.53125,P12,D09,1,1,1
1578,-0.76,1645111237.546875,P12,D09,1,1,1
1579,-0.76,1645111237.5625,P12,D09,1,1,1
1580,-0.68,1645111237.578125,P12,D09,1,1,1
1581,-0.56,1645111237.59375,P12,D09,1,1,1
1582,-0.43,1645111237.609375,P12,D09,1,1,1
1583,-0.27,1645111237.625,P12,D09,1,1,1
1584,-0.09,1645111237.640625,P12,D09,1,1,1
1585,0.11,1645111237.65625,P12,D09,1,1,1
1586,0.3,1645111237.671875,P12,D09,1,1,1
1587,0.42,1645111237.6875,P12,D09,1,1,1
1588,0.42,1645111237.703125,P12,D09,1,1,1
1589,0.3,1645111237.71875,P12,D09,1,1,1
1590,0.08,1645111237.734375,P12,D09,1,1,1
1591,-0.16,1645111237.75,P12,D09,1,1,1
1592,-0.36,1645111237.765625,P12,D09,1,1,1
1593,-0.5,1645111237.78125,P12,D09,1,1,1
1594,-0.58,1645111237.796875,P12,D09,1,1,1
1595,-0.66,1645111237.8125,P12,D09,1,1,1
1596,-0.79,1645111237.828125,P12,D09,1,1,1
1597,-0.96,1645111237.84375,P12,D09,1,1,1
1598,-1.16,1645111237.859375,P12,D09,1,1,1
1599,-1.31,1645111237.875,P12,D09,1,1,1
1600,-1.37,1645111237.890625,P12,D09,1,1,1
1601,-1.3,1645111237.90625,P12,D09,1,1,1
1602,-1.1,1645111237.921875,P12,D09,1,1,1
1603,-0.8,1645111237.9375,P12,D09,1,1,1
1604,-0.45,1645111237.953125,P12,D09,1,1,1
1605,-0.11,1645111237.96875,P12,D09,1,1,1
1606,0.15,1645111237.984375,P12,D09,1,1,1
1607,0.3,1645111238.0,P12,D09,1,1,1
1608,0.35,1645111238.015625,P12,D09,1,1,1
1609,0.33,1645111238.03125,P12,D09,1,1,1
1610,0.27,1645111238.046875,P12,D09,1,1,1
1611,0.2,1645111238.0625,P12,D09,1,1,1
1612,0.13,1645111238.078125,P12,D09,1,1,1
1613,0.04,1645111238.09375,P12,D09,1,1,1
1614,-0.06,1645111238.109375,P12,D09,1,1,1
1615,-0.14,1645111238.125,P12,D09,1,1,1
1616,-0.1,1645111238.140625,P12,D09,1,1,1
1617,0.12,1645111238.15625,P12,D09,1,1,1
1618,0.54,1645111238.171875,P12,D09,1,1,1
1619,1.04,1645111238.1875,P12,D09,1,1,1
1620,1.44,1645111238.203125,P12,D09,1,1,1
1621,1.55,1645111238.21875,P12,D09,1,1,1
1622,1.31,1645111238.234375,P12,D09,1,1,1
1623,0.79,1645111238.25,P12,D09,1,1,1
1624,0.19,1645111238.265625,P12,D09,1,1,1
1625,-0.31,1645111238.28125,P12,D09,1,1,1
1626,-0.54,1645111238.296875,P12,D09,1,1,1
1627,-0.5,1645111238.3125,P12,D09,1,1,1
1628,-0.24,1645111238.328125,P12,D09,1,1,1
1629,0.1,1645111238.34375,P12,D09,1,1,1
1630,0.43,1645111238.359375,P12,D09,1,1,1
1631,0.69,1645111238.375,P12,D09,1,1,1
1632,0.85,1645111238.390625,P12,D09,1,1,1
1633,0.93,1645111238.40625,P12,D09,1,1,1
1634,0.92,1645111238.421875,P12,D09,1,1,1
1635,0.83,1645111238.4375,P12,D09,1,1,1
1636,0.67,1645111238.453125,P12,D09,1,1,1
1637,0.43,1645111238.46875,P12,D09,1,1,1
1638,0.12,1645111238.484375,P12,D09,1,1,1
1639,-0.24,1645111238.5,P12,D09,1,1,1
1640,-0.57,1645111238.515625,P12,D09,1,1,1
1641,-0.8,1645111238.53125,P12,D09,1,1,1
1642,-0.87,1645111238.546875,P12,D09,1,1,1
1643,-0.77,1645111238.5625,P12,D09,1,1,1
1644,-0.53,1645111238.578125,P12,D09,1,1,1
1645,-0.26,1645111238.59375,P12,D09,1,1,1
1646,-0.03,1645111238.609375,P12,D09,1,1,1
1647,0.09,1645111238.625,P12,D09,1,1,1
1648,0.12,1645111238.640625,P12,D09,1,1,1
1649,0.13,1645111238.65625,P12,D09,1,1,1
1650,0.17,1645111238.671875,P12,D09,1,1,1
1651,0.27,1645111238.6875,P12,D09,1,1,1
1652,0.43,1645111238.703125,P12,D09,1,1,1
1653,0.58,1645111238.71875,P12,D09,1,1,1
1654,0.69,1645111238.734375,P12,D09,1,1,1
1655,0.77,1645111238.75,P12,D09,1,1,1
1656,0.8,1645111238.765625,P12,D09,1,1,1
1657,0.81,1645111238.78125,P12,D09,1,1,1
1658,0.79,1645111238.796875,P12,D09,1,1,1
1659,0.7,1645111238.8125,P12,D09,1,1,1
1660,0.55,1645111238.828125,P12,D09,1,1,1
1661,0.33,1645111238.84375,P12,D09,1,1,1
1662,0.09,1645111238.859375,P12,D09,1,1,1
1663,-0.11,1645111238.875,P12,D09,1,1,1
1664,-0.22,1645111238.890625,P12,D09,1,1,1
1665,-0.21,1645111238.90625,P12,D09,1,1,1
1666,-0.12,1645111238.921875,P12,D09,1,1,1
1667,-0.01,1645111238.9375,P12,D09,1,1,1
1668,0.01,1645111238.953125,P12,D09,1,1,1
1669,-0.12,1645111238.96875,P12,D09,1,1,1
1670,-0.4,1645111238.984375,P12,D09,1,1,1
1671,-0.78,1645111239.0,P12,D09,1,1,1
1672,-1.13,1645111239.015625,P12,D09,1,1,1
1673,-1.33,1645111239.03125,P12,D09,1,1,1
1674,-1.33,1645111239.046875,P12,D09,1,1,1
1675,-1.13,1645111239.0625,P12,D09,1,1,1
1676,-0.82,1645111239.078125,P12,D09,1,1,1
1677,-0.51,1645111239.09375,P12,D09,1,1,1
1678,-0.29,1645111239.109375,P12,D09,1,1,1
1679,-0.19,1645111239.125,P12,D09,1,1,1
1680,-0.18,1645111239.140625,P12,D09,1,1,1
1681,-0.22,1645111239.15625,P12,D09,1,1,1
1682,-0.23,1645111239.171875,P12,D09,1,1,1
1683,-0.16,1645111239.1875,P12,D09,1,1,1
1684,-0.01,1645111239.203125,P12,D09,1,1,1
1685,0.18,1645111239.21875,P12,D09,1,1,1
1686,0.34,1645111239.234375,P12,D09,1,1,1
1687,0.41,1645111239.25,P12,D09,1,1,1
1688,0.35,1645111239.265625,P12,D09,1,1,1
1689,0.22,1645111239.28125,P12,D09,1,1,1
1690,0.11,1645111239.296875,P12,D09,1,1,1
1691,0.1,1645111239.3125,P12,D09,1,1,1
1692,0.2,1645111239.328125,P12,D09,1,1,1
1693,0.34,1645111239.34375,P12,D09,1,1,1
1694,0.41,1645111239.359375,P12,D09,1,1,1
1695,0.32,1645111239.375,P12,D09,1,1,1
1696,0.05,1645111239.390625,P12,D09,1,1,1
1697,-0.3,1645111239.40625,P12,D09,1,1,1
1698,-0.61,1645111239.421875,P12,D09,1,1,1
1699,-0.77,1645111239.4375,P12,D09,1,1,1
1700,-0.74,1645111239.453125,P12,D09,1,1,1
1701,-0.55,1645111239.46875,P12,D09,1,1,1
1702,-0.23,1645111239.484375,P12,D09,1,1,1
1703,0.13,1645111239.5,P12,D09,1,1,1
1704,0.45,1645111239.515625,P12,D09,1,1,1
1705,0.64,1645111239.53125,P12,D09,1,1,1
1706,0.63,1645111239.546875,P12,D09,1,1,1
1707,0.4,1645111239.5625,P12,D09,1,1,1
1708,0.04,1645111239.578125,P12,D09,1,1,1
1709,-0.33,1645111239.59375,P12,D09,1,1,1
1710,-0.55,1645111239.609375,P12,D09,1,1,1
1711,-0.55,1645111239.625,P12,D09,1,1,1
1712,-0.39,1645111239.640625,P12,D09,1,1,1
1713,-0.18,1645111239.65625,P12,D09,1,1,1
1714,-0.02,1645111239.671875,P12,D09,1,1,1
1715,0.09,1645111239.6875,P12,D09,1,1,1
1716,0.21,1645111239.703125,P12,D09,1,1,1
1717,0.43,1645111239.71875,P12,D09,1,1,1
1718,0.73,1645111239.734375,P12,D09,1,1,1
1719,0.99,1645111239.75,P12,D09,1,1,1
1720,1.03,1645111239.765625,P12,D09,1,1,1
1721,0.75,1645111239.78125,P12,D09,1,1,1
1722,0.2,1645111239.796875,P12,D09,1,1,1
1723,-0.39,1645111239.8125,P12,D09,1,1,1
1724,-0.74,1645111239.828125,P12,D09,1,1,1
1725,-0.66,1645111239.84375,P12,D09,1,1,1
1726,-0.15,1645111239.859375,P12,D09,1,1,1
1727,0.6,1645111239.875,P12,D09,1,1,1
1728,1.3,1645111239.890625,P12,D09,1,1,1
1729,1.72,1645111239.90625,P12,D09,1,1,1
1730,1.78,1645111239.921875,P12,D09,1,1,1
1731,1.54,1645111239.9375,P12,D09,1,1,1
1732,1.16,1645111239.953125,P12,D09,1,1,1
1733,0.81,1645111239.96875,P12,D09,1,1,1
1734,0.56,1645111239.984375,P12,D09,1,1,1
1735,0.4,1645111240.0,P12,D09,1,1,1
1736,0.28,1645111240.015625,P12,D09,1,1,1
1737,0.1,1645111240.03125,P12,D09,1,1,1
1738,-0.17,1645111240.046875,P12,D09,1,1,1
1739,-0.51,1645111240.0625,P12,D09,1,1,1
1740,-0.87,1645111240.078125,P12,D09,1,1,1
1741,-1.15,1645111240.09375,P12,D09,1,1,1
1742,-1.31,1645111240.109375,P12,D09,1,1,1
1743,-1.31,1645111240.125,P12,D09,1,1,1
1744,-1.18,1645111240.140625,P12,D09,1,1,1
1745,-0.95,1645111240.15625,P12,D09,1,1,1
1746,-0.7,1645111240.171875,P12,D09,1,1,1
1747,-0.45,1645111240.1875,P12,D09,1,1,1
1748,-0.2,1645111240.203125,P12,D09,1,1,1
1749,0.04,1645111240.21875,P12,D09,1,1,1
1750,0.26,1645111240.234375,P12,D09,1,1,1
1751,0.44,1645111240.25,P12,D09,1,1,1
1752,0.54,1645111240.265625,P12,D09,1,1,1
1753,0.52,1645111240.28125,P12,D09,1,1,1
1754,0.4,1645111240.296875,P12,D09,1,1,1
1755,0.22,1645111240.3125,P12,D09,1,1,1
1756,0.07,1645111240.328125,P12,D09,1,1,1
1757,0.03,1645111240.34375,P12,D09,1,1,1
1758,0.17,1645111240.359375,P12,D09,1,1,1
1759,0.47,1645111240.375,P12,D09,1,1,1
1760,0.87,1645111240.390625,P12,D09,1,1,1
1761,1.26,1645111240.40625,P12,D09,1,1,1
1762,1.49,1645111240.421875,P12,D09,1,1,1
1763,1.45,1645111240.4375,P12,D09,1,1,1
1764,1.12,1645111240.453125,P12,D09,1,1,1
1765,0.57,1645111240.46875,P12,D09,1,1,1
1766,-0.05,1645111240.484375,P12,D09,1,1,1
1767,-0.56,1645111240.5,P12,D09,1,1,1
1768,-0.84,1645111240.515625,P12,D09,1,1,1
1769,-0.84,1645111240.53125,P12,D09,1,1,1
1770,-0.62,1645111240.546875,P12,D09,1,1,1
1771,-0.31,1645111240.5625,P12,D09,1,1,1
1772,-0.04,1645111240.578125,P12,D09,1,1,1
1773,0.09,1645111240.59375,P12,D09,1,1,1
1774,0.04,1645111240.609375,P12,D09,1,1,1
1775,-0.13,1645111240.625,P12,D09,1,1,1
1776,-0.34,1645111240.640625,P12,D09,1,1,1
1777,-0.49,1645111240.65625,P12,D09,1,1,1
1778,-0.53,1645111240.671875,P12,D09,1,1,1
1779,-0.45,1645111240.6875,P12,D09,1,1,1
1780,-0.32,1645111240.703125,P12,D09,1,1,1
1781,-0.17,1645111240.71875,P12,D09,1,1,1
1782,-0.05,1645111240.734375,P12,D09,1,1,1
1783,0.07,1645111240.75,P12,D09,1,1,1
1784,0.2,1645111240.765625,P12,D09,1,1,1
1785,0.35,1645111240.78125,P12,D09,1,1,1
1786,0.47,1645111240.796875,P12,D09,1,1,1
1787,0.48,1645111240.8125,P12,D09,1,1,1
1788,0.36,1645111240.828125,P12,D09,1,1,1
1789,0.11,1645111240.84375,P12,D09,1,1,1
1790,-0.16,1645111240.859375,P12,D09,1,1,1
1791,-0.34,1645111240.875,P12,D09,1,1,1
1792,-0.36,1645111240.890625,P12,D09,1,1,1
1793,-0.26,1645111240.90625,P12,D09,1,1,1
1794,-0.15,1645111240.921875,P12,D09,1,1,1
1795,-0.12,1645111240.9375,P12,D09,1,1,1
1796,-0.23,1645111240.953125,P12,D09,1,1,1
1797,-0.41,1645111240.96875,P12,D09,1,1,1
1798,-0.57,1645111240.984375,P12,D09,1,1,1
1799,-0.59,1645111241.0,P12,D09,1,1,1
1800,-0.48,1645111241.015625,P12,D09,1,1,1
1801,-0.29,1645111241.03125,P12,D09,1,1,1
1802,-0.14,1645111241.046875,P12,D09,1,1,1
1803,-0.11,1645111241.0625,P12,D09,1,1,1
1804,-0.22,1645111241.078125,P12,D09,1,1,1
1805,-0.37,1645111241.09375,P12,D09,1,1,1
1806,-0.48,1645111241.109375,P12,D09,1,1,1
1807,-0.5,1645111241.125,P12,D09,1,1,1
1808,-0.45,1645111241.140625,P12,D09,1,1,1
1809,-0.4,1645111241.15625,P12,D09,1,1,1
1810,-0.39,1645111241.171875,P12,D09,1,1,1
1811,-0.42,1645111241.1875,P12,D09,1,1,1
1812,-0.45,1645111241.203125,P12,D09,1,1,1
1813,-0.4,1645111241.21875,P12,D09,1,1,1
1814,-0.25,1645111241.234375,P12,D09,1,1,1
1815,-0.03,1645111241.25,P12,D09,1,1,1
1816,0.18,1645111241.265625,P12,D09,1,1,1
1817,0.28,1645111241.28125,P12,D09,1,1,1
1818,0.23,1645111241.296875,P12,D09,1,1,1
1819,0.08,1645111241.3125,P12,D09,1,1,1
1820,-0.11,1645111241.328125,P12,D09,1,1,1
1821,-0.24,1645111241.34375,P12,D09,1,1,1
1822,-0.27,1645111241.359375,P12,D09,1,1,1
1823,-0.18,1645111241.375,P12,D09,1,1,1
1824,-0.04,1645111241.390625,P12,D09,1,1,1
1825,0.11,1645111241.40625,P12,D09,1,1,1
1826,0.23,1645111241.421875,P12,D09,1,1,1
1827,0.28,1645111241.4375,P12,D09,1,1,1
1828,0.27,1645111241.453125,P12,D09,1,1,1
1829,0.21,1645111241.46875,P12,D09,1,1,1
1830,0.14,1645111241.484375,P12,D09,1,1,1
1831,0.06,1645111241.5,P12,D09,1,1,1
1832,-0.01,1645111241.515625,P12,D09,1,1,1
1833,-0.08,1645111241.53125,P12,D09,1,1,1
1834,-0.13,1645111241.546875,P12,D09,1,1,1
1835,-0.19,1645111241.5625,P12,D09,1,1,1
1836,-0.29,1645111241.578125,P12,D09,1,1,1
1837,-0.44,1645111241.59375,P12,D09,1,1,1
1838,-0.65,1645111241.609375,P12,D09,1,1,1
1839,-0.86,1645111241.625,P12,D09,1,1,1
1840,-1.01,1645111241.640625,P12,D09,1,1,1
1841,-1.04,1645111241.65625,P12,D09,1,1,1
1842,-0.94,1645111241.671875,P12,D09,1,1,1
1843,-0.73,1645111241.6875,P12,D09,1,1,1
1844,-0.49,1645111241.703125,P12,D09,1,1,1
1845,-0.26,1645111241.71875,P12,D09,1,1,1
1846,-0.07,1645111241.734375,P12,D09,1,1,1
1847,0.07,1645111241.75,P12,D09,1,1,1
1848,0.18,1645111241.765625,P12,D09,1,1,1
1849,0.27,1645111241.78125,P12,D09,1,1,1
1850,0.34,1645111241.796875,P12,D09,1,1,1
1851,0.38,1645111241.8125,P12,D09,1,1,1
1852,0.39,1645111241.828125,P12,D09,1,1,1
1853,0.36,1645111241.84375,P12,D09,1,1,1
1854,0.32,1645111241.859375,P12,D09,1,1,1
1855,0.29,1645111241.875,P12,D09,1,1,1
1856,0.26,1645111241.890625,P12,D09,1,1,1
1857,0.22,1645111241.90625,P12,D09,1,1,1
1858,0.17,1645111241.921875,P12,D09,1,1,1
1859,0.12,1645111241.9375,P12,D09,1,1,1
1860,0.09,1645111241.953125,P12,D09,1,1,1
1861,0.13,1645111241.96875,P12,D09,1,1,1
1862,0.24,1645111241.984375,P12,D09,1,1,1
1863,0.43,1645111242.0,P12,D09,1,1,1
1864,0.61,1645111242.015625,P12,D09,1,1,1
1865,0.72,1645111242.03125,P12,D09,1,1,1
1866,0.7,1645111242.046875,P12,D09,1,1,1
1867,0.53,1645111242.0625,P12,D09,1,1,1
1868,0.28,1645111242.078125,P12,D09,1,1,1
1869,0.03,1645111242.09375,P12,D09,1,1,1
1870,-0.1,1645111242.109375,P12,D09,1,1,1
1871,-0.07,1645111242.125,P12,D09,1,1,1
1872,0.1,1645111242.140625,P12,D09,1,1,1
1873,0.33,1645111242.15625,P12,D09,1,1,1
1874,0.51,1645111242.171875,P12,D09,1,1,1
1875,0.53,1645111242.1875,P12,D09,1,1,1
1876,0.34,1645111242.203125,P12,D09,1,1,1
1877,-0.01,1645111242.21875,P12,D09,1,1,1
1878,-0.44,1645111242.234375,P12,D09,1,1,1
1879,-0.83,1645111242.25,P12,D09,1,1,1
1880,-1.07,1645111242.265625,P12,D09,1,1,1
1881,-1.12,1645111242.28125,P12,D09,1,1,1
1882,-1.0,1645111242.296875,P12,D09,1,1,1
1883,-0.75,1645111242.3125,P12,D09,1,1,1
1884,-0.42,1645111242.328125,P12,D09,1,1,1
1885,-0.05,1645111242.34375,P12,D09,1,1,1
1886,0.3,1645111242.359375,P12,D09,1,1,1
1887,0.58,1645111242.375,P12,D09,1,1,1
1888,0.7,1645111242.390625,P12,D09,1,1,1
1889,0.61,1645111242.40625,P12,D09,1,1,1
1890,0.32,1645111242.421875,P12,D09,1,1,1
1891,-0.08,1645111242.4375,P12,D09,1,1,1
1892,-0.43,1645111242.453125,P12,D09,1,1,1
1893,-0.6,1645111242.46875,P12,D09,1,1,1
1894,-0.53,1645111242.484375,P12,D09,1,1,1
1895,-0.27,1645111242.5,P12,D09,1,1,1
1896,0.06,1645111242.515625,P12,D09,1,1,1
1897,0.32,1645111242.53125,P12,D09,1,1,1
1898,0.46,1645111242.546875,P12,D09,1,1,1
1899,0.45,1645111242.5625,P12,D09,1,1,1
1900,0.36,1645111242.578125,P12,D09,1,1,1
1901,0.24,1645111242.59375,P12,D09,1,1,1
1902,0.11,1645111242.609375,P12,D09,1,1,1
1903,0.0,1645111242.625,P12,D09,1,1,1
1904,-0.09,1645111242.640625,P12,D09,1,1,1
1905,-0.14,1645111242.65625,P12,D09,1,1,1
1906,-0.14,1645111242.671875,P12,D09,1,1,1
1907,-0.07,1645111242.6875,P12,D09,1,1,1
1908,0.06,1645111242.703125,P12,D09,1,1,1
1909,0.21,1645111242.71875,P12,D09,1,1,1
1910,0.3,1645111242.734375,P12,D09,1,1,1
1911,0.29,1645111242.75,P12,D09,1,1,1
1912,0.17,1645111242.765625,P12,D09,1,1,1
1913,-0.01,1645111242.78125,P12,D09,1,1,1
1914,-0.19,1645111242.796875,P12,D09,1,1,1
1915,-0.27,1645111242.8125,P12,D09,1,1,1
1916,-0.21,1645111242.828125,P12,D09,1,1,1
1917,-0.02,1645111242.84375,P12,D09,1,1,1
1918,0.27,1645111242.859375,P12,D09,1,1,1
1919,0.58,1645111242.875,P12,D09,1,1,1
1920,0.84,1645111242.890625,P12,D09,1,1,1
1921,0.99,1645111242.90625,P12,D09,1,1,1
1922,0.99,1645111242.921875,P12,D09,1,1,1
1923,0.81,1645111242.9375,P12,D09,1,1,1
1924,0.47,1645111242.953125,P12,D09,1,1,1
1925,0.02,1645111242.96875,P12,D09,1,1,1
1926,-0.47,1645111242.984375,P12,D09,1,1,1
1927,-0.87,1645111243.0,P12,D09,1,1,1
1928,-1.14,1645111243.015625,P12,D09,1,1,1
1929,-1.22,1645111243.03125,P12,D09,1,1,1
1930,-1.12,1645111243.046875,P12,D09,1,1,1
1931,-0.88,1645111243.0625,P12,D09,1,1,1
1932,-0.54,1645111243.078125,P12,D09,1,1,1
1933,-0.13,1645111243.09375,P12,D09,1,1,1
1934,0.3,1645111243.109375,P12,D09,1,1,1
1935,0.71,1645111243.125,P12,D09,1,1,1
1936,1.04,1645111243.140625,P12,D09,1,1,1
1937,1.19,1645111243.15625,P12,D09,1,1,1
1938,1.14,1645111243.171875,P12,D09,1,1,1
1939,0.88,1645111243.1875,P12,D09,1,1,1
1940,0.53,1645111243.203125,P12,D09,1,1,1
1941,0.23,1645111243.21875,P12,D09,1,1,1
1942,0.12,1645111243.234375,P12,D09,1,1,1
1943,0.22,1645111243.25,P12,D09,1,1,1
1944,0.43,1645111243.265625,P12,D09,1,1,1
1945,0.61,1645111243.28125,P12,D09,1,1,1
1946,0.62,1645111243.296875,P12,D09,1,1,1
1947,0.38,1645111243.3125,P12,D09,1,1,1
1948,-0.07,1645111243.328125,P12,D09,1,1,1
1949,-0.64,1645111243.34375,P12,D09,1,1,1
1950,-1.2,1645111243.359375,P12,D09,1,1,1
1951,-1.65,1645111243.375,P12,D09,1,1,1
1952,-1.9,1645111243.390625,P12,D09,1,1,1
1953,-1.92,1645111243.40625,P12,D09,1,1,1
1954,-1.68,1645111243.421875,P12,D09,1,1,1
1955,-1.2,1645111243.4375,P12,D09,1,1,1
1956,-0.56,1645111243.453125,P12,D09,1,1,1
1957,0.1,1645111243.46875,P12,D09,1,1,1
1958,0.65,1645111243.484375,P12,D09,1,1,1
1959,1.01,1645111243.5,P12,D09,1,1,1
1960,1.14,1645111243.515625,P12,D09,1,1,1
1961,1.1,1645111243.53125,P12,D09,1,1,1
1962,0.98,1645111243.546875,P12,D09,1,1,1
1963,0.86,1645111243.5625,P12,D09,1,1,1
1964,0.78,1645111243.578125,P12,D09,1,1,1
1965,0.75,1645111243.59375,P12,D09,1,1,1
1966,0.73,1645111243.609375,P12,D09,1,1,1
1967,0.7,1645111243.625,P12,D09,1,1,1
1968,0.64,1645111243.640625,P12,D09,1,1,1
1969,0.58,1645111243.65625,P12,D09,1,1,1
1970,0.55,1645111243.671875,P12,D09,1,1,1
1971,0.59,1645111243.6875,P12,D09,1,1,1
1972,0.68,1645111243.703125,P12,D09,1,1,1
1973,0.75,1645111243.71875,P12,D09,1,1,1
1974,0.75,1645111243.734375,P12,D09,1,1,1
1975,0.61,1645111243.75,P12,D09,1,1,1
1976,0.35,1645111243.765625,P12,D09,1,1,1
1977,0.04,1645111243.78125,P12,D09,1,1,1
1978,-0.24,1645111243.796875,P12,D09,1,1,1
1979,-0.41,1645111243.8125,P12,D09,1,1,1
1980,-0.51,1645111243.828125,P12,D09,1,1,1
1981,-0.6,1645111243.84375,P12,D09,1,1,1
1982,-0.73,1645111243.859375,P12,D09,1,1,1
1983,-0.95,1645111243.875,P12,D09,1,1,1
1984,-1.21,1645111243.890625,P12,D09,1,1,1
1985,-1.41,1645111243.90625,P12,D09,1,1,1
1986,-1.48,1645111243.921875,P12,D09,1,1,1
1987,-1.38,1645111243.9375,P12,D09,1,1,1
1988,-1.16,1645111243.953125,P12,D09,1,1,1
1989,-0.92,1645111243.96875,P12,D09,1,1,1
1990,-0.74,1645111243.984375,P12,D09,1,1,1
1991,-0.63,1645111244.0,P12,D09,1,1,1
1992,-0.57,1645111244.015625,P12,D09,1,1,1
1993,-0.51,1645111244.03125,P12,D09,1,1,1
1994,-0.43,1645111244.046875,P12,D09,1,1,1
1995,-0.37,1645111244.0625,P12,D09,1,1,1
1996,-0.34,1645111244.078125,P12,D09,1,1,1
1997,-0.33,1645111244.09375,P12,D09,1,1,1
1998,-0.26,1645111244.109375,P12,D09,1,1,1
1999,-0.04,1645111244.125,P12,D09,1,1,1
2000,0.34,1645111244.140625,P12,D09,1,1,1
2001,0.82,1645111244.15625,P12,D09,1,1,1
2002,1.26,1645111244.171875,P12,D09,1,1,1
2003,1.47,1645111244.1875,P12,D09,1,1,1
2004,1.38,1645111244.203125,P12,D09,1,1,1
2005,1.02,1645111244.21875,P12,D09,1,1,1
2006,0.53,1645111244.234375,P12,D09,1,1,1
2007,0.09,1645111244.25,P12,D09,1,1,1
2008,-0.17,1645111244.265625,P12,D09,1,1,1
2009,-0.21,1645111244.28125,P12,D09,1,1,1
2010,-0.08,1645111244.296875,P12,D09,1,1,1
2011,0.16,1645111244.3125,P12,D09,1,1,1
2012,0.47,1645111244.328125,P12,D09,1,1,1
2013,0.76,1645111244.34375,P12,D09,1,1,1
2014,0.99,1645111244.359375,P12,D09,1,1,1
2015,1.06,1645111244.375,P12,D09,1,1,1
2016,0.93,1645111244.390625,P12,D09,1,1,1
2017,0.58,1645111244.40625,P12,D09,1,1,1
2018,0.13,1645111244.421875,P12,D09,1,1,1
2019,-0.23,1645111244.4375,P12,D09,1,1,1
2020,-0.36,1645111244.453125,P12,D09,1,1,1
2021,-0.21,1645111244.46875,P12,D09,1,1,1
2022,0.12,1645111244.484375,P12,D09,1,1,1
2023,0.45,1645111244.5,P12,D09,1,1,1
2024,0.59,1645111244.515625,P12,D09,1,1,1
2025,0.47,1645111244.53125,P12,D09,1,1,1
2026,0.18,1645111244.546875,P12,D09,1,1,1
2027,-0.07,1645111244.5625,P12,D09,1,1,1
2028,-0.13,1645111244.578125,P12,D09,1,1,1
2029,0.05,1645111244.59375,P12,D09,1,1,1
2030,0.37,1645111244.609375,P12,D09,1,1,1
2031,0.66,1645111244.625,P12,D09,1,1,1
2032,0.79,1645111244.640625,P12,D09,1,1,1
2033,0.72,1645111244.65625,P12,D09,1,1,1
2034,0.54,1645111244.671875,P12,D09,1,1,1
2035,0.38,1645111244.6875,P12,D09,1,1,1
2036,0.33,1645111244.703125,P12,D09,1,1,1
2037,0.37,1645111244.71875,P12,D09,1,1,1
2038,0.41,1645111244.734375,P12,D09,1,1,1
2039,0.33,1645111244.75,P12,D09,1,1,1
2040,0.08,1645111244.765625,P12,D09,1,1,1
2041,-0.31,1645111244.78125,P12,D09,1,1,1
2042,-0.73,1645111244.796875,P12,D09,1,1,1
2043,-1.05,1645111244.8125,P12,D09,1,1,1
2044,-1.19,1645111244.828125,P12,D09,1,1,1
2045,-1.13,1645111244.84375,P12,D09,1,1,1
2046,-0.96,1645111244.859375,P12,D09,1,1,1
2047,-0.76,1645111244.875,P12,D09,1,1,1
2048,-0.57,1645111244.890625,P12,D09,1,1,1
2049,-0.41,1645111244.90625,P12,D09,1,1,1
2050,-0.21,1645111244.921875,P12,D09,1,1,1
2051,0.05,1645111244.9375,P12,D09,1,1,1
2052,0.37,1645111244.953125,P12,D09,1,1,1
2053,0.67,1645111244.96875,P12,D09,1,1,1
2054,0.87,1645111244.984375,P12,D09,1,1,1
2055,0.87,1645111245.0,P12,D09,1,1,1
2056,0.68,1645111245.015625,P12,D09,1,1,1
2057,0.38,1645111245.03125,P12,D09,1,1,1
2058,0.11,1645111245.046875,P12,D09,1,1,1
2059,-0.0,1645111245.0625,P12,D09,1,1,1
2060,0.07,1645111245.078125,P12,D09,1,1,1
2061,0.26,1645111245.09375,P12,D09,1,1,1
2062,0.4,1645111245.109375,P12,D09,1,1,1
2063,0.35,1645111245.125,P12,D09,1,1,1
2064,0.04,1645111245.140625,P12,D09,1,1,1
2065,-0.44,1645111245.15625,P12,D09,1,1,1
2066,-0.94,1645111245.171875,P12,D09,1,1,1
2067,-1.26,1645111245.1875,P12,D09,1,1,1
2068,-1.28,1645111245.203125,P12,D09,1,1,1
2069,-1.01,1645111245.21875,P12,D09,1,1,1
2070,-0.6,1645111245.234375,P12,D09,1,1,1
2071,-0.19,1645111245.25,P12,D09,1,1,1
2072,0.08,1645111245.265625,P12,D09,1,1,1
2073,0.19,1645111245.28125,P12,D09,1,1,1
2074,0.19,1645111245.296875,P12,D09,1,1,1
2075,0.14,1645111245.3125,P12,D09,1,1,1
2076,0.06,1645111245.328125,P12,D09,1,1,1
2077,-0.07,1645111245.34375,P12,D09,1,1,1
2078,-0.28,1645111245.359375,P12,D09,1,1,1
2079,-0.57,1645111245.375,P12,D09,1,1,1
2080,-0.87,1645111245.390625,P12,D09,1,1,1
2081,-1.13,1645111245.40625,P12,D09,1,1,1
2082,-1.27,1645111245.421875,P12,D09,1,1,1
2083,-1.31,1645111245.4375,P12,D09,1,1,1
2084,-1.26,1645111245.453125,P12,D09,1,1,1
2085,-1.18,1645111245.46875,P12,D09,1,1,1
2086,-1.09,1645111245.484375,P12,D09,1,1,1
2087,-1.0,1645111245.5,P12,D09,1,1,1
2088,-0.86,1645111245.515625,P12,D09,1,1,1
2089,-0.65,1645111245.53125,P12,D09,1,1,1
2090,-0.39,1645111245.546875,P12,D09,1,1,1
2091,-0.1,1645111245.5625,P12,D09,1,1,1
2092,0.18,1645111245.578125,P12,D09,1,1,1
2093,0.42,1645111245.59375,P12,D09,1,1,1
2094,0.65,1645111245.609375,P12,D09,1,1,1
2095,0.84,1645111245.625,P12,D09,1,1,1
2096,1.0,1645111245.640625,P12,D09,1,1,1
2097,1.08,1645111245.65625,P12,D09,1,1,1
2098,1.03,1645111245.671875,P12,D09,1,1,1
2099,0.81,1645111245.6875,P12,D09,1,1,1
2100,0.43,1645111245.703125,P12,D09,1,1,1
2101,-0.03,1645111245.71875,P12,D09,1,1,1
2102,-0.46,1645111245.734375,P12,D09,1,1,1
2103,-0.74,1645111245.75,P12,D09,1,1,1
2104,-0.74,1645111245.765625,P12,D09,1,1,1
2105,-0.46,1645111245.78125,P12,D09,1,1,1
2106,0.04,1645111245.796875,P12,D09,1,1,1
2107,0.57,1645111245.8125,P12,D09,1,1,1
2108,0.94,1645111245.828125,P12,D09,1,1,1
2109,1.04,1645111245.84375,P12,D09,1,1,1
2110,0.82,1645111245.859375,P12,D09,1,1,1
2111,0.41,1645111245.875,P12,D09,1,1,1
2112,-0.04,1645111245.890625,P12,D09,1,1,1
2113,-0.36,1645111245.90625,P12,D09,1,1,1
2114,-0.48,1645111245.921875,P12,D09,1,1,1
2115,-0.43,1645111245.9375,P12,D09,1,1,1
2116,-0.27,1645111245.953125,P12,D09,1,1,1
2117,-0.07,1645111245.96875,P12,D09,1,1,1
2118,0.13,1645111245.984375,P12,D09,1,1,1
2119,0.33,1645111246.0,P12,D09,1,1,1
2120,0.52,1645111246.015625,P12,D09,1,1,1
2121,0.68,1645111246.03125,P12,D09,1,1,1
2122,0.75,1645111246.046875,P12,D09,1,1,1
2123,0.69,1645111246.0625,P12,D09,1,1,1
2124,0.5,1645111246.078125,P12,D09,1,1,1
2125,0.21,1645111246.09375,P12,D09,1,1,1
2126,-0.1,1645111246.109375,P12,D09,1,1,1
2127,-0.36,1645111246.125,P12,D09,1,1,1
2128,-0.52,1645111246.140625,P12,D09,1,1,1
2129,-0.56,1645111246.15625,P12,D09,1,1,1
2130,-0.48,1645111246.171875,P12,D09,1,1,1
2131,-0.32,1645111246.1875,P12,D09,1,1,1
2132,-0.12,1645111246.203125,P12,D09,1,1,1
2133,0.09,1645111246.21875,P12,D09,1,1,1
2134,0.24,1645111246.234375,P12,D09,1,1,1
2135,0.3,1645111246.25,P12,D09,1,1,1
2136,0.25,1645111246.265625,P12,D09,1,1,1
2137,0.14,1645111246.28125,P12,D09,1,1,1
2138,-0.0,1645111246.296875,P12,D09,1,1,1
2139,-0.09,1645111246.3125,P12,D09,1,1,1
2140,-0.1,1645111246.328125,P12,D09,1,1,1
2141,-0.03,1645111246.34375,P12,D09,1,1,1
2142,0.08,1645111246.359375,P12,D09,1,1,1
2143,0.21,1645111246.375,P12,D09,1,1,1
2144,0.35,1645111246.390625,P12,D09,1,1,1
2145,0.51,1645111246.40625,P12,D09,1,1,1
2146,0.7,1645111246.421875,P12,D09,1,1,1
2147,0.85,1645111246.4375,P12,D09,1,1,1
2148,0.88,1645111246.453125,P12,D09,1,1,1
2149,0.7,1645111246.46875,P12,D09,1,1,1
2150,0.32,1645111246.484375,P12,D09,1,1,1
2151,-0.17,1645111246.5,P12,D09,1,1,1
2152,-0.61,1645111246.515625,P12,D09,1,1,1
2153,-0.89,1645111246.53125,P12,D09,1,1,1
2154,-1.0,1645111246.546875,P12,D09,1,1,1
2155,-1.01,1645111246.5625,P12,D09,1,1,1
2156,-1.02,1645111246.578125,P12,D09,1,1,1
2157,-1.09,1645111246.59375,P12,D09,1,1,1
2158,-1.16,1645111246.609375,P12,D09,1,1,1
2159,-1.15,1645111246.625,P12,D09,1,1,1
2160,-1.02,1645111246.640625,P12,D09,1,1,1
2161,-0.8,1645111246.65625,P12,D09,1,1,1
2162,-0.6,1645111246.671875,P12,D09,1,1,1
2163,-0.5,1645111246.6875,P12,D09,1,1,1
2164,-0.52,1645111246.703125,P12,D09,1,1,1
2165,-0.59,1645111246.71875,P12,D09,1,1,1
2166,-0.6,1645111246.734375,P12,D09,1,1,1
2167,-0.5,1645111246.75,P12,D09,1,1,1
2168,-0.3,1645111246.765625,P12,D09,1,1,1
2169,-0.07,1645111246.78125,P12,D09,1,1,1
2170,0.13,1645111246.796875,P12,D09,1,1,1
2171,0.32,1645111246.8125,P12,D09,1,1,1
2172,0.5,1645111246.828125,P12,D09,1,1,1
2173,0.72,1645111246.84375,P12,D09,1,1,1
2174,0.92,1645111246.859375,P12,D09,1,1,1
2175,1.03,1645111246.875,P12,D09,1,1,1
2176,0.98,1645111246.890625,P12,D09,1,1,1
2177,0.79,1645111246.90625,P12,D09,1,1,1
2178,0.57,1645111246.921875,P12,D09,1,1,1
2179,0.47,1645111246.9375,P12,D09,1,1,1
2180,0.57,1645111246.953125,P12,D09,1,1,1
2181,0.83,1645111246.96875,P12,D09,1,1,1
2182,1.07,1645111246.984375,P12,D09,1,1,1
2183,1.13,1645111247.0,P12,D09,1,1,1
2184,0.94,1645111247.015625,P12,D09,1,1,1
2185,0.56,1645111247.03125,P12,D09,1,1,1
2186,0.15,1645111247.046875,P12,D09,1,1,1
2187,-0.11,1645111247.0625,P12,D09,1,1,1
2188,-0.16,1645111247.078125,P12,D09,1,1,1
2189,-0.04,1645111247.09375,P12,D09,1,1,1
2190,0.15,1645111247.109375,P12,D09,1,1,1
2191,0.31,1645111247.125,P12,D09,1,1,1
2192,0.4,1645111247.140625,P12,D09,1,1,1
2193,0.46,1645111247.15625,P12,D09,1,1,1
2194,0.55,1645111247.171875,P12,D09,1,1,1
2195,0.67,1645111247.1875,P12,D09,1,1,1
2196,0.81,1645111247.203125,P12,D09,1,1,1
2197,0.86,1645111247.21875,P12,D09,1,1,1
2198,0.77,1645111247.234375,P12,D09,1,1,1
2199,0.51,1645111247.25,P12,D09,1,1,1
2200,0.15,1645111247.265625,P12,D09,1,1,1
2201,-0.2,1645111247.28125,P12,D09,1,1,1
2202,-0.43,1645111247.296875,P12,D09,1,1,1
2203,-0.47,1645111247.3125,P12,D09,1,1,1
2204,-0.35,1645111247.328125,P12,D09,1,1,1
2205,-0.17,1645111247.34375,P12,D09,1,1,1
2206,-0.01,1645111247.359375,P12,D09,1,1,1
2207,0.1,1645111247.375,P12,D09,1,1,1
2208,0.18,1645111247.390625,P12,D09,1,1,1
2209,0.28,1645111247.40625,P12,D09,1,1,1
2210,0.4,1645111247.421875,P12,D09,1,1,1
2211,0.5,1645111247.4375,P12,D09,1,1,1
2212,0.46,1645111247.453125,P12,D09,1,1,1
2213,0.21,1645111247.46875,P12,D09,1,1,1
2214,-0.22,1645111247.484375,P12,D09,1,1,1
2215,-0.74,1645111247.5,P12,D09,1,1,1
2216,-1.17,1645111247.515625,P12,D09,1,1,1
2217,-1.4,1645111247.53125,P12,D09,1,1,1
2218,-1.41,1645111247.546875,P12,D09,1,1,1
2219,-1.26,1645111247.5625,P12,D09,1,1,1
2220,-1.07,1645111247.578125,P12,D09,1,1,1
2221,-0.92,1645111247.59375,P12,D09,1,1,1
2222,-0.87,1645111247.609375,P12,D09,1,1,1
2223,-0.9,1645111247.625,P12,D09,1,1,1
2224,-1.0,1645111247.640625,P12,D09,1,1,1
2225,-1.11,1645111247.65625,P12,D09,1,1,1
2226,-1.17,1645111247.671875,P12,D09,1,1,1
2227,-1.11,1645111247.6875,P12,D09,1,1,1
2228,-0.84,1645111247.703125,P12,D09,1,1,1
2229,-0.36,1645111247.71875,P12,D09,1,1,1
2230,0.26,1645111247.734375,P12,D09,1,1,1
2231,0.87,1645111247.75,P12,D09,1,1,1
2232,1.27,1645111247.765625,P12,D09,1,1,1
2233,1.36,1645111247.78125,P12,D09,1,1,1
2234,1.15,1645111247.796875,P12,D09,1,1,1
2235,0.79,1645111247.8125,P12,D09,1,1,1
2236,0.44,1645111247.828125,P12,D09,1,1,1
2237,0.24,1645111247.84375,P12,D09,1,1,1
2238,0.19,1645111247.859375,P12,D09,1,1,1
2239,0.22,1645111247.875,P12,D09,1,1,1
2240,0.21,1645111247.890625,P12,D09,1,1,1
2241,0.11,1645111247.90625,P12,D09,1,1,1
2242,-0.03,1645111247.921875,P12,D09,1,1,1
2243,-0.13,1645111247.9375,P12,D09,1,1,1
2244,-0.11,1645111247.953125,P12,D09,1,1,1
2245,0.02,1645111247.96875,P12,D09,1,1,1
2246,0.2,1645111247.984375,P12,D09,1,1,1
2247,0.31,1645111248.0,P12,D09,1,1,1
2248,0.31,1645111248.015625,P12,D09,1,1,1
2249,0.24,1645111248.03125,P12,D09,1,1,1
2250,0.15,1645111248.046875,P12,D09,1,1,1
2251,0.11,1645111248.0625,P12,D09,1,1,1
2252,0.14,1645111248.078125,P12,D09,1,1,1
2253,0.2,1645111248.09375,P12,D09,1,1,1
2254,0.21,1645111248.109375,P12,D09,1,1,1
2255,0.15,1645111248.125,P12,D09,1,1,1
2256,0.09,1645111248.140625,P12,D09,1,1,1
2257,0.11,1645111248.15625,P12,D09,1,1,1
2258,0.27,1645111248.171875,P12,D09,1,1,1
2259,0.55,1645111248.1875,P12,D09,1,1,1
2260,0.83,1645111248.203125,P12,D09,1,1,1
2261,0.96,1645111248.21875,P12,D09,1,1,1
2262,0.84,1645111248.234375,P12,D09,1,1,1
2263,0.49,1645111248.25,P12,D09,1,1,1
2264,0.06,1645111248.265625,P12,D09,1,1,1
2265,-0.28,1645111248.28125,P12,D09,1,1,1
2266,-0.41,1645111248.296875,P12,D09,1,1,1
2267,-0.35,1645111248.3125,P12,D09,1,1,1
2268,-0.22,1645111248.328125,P12,D09,1,1,1
2269,-0.13,1645111248.34375,P12,D09,1,1,1
2270,-0.16,1645111248.359375,P12,D09,1,1,1
2271,-0.3,1645111248.375,P12,D09,1,1,1
2272,-0.47,1645111248.390625,P12,D09,1,1,1
2273,-0.6,1645111248.40625,P12,D09,1,1,1
2274,-0.67,1645111248.421875,P12,D09,1,1,1
2275,-0.66,1645111248.4375,P12,D09,1,1,1
2276,-0.59,1645111248.453125,P12,D09,1,1,1
2277,-0.46,1645111248.46875,P12,D09,1,1,1
2278,-0.3,1645111248.484375,P12,D09,1,1,1
2279,-0.12,1645111248.5,P12,D09,1,1,1
2280,0.08,1645111248.515625,P12,D09,1,1,1
2281,0.27,1645111248.53125,P12,D09,1,1,1
2282,0.45,1645111248.546875,P12,D09,1,1,1
2283,0.61,1645111248.5625,P12,D09,1,1,1
2284,0.72,1645111248.578125,P12,D09,1,1,1
2285,0.75,1645111248.59375,P12,D09,1,1,1
2286,0.69,1645111248.609375,P12,D09,1,1,1
2287,0.56,1645111248.625,P12,D09,1,1,1
2288,0.4,1645111248.640625,P12,D09,1,1,1
2289,0.28,1645111248.65625,P12,D09,1,1,1
2290,0.23,1645111248.671875,P12,D09,1,1,1
2291,0.26,1645111248.6875,P12,D09,1,1,1
2292,0.31,1645111248.703125,P12,D09,1,1,1
2293,0.32,1645111248.71875,P12,D09,1,1,1
2294,0.21,1645111248.734375,P12,D09,1,1,1
2295,-0.02,1645111248.75,P12,D09,1,1,1
2296,-0.3,1645111248.765625,P12,D09,1,1,1
2297,-0.54,1645111248.78125,P12,D09,1,1,1
2298,-0.63,1645111248.796875,P12,D09,1,1,1
2299,-0.47,1645111248.8125,P12,D09,1,1,1
2300,-0.08,1645111248.828125,P12,D09,1,1,1
2301,0.44,1645111248.84375,P12,D09,1,1,1
2302,0.92,1645111248.859375,P12,D09,1,1,1
2303,1.18,1645111248.875,P12,D09,1,1,1
2304,1.12,1645111248.890625,P12,D09,1,1,1
2305,0.79,1645111248.90625,P12,D09,1,1,1
2306,0.34,1645111248.921875,P12,D09,1,1,1
2307,-0.01,1645111248.9375,P12,D09,1,1,1
2308,-0.1,1645111248.953125,P12,D09,1,1,1
2309,0.09,1645111248.96875,P12,D09,1,1,1
2310,0.46,1645111248.984375,P12,D09,1,1,1
2311,0.84,1645111249.0,P12,D09,1,1,1
2312,1.1,1645111249.015625,P12,D09,1,1,1
2313,1.18,1645111249.03125,P12,D09,1,1,1
2314,1.13,1645111249.046875,P12,D09,1,1,1
2315,1.01,1645111249.0625,P12,D09,1,1,1
2316,0.87,1645111249.078125,P12,D09,1,1,1
2317,0.68,1645111249.09375,P12,D09,1,1,1
2318,0.4,1645111249.109375,P12,D09,1,1,1
2319,-0.01,1645111249.125,P12,D09,1,1,1
2320,-0.49,1645111249.140625,P12,D09,1,1,1
2321,-0.91,1645111249.15625,P12,D09,1,1,1
2322,-1.14,1645111249.171875,P12,D09,1,1,1
2323,-1.09,1645111249.1875,P12,D09,1,1,1
2324,-0.8,1645111249.203125,P12,D09,1,1,1
2325,-0.4,1645111249.21875,P12,D09,1,1,1
2326,-0.06,1645111249.234375,P12,D09,1,1,1
2327,0.1,1645111249.25,P12,D09,1,1,1
2328,0.05,1645111249.265625,P12,D09,1,1,1
2329,-0.12,1645111249.28125,P12,D09,1,1,1
2330,-0.28,1645111249.296875,P12,D09,1,1,1
2331,-0.34,1645111249.3125,P12,D09,1,1,1
2332,-0.28,1645111249.328125,P12,D09,1,1,1
2333,-0.19,1645111249.34375,P12,D09,1,1,1
2334,-0.18,1645111249.359375,P12,D09,1,1,1
2335,-0.33,1645111249.375,P12,D09,1,1,1
2336,-0.64,1645111249.390625,P12,D09,1,1,1
2337,-1.0,1645111249.40625,P12,D09,1,1,1
2338,-1.28,1645111249.421875,P12,D09,1,1,1
2339,-1.4,1645111249.4375,P12,D09,1,1,1
2340,-1.35,1645111249.453125,P12,D09,1,1,1
2341,-1.22,1645111249.46875,P12,D09,1,1,1
2342,-1.07,1645111249.484375,P12,D09,1,1,1
2343,-0.96,1645111249.5,P12,D09,1,1,1
2344,-0.85,1645111249.515625,P12,D09,1,1,1
2345,-0.71,1645111249.53125,P12,D09,1,1,1
2346,-0.5,1645111249.546875,P12,D09,1,1,1
2347,-0.21,1645111249.5625,P12,D09,1,1,1
2348,0.07,1645111249.578125,P12,D09,1,1,1
2349,0.27,1645111249.59375,P12,D09,1,1,1
2350,0.33,1645111249.609375,P12,D09,1,1,1
2351,0.23,1645111249.625,P12,D09,1,1,1
2352,0.0,1645111249.640625,P12,D09,1,1,1
2353,-0.28,1645111249.65625,P12,D09,1,1,1
2354,-0.56,1645111249.671875,P12,D09,1,1,1
2355,-0.76,1645111249.6875,P12,D09,1,1,1
2356,-0.88,1645111249.703125,P12,D09,1,1,1
2357,-0.89,1645111249.71875,P12,D09,1,1,1
2358,-0.82,1645111249.734375,P12,D09,1,1,1
2359,-0.7,1645111249.75,P12,D09,1,1,1
2360,-0.56,1645111249.765625,P12,D09,1,1,1
2361,-0.41,1645111249.78125,P12,D09,1,1,1
2362,-0.24,1645111249.796875,P12,D09,1,1,1
2363,-0.06,1645111249.8125,P12,D09,1,1,1
2364,0.17,1645111249.828125,P12,D09,1,1,1
2365,0.42,1645111249.84375,P12,D09,1,1,1
2366,0.68,1645111249.859375,P12,D09,1,1,1
2367,0.89,1645111249.875,P12,D09,1,1,1
2368,0.99,1645111249.890625,P12,D09,1,1,1
2369,0.96,1645111249.90625,P12,D09,1,1,1
2370,0.8,1645111249.921875,P12,D09,1,1,1
2371,0.58,1645111249.9375,P12,D09,1,1,1
2372,0.37,1645111249.953125,P12,D09,1,1,1
2373,0.23,1645111249.96875,P12,D09,1,1,1
2374,0.18,1645111249.984375,P12,D09,1,1,1
2375,0.18,1645111250.0,P12,D09,1,1,1
2376,0.17,1645111250.015625,P12,D09,1,1,1
2377,0.12,1645111250.03125,P12,D09,1,1,1
2378,0.03,1645111250.046875,P12,D09,1,1,1
2379,-0.04,1645111250.0625,P12,D09,1,1,1
2380,-0.03,1645111250.078125,P12,D09,1,1,1
2381,0.1,1645111250.09375,P12,D09,1,1,1
2382,0.32,1645111250.109375,P12,D09,1,1,1
2383,0.53,1645111250.125,P12,D09,1,1,1
2384,0.66,1645111250.140625,P12,D09,1,1,1
2385,0.64,1645111250.15625,P12,D09,1,1,1
2386,0.48,1645111250.171875,P12,D09,1,1,1
2387,0.24,1645111250.1875,P12,D09,1,1,1
2388,0.0,1645111250.203125,P12,D09,1,1,1
2389,-0.17,1645111250.21875,P12,D09,1,1,1
2390,-0.25,1645111250.234375,P12,D09,1,1,1
2391,-0.26,1645111250.25,P12,D09,1,1,1
2392,-0.24,1645111250.265625,P12,D09,1,1,1
2393,-0.24,1645111250.28125,P12,D09,1,1,1
2394,-0.28,1645111250.296875,P12,D09,1,1,1
2395,-0.35,1645111250.3125,P12,D09,1,1,1
2396,-0.46,1645111250.328125,P12,D09,1,1,1
2397,-0.59,1645111250.34375,P12,D09,1,1,1
2398,-0.74,1645111250.359375,P12,D09,1,1,1
2399,-0.92,1645111250.375,P12,D09,1,1,1
2400,-1.1,1645111250.390625,P12,D09,1,1,1
2401,-1.26,1645111250.40625,P12,D09,1,1,1
2402,-1.3,1645111250.421875,P12,D09,1,1,1
2403,-1.16,1645111250.4375,P12,D09,1,1,1
2404,-0.83,1645111250.453125,P12,D09,1,1,1
2405,-0.35,1645111250.46875,P12,D09,1,1,1
2406,0.14,1645111250.484375,P12,D09,1,1,1
2407,0.51,1645111250.5,P12,D09,1,1,1
2408,0.67,1645111250.515625,P12,D09,1,1,1
2409,0.65,1645111250.53125,P12,D09,1,1,1
2410,0.56,1645111250.546875,P12,D09,1,1,1
2411,0.55,1645111250.5625,P12,D09,1,1,1
2412,0.68,1645111250.578125,P12,D09,1,1,1
2413,0.92,1645111250.59375,P12,D09,1,1,1
2414,1.09,1645111250.609375,P12,D09,1,1,1
2415,1.04,1645111250.625,P12,D09,1,1,1
2416,0.7,1645111250.640625,P12,D09,1,1,1
2417,0.18,1645111250.65625,P12,D09,1,1,1
2418,-0.31,1645111250.671875,P12,D09,1,1,1
2419,-0.57,1645111250.6875,P12,D09,1,1,1
2420,-0.52,1645111250.703125,P12,D09,1,1,1
2421,-0.26,1645111250.71875,P12,D09,1,1,1
2422,0.01,1645111250.734375,P12,D09,1,1,1
2423,0.12,1645111250.75,P12,D09,1,1,1
2424,0.04,1645111250.765625,P12,D09,1,1,1
2425,-0.16,1645111250.78125,P12,D09,1,1,1
2426,-0.31,1645111250.796875,P12,D09,1,1,1
2427,-0.31,1645111250.8125,P12,D09,1,1,1
2428,-0.18,1645111250.828125,P12,D09,1,1,1
2429,-0.01,1645111250.84375,P12,D09,1,1,1
2430,0.08,1645111250.859375,P12,D09,1,1,1
2431,0.07,1645111250.875,P12,D09,1,1,1
2432,-0.01,1645111250.890625,P12,D09,1,1,1
2433,-0.05,1645111250.90625,P12,D09,1,1,1
2434,-0.01,1645111250.921875,P12,D09,1,1,1
2435,0.1,1645111250.9375,P12,D09,1,1,1
2436,0.19,1645111250.953125,P12,D09,1,1,1
2437,0.18,1645111250.96875,P12,D09,1,1,1
2438,0.05,1645111250.984375,P12,D09,1,1,1
2439,-0.15,1645111251.0,P12,D09,1,1,1
2440,-0.31,1645111251.015625,P12,D09,1,1,1
2441,-0.37,1645111251.03125,P12,D09,1,1,1
2442,-0.28,1645111251.046875,P12,D09,1,1,1
2443,-0.07,1645111251.0625,P12,D09,1,1,1
2444,0.2,1645111251.078125,P12,D09,1,1,1
2445,0.45,1645111251.09375,P12,D09,1,1,1
2446,0.59,1645111251.109375,P12,D09,1,1,1
2447,0.59,1645111251.125,P12,D09,1,1,1
2448,0.43,1645111251.140625,P12,D09,1,1,1
2449,0.15,1645111251.15625,P12,D09,1,1,1
2450,-0.17,1645111251.171875,P12,D09,1,1,1
2451,-0.44,1645111251.1875,P12,D09,1,1,1
2452,-0.61,1645111251.203125,P12,D09,1,1,1
2453,-0.67,1645111251.21875,P12,D09,1,1,1
2454,-0.7,1645111251.234375,P12,D09,1,1,1
2455,-0.8,1645111251.25,P12,D09,1,1,1
2456,-1.01,1645111251.265625,P12,D09,1,1,1
2457,-1.32,1645111251.28125,P12,D09,1,1,1
2458,-1.57,1645111251.296875,P12,D09,1,1,1
2459,-1.63,1645111251.3125,P12,D09,1,1,1
2460,-1.41,1645111251.328125,P12,D09,1,1,1
2461,-0.93,1645111251.34375,P12,D09,1,1,1
2462,-0.32,1645111251.359375,P12,D09,1,1,1
2463,0.28,1645111251.375,P12,D09,1,1,1
2464,0.76,1645111251.390625,P12,D09,1,1,1
2465,1.11,1645111251.40625,P12,D09,1,1,1
2466,1.36,1645111251.421875,P12,D09,1,1,1
2467,1.57,1645111251.4375,P12,D09,1,1,1
2468,1.74,1645111251.453125,P12,D09,1,1,1
2469,1.82,1645111251.46875,P12,D09,1,1,1
2470,1.75,1645111251.484375,P12,D09,1,1,1
2471,1.5,1645111251.5,P12,D09,1,1,1
2472,1.09,1645111251.515625,P12,D09,1,1,1
2473,0.61,1645111251.53125,P12,D09,1,1,1
2474,0.15,1645111251.546875,P12,D09,1,1,1
2475,-0.19,1645111251.5625,P12,D09,1,1,1
2476,-0.32,1645111251.578125,P12,D09,1,1,1
2477,-0.25,1645111251.59375,P12,D09,1,1,1
2478,-0.01,1645111251.609375,P12,D09,1,1,1
2479,0.31,1645111251.625,P12,D09,1,1,1
2480,0.58,1645111251.640625,P12,D09,1,1,1
2481,0.71,1645111251.65625,P12,D09,1,1,1
2482,0.65,1645111251.671875,P12,D09,1,1,1
2483,0.42,1645111251.6875,P12,D09,1,1,1
2484,0.11,1645111251.703125,P12,D09,1,1,1
2485,-0.15,1645111251.71875,P12,D09,1,1,1
2486,-0.24,1645111251.734375,P12,D09,1,1,1
2487,-0.15,1645111251.75,P12,D09,1,1,1
2488,0.07,1645111251.765625,P12,D09,1,1,1
2489,0.27,1645111251.78125,P12,D09,1,1,1
2490,0.33,1645111251.796875,P12,D09,1,1,1
2491,0.19,1645111251.8125,P12,D09,1,1,1
2492,-0.1,1645111251.828125,P12,D09,1,1,1
2493,-0.41,1645111251.84375,P12,D09,1,1,1
2494,-0.61,1645111251.859375,P12,D09,1,1,1
2495,-0.61,1645111251.875,P12,D09,1,1,1
2496,-0.44,1645111251.890625,P12,D09,1,1,1
2497,-0.2,1645111251.90625,P12,D09,1,1,1
2498,0.0,1645111251.921875,P12,D09,1,1,1
2499,0.1,1645111251.9375,P12,D09,1,1,1
2500,0.1,1645111251.953125,P12,D09,1,1,1
2501,0.06,1645111251.96875,P12,D09,1,1,1
2502,0.05,1645111251.984375,P12,D09,1,1,1
2503,0.12,1645111252.0,P12,D09,1,1,1
2504,0.28,1645111252.015625,P12,D09,1,1,1
2505,0.49,1645111252.03125,P12,D09,1,1,1
2506,0.66,1645111252.046875,P12,D09,1,1,1
2507,0.74,1645111252.0625,P12,D09,1,1,1
2508,0.71,1645111252.078125,P12,D09,1,1,1
2509,0.59,1645111252.09375,P12,D09,1,1,1
2510,0.47,1645111252.109375,P12,D09,1,1,1
2511,0.39,1645111252.125,P12,D09,1,1,1
2512,0.35,1645111252.140625,P12,D09,1,1,1
2513,0.28,1645111252.15625,P12,D09,1,1,1
2514,0.13,1645111252.171875,P12,D09,1,1,1
2515,-0.11,1645111252.1875,P12,D09,1,1,1
2516,-0.38,1645111252.203125,P12,D09,1,1,1
2517,-0.56,1645111252.21875,P12,D09,1,1,1
2518,-0.6,1645111252.234375,P12,D09,1,1,1
2519,-0.51,1645111252.25,P12,D09,1,1,1
2520,-0.39,1645111252.265625,P12,D09,1,1,1
2521,-0.33,1645111252.28125,P12,D09,1,1,1
2522,-0.4,1645111252.296875,P12,D09,1,1,1
2523,-0.54,1645111252.3125,P12,D09,1,1,1
2524,-0.69,1645111252.328125,P12,D09,1,1,1
2525,-0.77,1645111252.34375,P12,D09,1,1,1
2526,-0.76,1645111252.359375,P12,D09,1,1,1
2527,-0.68,1645111252.375,P12,D09,1,1,1
2528,-0.57,1645111252.390625,P12,D09,1,1,1
2529,-0.47,1645111252.40625,P12,D09,1,1,1
2530,-0.37,1645111252.421875,P12,D09,1,1,1
2531,-0.28,1645111252.4375,P12,D09,1,1,1
2532,-0.19,1645111252.453125,P12,D09,1,1,1
2533,-0.14,1645111252.46875,P12,D09,1,1,1
2534,-0.12,1645111252.484375,P12,D09,1,1,1
2535,-0.14,1645111252.5,P12,D09,1,1,1
2536,-0.2,1645111252.515625,P12,D09,1,1,1
2537,-0.26,1645111252.53125,P12,D09,1,1,1
2538,-0.29,1645111252.546875,P12,D09,1,1,1
2539,-0.24,1645111252.5625,P12,D09,1,1,1
2540,-0.06,1645111252.578125,P12,D09,1,1,1
2541,0.23,1645111252.59375,P12,D09,1,1,1
2542,0.58,1645111252.609375,P12,D09,1,1,1
2543,0.87,1645111252.625,P12,D09,1,1,1
2544,1.0,1645111252.640625,P12,D09,1,1,1
2545,0.91,1645111252.65625,P12,D09,1,1,1
2546,0.64,1645111252.671875,P12,D09,1,1,1
2547,0.33,1645111252.6875,P12,D09,1,1,1
2548,0.14,1645111252.703125,P12,D09,1,1,1
2549,0.15,1645111252.71875,P12,D09,1,1,1
2550,0.35,1645111252.734375,P12,D09,1,1,1
2551,0.62,1645111252.75,P12,D09,1,1,1
2552,0.82,1645111252.765625,P12,D09,1,1,1
2553,0.82,1645111252.78125,P12,D09,1,1,1
2554,0.62,1645111252.796875,P12,D09,1,1,1
2555,0.29,1645111252.8125,P12,D09,1,1,1
2556,-0.03,1645111252.828125,P12,D09,1,1,1
2557,-0.23,1645111252.84375,P12,D09,1,1,1
2558,-0.28,1645111252.859375,P12,D09,1,1,1
2559,-0.22,1645111252.875,P12,D09,1,1,1
2560,-0.15,1645111252.890625,P12,D09,1,1,1
2561,-0.15,1645111252.90625,P12,D09,1,1,1
2562,-0.25,1645111252.921875,P12,D09,1,1,1
2563,-0.4,1645111252.9375,P12,D09,1,1,1
2564,-0.54,1645111252.953125,P12,D09,1,1,1
2565,-0.61,1645111252.96875,P12,D09,1,1,1
2566,-0.59,1645111252.984375,P12,D09,1,1,1
2567,-0.5,1645111253.0,P12,D09,1,1,1
2568,-0.38,1645111253.015625,P12,D09,1,1,1
2569,-0.27,1645111253.03125,P12,D09,1,1,1
2570,-0.21,1645111253.046875,P12,D09,1,1,1
2571,-0.2,1645111253.0625,P12,D09,1,1,1
2572,-0.21,1645111253.078125,P12,D09,1,1,1
2573,-0.26,1645111253.09375,P12,D09,1,1,1
2574,-0.31,1645111253.109375,P12,D09,1,1,1
2575,-0.35,1645111253.125,P12,D09,1,1,1
2576,-0.34,1645111253.140625,P12,D09,1,1,1
2577,-0.26,1645111253.15625,P12,D09,1,1,1
2578,-0.1,1645111253.171875,P12,D09,1,1,1
2579,0.08,1645111253.1875,P12,D09,1,1,1
2580,0.22,1645111253.203125,P12,D09,1,1,1
2581,0.27,1645111253.21875,P12,D09,1,1,1
2582,0.23,1645111253.234375,P12,D09,1,1,1
2583,0.14,1645111253.25,P12,D09,1,1,1
2584,0.07,1645111253.265625,P12,D09,1,1,1
2585,0.08,1645111253.28125,P12,D09,1,1,1
2586,0.17,1645111253.296875,P12,D09,1,1,1
2587,0.32,1645111253.3125,P12,D09,1,1,1
2588,0.49,1645111253.328125,P12,D09,1,1,1
2589,0.66,1645111253.34375,P12,D09,1,1,1
2590,0.79,1645111253.359375,P12,D09,1,1,1
2591,0.88,1645111253.375,P12,D09,1,1,1
2592,0.89,1645111253.390625,P12,D09,1,1,1
2593,0.78,1645111253.40625,P12,D09,1,1,1
2594,0.56,1645111253.421875,P12,D09,1,1,1
2595,0.31,1645111253.4375,P12,D09,1,1,1
2596,0.13,1645111253.453125,P12,D09,1,1,1
2597,0.09,1645111253.46875,P12,D09,1,1,1
2598,0.21,1645111253.484375,P12,D09,1,1,1
2599,0.41,1645111253.5,P12,D09,1,1,1
2600,0.58,1645111253.515625,P12,D09,1,1,1
2601,0.65,1645111253.53125,P12,D09,1,1,1
2602,0.59,1645111253.546875,P12,D09,1,1,1
2603,0.45,1645111253.5625,P12,D09,1,1,1
2604,0.28,1645111253.578125,P12,D09,1,1,1
2605,0.12,1645111253.59375,P12,D09,1,1,1
2606,-0.01,1645111253.609375,P12,D09,1,1,1
2607,-0.08,1645111253.625,P12,D09,1,1,1
2608,-0.12,1645111253.640625,P12,D09,1,1,1
2609,-0.14,1645111253.65625,P12,D09,1,1,1
2610,-0.21,1645111253.671875,P12,D09,1,1,1
2611,-0.36,1645111253.6875,P12,D09,1,1,1
2612,-0.61,1645111253.703125,P12,D09,1,1,1
2613,-0.89,1645111253.71875,P12,D09,1,1,1
2614,-1.09,1645111253.734375,P12,D09,1,1,1
2615,-1.14,1645111253.75,P12,D09,1,1,1
2616,-0.99,1645111253.765625,P12,D09,1,1,1
2617,-0.73,1645111253.78125,P12,D09,1,1,1
2618,-0.47,1645111253.796875,P12,D09,1,1,1
2619,-0.32,1645111253.8125,P12,D09,1,1,1
2620,-0.32,1645111253.828125,P12,D09,1,1,1
2621,-0.38,1645111253.84375,P12,D09,1,1,1
2622,-0.43,1645111253.859375,P12,D09,1,1,1
2623,-0.42,1645111253.875,P12,D09,1,1,1
2624,-0.38,1645111253.890625,P12,D09,1,1,1
2625,-0.39,1645111253.90625,P12,D09,1,1,1
2626,-0.49,1645111253.921875,P12,D09,1,1,1
2627,-0.65,1645111253.9375,P12,D09,1,1,1
2628,-0.76,1645111253.953125,P12,D09,1,1,1
2629,-0.73,1645111253.96875,P12,D09,1,1,1
2630,-0.53,1645111253.984375,P12,D09,1,1,1
2631,-0.22,1645111254.0,P12,D09,1,1,1
2632,0.07,1645111254.015625,P12,D09,1,1,1
2633,0.24,1645111254.03125,P12,D09,1,1,1
2634,0.22,1645111254.046875,P12,D09,1,1,1
2635,0.06,1645111254.0625,P12,D09,1,1,1
2636,-0.14,1645111254.078125,P12,D09,1,1,1
2637,-0.28,1645111254.09375,P12,D09,1,1,1
2638,-0.29,1645111254.109375,P12,D09,1,1,1
2639,-0.17,1645111254.125,P12,D09,1,1,1
2640,0.05,1645111254.140625,P12,D09,1,1,1
2641,0.33,1645111254.15625,P12,D09,1,1,1
2642,0.61,1645111254.171875,P12,D09,1,1,1
2643,0.83,1645111254.1875,P12,D09,1,1,1
2644,0.92,1645111254.203125,P12,D09,1,1,1
2645,0.83,1645111254.21875,P12,D09,1,1,1
2646,0.53,1645111254.234375,P12,D09,1,1,1
2647,0.09,1645111254.25,P12,D09,1,1,1
2648,-0.36,1645111254.265625,P12,D09,1,1,1
2649,-0.67,1645111254.28125,P12,D09,1,1,1
2650,-0.72,1645111254.296875,P12,D09,1,1,1
2651,-0.51,1645111254.3125,P12,D09,1,1,1
2652,-0.15,1645111254.328125,P12,D09,1,1,1
2653,0.19,1645111254.34375,P12,D09,1,1,1
2654,0.36,1645111254.359375,P12,D09,1,1,1
2655,0.29,1645111254.375,P12,D09,1,1,1
2656,0.04,1645111254.390625,P12,D09,1,1,1
2657,-0.29,1645111254.40625,P12,D09,1,1,1
2658,-0.57,1645111254.421875,P12,D09,1,1,1
2659,-0.75,1645111254.4375,P12,D09,1,1,1
2660,-0.79,1645111254.453125,P12,D09,1,1,1
2661,-0.74,1645111254.46875,P12,D09,1,1,1
2662,-0.62,1645111254.484375,P12,D09,1,1,1
2663,-0.49,1645111254.5,P12,D09,1,1,1
2664,-0.36,1645111254.515625,P12,D09,1,1,1
2665,-0.27,1645111254.53125,P12,D09,1,1,1
2666,-0.2,1645111254.546875,P12,D09,1,1,1
2667,-0.13,1645111254.5625,P12,D09,1,1,1
2668,-0.01,1645111254.578125,P12,D09,1,1,1
2669,0.18,1645111254.59375,P12,D09,1,1,1
2670,0.45,1645111254.609375,P12,D09,1,1,1
2671,0.73,1645111254.625,P12,D09,1,1,1
2672,0.95,1645111254.640625,P12,D09,1,1,1
2673,1.05,1645111254.65625,P12,D09,1,1,1
2674,1.04,1645111254.671875,P12,D09,1,1,1
2675,1.0,1645111254.6875,P12,D09,1,1,1
2676,0.99,1645111254.703125,P12,D09,1,1,1
2677,1.03,1645111254.71875,P12,D09,1,1,1
2678,1.05,1645111254.734375,P12,D09,1,1,1
2679,0.94,1645111254.75,P12,D09,1,1,1
2680,0.63,1645111254.765625,P12,D09,1,1,1
2681,0.18,1645111254.78125,P12,D09,1,1,1
2682,-0.28,1645111254.796875,P12,D09,1,1,1
2683,-0.59,1645111254.8125,P12,D09,1,1,1
2684,-0.66,1645111254.828125,P12,D09,1,1,1
2685,-0.53,1645111254.84375,P12,D09,1,1,1
2686,-0.35,1645111254.859375,P12,D09,1,1,1
2687,-0.27,1645111254.875,P12,D09,1,1,1
2688,-0.37,1645111254.890625,P12,D09,1,1,1
2689,-0.62,1645111254.90625,P12,D09,1,1,1
2690,-0.92,1645111254.921875,P12,D09,1,1,1
2691,-1.14,1645111254.9375,P12,D09,1,1,1
2692,-1.2,1645111254.953125,P12,D09,1,1,1
2693,-1.08,1645111254.96875,P12,D09,1,1,1
2694,-0.8,1645111254.984375,P12,D09,1,1,1
2695,-0.44,1645111255.0,P12,D09,1,1,1
2696,-0.05,1645111255.015625,P12,D09,1,1,1
2697,0.28,1645111255.03125,P12,D09,1,1,1
2698,0.53,1645111255.046875,P12,D09,1,1,1
2699,0.67,1645111255.0625,P12,D09,1,1,1
2700,0.7,1645111255.078125,P12,D09,1,1,1
2701,0.64,1645111255.09375,P12,D09,1,1,1
2702,0.52,1645111255.109375,P12,D09,1,1,1
2703,0.38,1645111255.125,P12,D09,1,1,1
2704,0.28,1645111255.140625,P12,D09,1,1,1
2705,0.26,1645111255.15625,P12,D09,1,1,1
2706,0.32,1645111255.171875,P12,D09,1,1,1
2707,0.43,1645111255.1875,P12,D09,1,1,1
2708,0.54,1645111255.203125,P12,D09,1,1,1
2709,0.57,1645111255.21875,P12,D09,1,1,1
2710,0.5,1645111255.234375,P12,D09,1,1,1
2711,0.34,1645111255.25,P12,D09,1,1,1
2712,0.13,1645111255.265625,P12,D09,1,1,1
2713,-0.05,1645111255.28125,P12,D09,1,1,1
2714,-0.16,1645111255.296875,P12,D09,1,1,1
2715,-0.15,1645111255.3125,P12,D09,1,1,1
2716,-0.04,1645111255.328125,P12,D09,1,1,1
2717,0.14,1645111255.34375,P12,D09,1,1,1
2718,0.31,1645111255.359375,P12,D09,1,1,1
2719,0.39,1645111255.375,P12,D09,1,1,1
2720,0.31,1645111255.390625,P12,D09,1,1,1
2721,0.07,1645111255.40625,P12,D09,1,1,1
2722,-0.25,1645111255.421875,P12,D09,1,1,1
2723,-0.51,1645111255.4375,P12,D09,1,1,1
2724,-0.57,1645111255.453125,P12,D09,1,1,1
2725,-0.38,1645111255.46875,P12,D09,1,1,1
2726,0.01,1645111255.484375,P12,D09,1,1,1
2727,0.43,1645111255.5,P12,D09,1,1,1
2728,0.73,1645111255.515625,P12,D09,1,1,1
2729,0.8,1645111255.53125,P12,D09,1,1,1
2730,0.64,1645111255.546875,P12,D09,1,1,1
2731,0.35,1645111255.5625,P12,D09,1,1,1
2732,0.06,1645111255.578125,P12,D09,1,1,1
2733,-0.14,1645111255.59375,P12,D09,1,1,1
2734,-0.18,1645111255.609375,P12,D09,1,1,1
2735,-0.09,1645111255.625,P12,D09,1,1,1
2736,0.09,1645111255.640625,P12,D09,1,1,1
2737,0.29,1645111255.65625,P12,D09,1,1,1
2738,0.43,1645111255.671875,P12,D09,1,1,1
2739,0.44,1645111255.6875,P12,D09,1,1,1
2740,0.3,1645111255.703125,P12,D09,1,1,1
2741,0.02,1645111255.71875,P12,D09,1,1,1
2742,-0.34,1645111255.734375,P12,D09,1,1,1
2743,-0.66,1645111255.75,P12,D09,1,1,1
2744,-0.87,1645111255.765625,P12,D09,1,1,1
2745,-0.92,1645111255.78125,P12,D09,1,1,1
2746,-0.86,1645111255.796875,P12,D09,1,1,1
2747,-0.73,1645111255.8125,P12,D09,1,1,1
2748,-0.57,1645111255.828125,P12,D09,1,1,1
2749,-0.41,1645111255.84375,P12,D09,1,1,1
2750,-0.22,1645111255.859375,P12,D09,1,1,1
2751,-0.03,1645111255.875,P12,D09,1,1,1
2752,0.15,1645111255.890625,P12,D09,1,1,1
2753,0.26,1645111255.90625,P12,D09,1,1,1
2754,0.29,1645111255.921875,P12,D09,1,1,1
2755,0.23,1645111255.9375,P12,D09,1,1,1
2756,0.14,1645111255.953125,P12,D09,1,1,1
2757,0.1,1645111255.96875,P12,D09,1,1,1
2758,0.16,1645111255.984375,P12,D09,1,1,1
2759,0.35,1645111256.0,P12,D09,1,1,1
2760,0.59,1645111256.015625,P12,D09,1,1,1
2761,0.77,1645111256.03125,P12,D09,1,1,1
2762,0.81,1645111256.046875,P12,D09,1,1,1
2763,0.65,1645111256.0625,P12,D09,1,1,1
2764,0.32,1645111256.078125,P12,D09,1,1,1
2765,-0.08,1645111256.09375,P12,D09,1,1,1
2766,-0.41,1645111256.109375,P12,D09,1,1,1
2767,-0.61,1645111256.125,P12,D09,1,1,1
2768,-0.63,1645111256.140625,P12,D09,1,1,1
2769,-0.52,1645111256.15625,P12,D09,1,1,1
2770,-0.35,1645111256.171875,P12,D09,1,1,1
2771,-0.18,1645111256.1875,P12,D09,1,1,1
2772,-0.05,1645111256.203125,P12,D09,1,1,1
2773,0.07,1645111256.21875,P12,D09,1,1,1
2774,0.19,1645111256.234375,P12,D09,1,1,1
2775,0.34,1645111256.25,P12,D09,1,1,1
2776,0.48,1645111256.265625,P12,D09,1,1,1
2777,0.59,1645111256.28125,P12,D09,1,1,1
2778,0.63,1645111256.296875,P12,D09,1,1,1
2779,0.6,1645111256.3125,P12,D09,1,1,1
2780,0.51,1645111256.328125,P12,D09,1,1,1
2781,0.38,1645111256.34375,P12,D09,1,1,1
2782,0.24,1645111256.359375,P12,D09,1,1,1
2783,0.1,1645111256.375,P12,D09,1,1,1
2784,0.0,1645111256.390625,P12,D09,1,1,1
2785,-0.03,1645111256.40625,P12,D09,1,1,1
2786,0.05,1645111256.421875,P12,D09,1,1,1
2787,0.25,1645111256.4375,P12,D09,1,1,1
2788,0.57,1645111256.453125,P12,D09,1,1,1
2789,0.94,1645111256.46875,P12,D09,1,1,1
2790,1.26,1645111256.484375,P12,D09,1,1,1
2791,1.41,1645111256.5,P12,D09,1,1,1
2792,1.29,1645111256.515625,P12,D09,1,1,1
2793,0.91,1645111256.53125,P12,D09,1,1,1
2794,0.35,1645111256.546875,P12,D09,1,1,1
2795,-0.22,1645111256.5625,P12,D09,1,1,1
2796,-0.63,1645111256.578125,P12,D09,1,1,1
2797,-0.76,1645111256.59375,P12,D09,1,1,1
2798,-0.61,1645111256.609375,P12,D09,1,1,1
2799,-0.28,1645111256.625,P12,D09,1,1,1
2800,0.05,1645111256.640625,P12,D09,1,1,1
2801,0.23,1645111256.65625,P12,D09,1,1,1
2802,0.18,1645111256.671875,P12,D09,1,1,1
2803,-0.08,1645111256.6875,P12,D09,1,1,1
2804,-0.43,1645111256.703125,P12,D09,1,1,1
2805,-0.74,1645111256.71875,P12,D09,1,1,1
2806,-0.91,1645111256.734375,P12,D09,1,1,1
2807,-0.89,1645111256.75,P12,D09,1,1,1
2808,-0.77,1645111256.765625,P12,D09,1,1,1
2809,-0.65,1645111256.78125,P12,D09,1,1,1
2810,-0.62,1645111256.796875,P12,D09,1,1,1
2811,-0.73,1645111256.8125,P12,D09,1,1,1
2812,-0.93,1645111256.828125,P12,D09,1,1,1
2813,-1.13,1645111256.84375,P12,D09,1,1,1
2814,-1.26,1645111256.859375,P12,D09,1,1,1
2815,-1.28,1645111256.875,P12,D09,1,1,1
2816,-1.2,1645111256.890625,P12,D09,1,1,1
2817,-1.05,1645111256.90625,P12,D09,1,1,1
2818,-0.87,1645111256.921875,P12,D09,1,1,1
2819,-0.69,1645111256.9375,P12,D09,1,1,1
2820,-0.51,1645111256.953125,P12,D09,1,1,1
2821,-0.32,1645111256.96875,P12,D09,1,1,1
2822,-0.16,1645111256.984375,P12,D09,1,1,1
2823,-0.04,1645111257.0,P12,D09,1,1,1
2824,0.04,1645111257.015625,P12,D09,1,1,1
2825,0.11,1645111257.03125,P12,D09,1,1,1
2826,0.24,1645111257.046875,P12,D09,1,1,1
2827,0.44,1645111257.0625,P12,D09,1,1,1
2828,0.72,1645111257.078125,P12,D09,1,1,1
2829,0.99,1645111257.09375,P12,D09,1,1,1
2830,1.19,1645111257.109375,P12,D09,1,1,1
2831,1.28,1645111257.125,P12,D09,1,1,1
2832,1.25,1645111257.140625,P12,D09,1,1,1
2833,1.15,1645111257.15625,P12,D09,1,1,1
2834,0.99,1645111257.171875,P12,D09,1,1,1
2835,0.82,1645111257.1875,P12,D09,1,1,1
2836,0.62,1645111257.203125,P12,D09,1,1,1
2837,0.42,1645111257.21875,P12,D09,1,1,1
2838,0.25,1645111257.234375,P12,D09,1,1,1
2839,0.17,1645111257.25,P12,D09,1,1,1
2840,0.22,1645111257.265625,P12,D09,1,1,1
2841,0.39,1645111257.28125,P12,D09,1,1,1
2842,0.62,1645111257.296875,P12,D09,1,1,1
2843,0.81,1645111257.3125,P12,D09,1,1,1
2844,0.9,1645111257.328125,P12,D09,1,1,1
2845,0.83,1645111257.34375,P12,D09,1,1,1
2846,0.62,1645111257.359375,P12,D09,1,1,1
2847,0.32,1645111257.375,P12,D09,1,1,1
2848,0.01,1645111257.390625,P12,D09,1,1,1
2849,-0.2,1645111257.40625,P12,D09,1,1,1
2850,-0.26,1645111257.421875,P12,D09,1,1,1
2851,-0.12,1645111257.4375,P12,D09,1,1,1
2852,0.14,1645111257.453125,P12,D09,1,1,1
2853,0.43,1645111257.46875,P12,D09,1,1,1
2854,0.59,1645111257.484375,P12,D09,1,1,1
2855,0.53,1645111257.5,P12,D09,1,1,1
2856,0.26,1645111257.515625,P12,D09,1,1,1
2857,-0.14,1645111257.53125,P12,D09,1,1,1
2858,-0.51,1645111257.546875,P12,D09,1,1,1
2859,-0.72,1645111257.5625,P12,D09,1,1,1
2860,-0.76,1645111257.578125,P12,D09,1,1,1
2861,-0.66,1645111257.59375,P12,D09,1,1,1
2862,-0.53,1645111257.609375,P12,D09,1,1,1
2863,-0.45,1645111257.625,P12,D09,1,1,1
2864,-0.41,1645111257.640625,P12,D09,1,1,1
2865,-0.34,1645111257.65625,P12,D09,1,1,1
2866,-0.16,1645111257.671875,P12,D09,1,1,1
2867,0.14,1645111257.6875,P12,D09,1,1,1
2868,0.5,1645111257.703125,P12,D09,1,1,1
2869,0.78,1645111257.71875,P12,D09,1,1,1
2870,0.89,1645111257.734375,P12,D09,1,1,1
2871,0.79,1645111257.75,P12,D09,1,1,1
2872,0.52,1645111257.765625,P12,D09,1,1,1
2873,0.18,1645111257.78125,P12,D09,1,1,1
2874,-0.12,1645111257.796875,P12,D09,1,1,1
2875,-0.35,1645111257.8125,P12,D09,1,1,1
2876,-0.53,1645111257.828125,P12,D09,1,1,1
2877,-0.69,1645111257.84375,P12,D09,1,1,1
2878,-0.85,1645111257.859375,P12,D09,1,1,1
2879,-1.01,1645111257.875,P12,D09,1,1,1
2880,-1.11,1645111257.890625,P12,D09,1,1,1
2881,-1.12,1645111257.90625,P12,D09,1,1,1
2882,-1.05,1645111257.921875,P12,D09,1,1,1
2883,-0.93,1645111257.9375,P12,D09,1,1,1
2884,-0.82,1645111257.953125,P12,D09,1,1,1
2885,-0.75,1645111257.96875,P12,D09,1,1,1
2886,-0.7,1645111257.984375,P12,D09,1,1,1
2887,-0.65,1645111258.0,P12,D09,1,1,1
2888,-0.54,1645111258.015625,P12,D09,1,1,1
2889,-0.36,1645111258.03125,P12,D09,1,1,1
2890,-0.15,1645111258.046875,P12,D09,1,1,1
2891,0.02,1645111258.0625,P12,D09,1,1,1
2892,0.09,1645111258.078125,P12,D09,1,1,1
2893,0.04,1645111258.09375,P12,D09,1,1,1
2894,-0.1,1645111258.109375,P12,D09,1,1,1
2895,-0.24,1645111258.125,P12,D09,1,1,1
2896,-0.31,1645111258.140625,P12,D09,1,1,1
2897,-0.25,1645111258.15625,P12,D09,1,1,1
2898,-0.05,1645111258.171875,P12,D09,1,1,1
2899,0.25,1645111258.1875,P12,D09,1,1,1
2900,0.55,1645111258.203125,P12,D09,1,1,1
2901,0.76,1645111258.21875,P12,D09,1,1,1
2902,0.84,1645111258.234375,P12,D09,1,1,1
2903,0.8,1645111258.25,P12,D09,1,1,1
2904,0.71,1645111258.265625,P12,D09,1,1,1
2905,0.65,1645111258.28125,P12,D09,1,1,1
2906,0.67,1645111258.296875,P12,D09,1,1,1
2907,0.72,1645111258.3125,P12,D09,1,1,1
2908,0.71,1645111258.328125,P12,D09,1,1,1
2909,0.54,1645111258.34375,P12,D09,1,1,1
2910,0.18,1645111258.359375,P12,D09,1,1,1
2911,-0.28,1645111258.375,P12,D09,1,1,1
2912,-0.67,1645111258.390625,P12,D09,1,1,1
2913,-0.85,1645111258.40625,P12,D09,1,1,1
2914,-0.8,1645111258.421875,P12,D09,1,1,1
2915,-0.59,1645111258.4375,P12,D09,1,1,1
2916,-0.38,1645111258.453125,P12,D09,1,1,1
2917,-0.32,1645111258.46875,P12,D09,1,1,1
2918,-0.39,1645111258.484375,P12,D09,1,1,1
2919,-0.51,1645111258.5,P12,D09,1,1,1
2920,-0.51,1645111258.515625,P12,D09,1,1,1
2921,-0.33,1645111258.53125,P12,D09,1,1,1
