,data,timestamp,participant,document,val,arou,eng
0,-0.17,1645109044.984375,P12,D03,1,1,1
1,-0.07,1645109045.0,P12,D03,1,1,1
2,0.11,1645109045.015625,P12,D03,1,1,1
3,0.26,1645109045.03125,P12,D03,1,1,1
4,0.26,1645109045.046875,P12,D03,1,1,1
5,0.08,1645109045.0625,P12,D03,1,1,1
6,-0.17,1645109045.078125,P12,D03,1,1,1
7,-0.36,1645109045.09375,P12,D03,1,1,1
8,-0.39,1645109045.109375,P12,D03,1,1,1
9,-0.24,1645109045.125,P12,D03,1,1,1
10,-0.01,1645109045.140625,P12,D03,1,1,1
11,0.2,1645109045.15625,P12,D03,1,1,1
12,0.33,1645109045.171875,P12,D03,1,1,1
13,0.38,1645109045.1875,P12,D03,1,1,1
14,0.41,1645109045.203125,P12,D03,1,1,1
15,0.42,1645109045.21875,P12,D03,1,1,1
16,0.42,1645109045.234375,P12,D03,1,1,1
17,0.39,1645109045.25,P12,D03,1,1,1
18,0.32,1645109045.265625,P12,D03,1,1,1
19,0.26,1645109045.28125,P12,D03,1,1,1
20,0.24,1645109045.296875,P12,D03,1,1,1
21,0.29,1645109045.3125,P12,D03,1,1,1
22,0.35,1645109045.328125,P12,D03,1,1,1
23,0.36,1645109045.34375,P12,D03,1,1,1
24,0.24,1645109045.359375,P12,D03,1,1,1
25,-0.02,1645109045.375,P12,D03,1,1,1
26,-0.33,1645109045.390625,P12,D03,1,1,1
27,-0.59,1645109045.40625,P12,D03,1,1,1
28,-0.67,1645109045.421875,P12,D03,1,1,1
29,-0.55,1645109045.4375,P12,D03,1,1,1
30,-0.27,1645109045.453125,P12,D03,1,1,1
31,0.03,1645109045.46875,P12,D03,1,1,1
32,0.26,1645109045.484375,P12,D03,1,1,1
33,0.37,1645109045.5,P12,D03,1,1,1
34,0.36,1645109045.515625,P12,D03,1,1,1
35,0.28,1645109045.53125,P12,D03,1,1,1
36,0.19,1645109045.546875,P12,D03,1,1,1
37,0.13,1645109045.5625,P12,D03,1,1,1
38,0.11,1645109045.578125,P12,D03,1,1,1
39,0.12,1645109045.59375,P12,D03,1,1,1
40,0.11,1645109045.609375,P12,D03,1,1,1
41,0.05,1645109045.625,P12,D03,1,1,1
42,-0.07,1645109045.640625,P12,D03,1,1,1
43,-0.22,1645109045.65625,P12,D03,1,1,1
44,-0.34,1645109045.671875,P12,D03,1,1,1
45,-0.39,1645109045.6875,P12,D03,1,1,1
46,-0.33,1645109045.703125,P12,D03,1,1,1
47,-0.19,1645109045.71875,P12,D03,1,1,1
48,-0.07,1645109045.734375,P12,D03,1,1,1
49,-0.06,1645109045.75,P12,D03,1,1,1
50,-0.22,1645109045.765625,P12,D03,1,1,1
51,-0.52,1645109045.78125,P12,D03,1,1,1
52,-0.87,1645109045.796875,P12,D03,1,1,1
53,-1.15,1645109045.8125,P12,D03,1,1,1
54,-1.28,1645109045.828125,P12,D03,1,1,1
55,-1.24,1645109045.84375,P12,D03,1,1,1
56,-1.04,1645109045.859375,P12,D03,1,1,1
57,-0.74,1645109045.875,P12,D03,1,1,1
58,-0.36,1645109045.890625,P12,D03,1,1,1
59,0.04,1645109045.90625,P12,D03,1,1,1
60,0.39,1645109045.921875,P12,D03,1,1,1
61,0.6,1645109045.9375,P12,D03,1,1,1
62,0.6,1645109045.953125,P12,D03,1,1,1
63,0.43,1645109045.96875,P12,D03,1,1,1
64,0.21,1645109045.984375,P12,D03,1,1,1
65,0.14,1645109046.0,P12,D03,1,1,1
66,0.35,1645109046.015625,P12,D03,1,1,1
67,0.81,1645109046.03125,P12,D03,1,1,1
68,1.36,1645109046.046875,P12,D03,1,1,1
69,1.73,1645109046.0625,P12,D03,1,1,1
70,1.73,1645109046.078125,P12,D03,1,1,1
71,1.35,1645109046.09375,P12,D03,1,1,1
72,0.75,1645109046.109375,P12,D03,1,1,1
73,0.19,1645109046.125,P12,D03,1,1,1
74,-0.16,1645109046.140625,P12,D03,1,1,1
75,-0.26,1645109046.15625,P12,D03,1,1,1
76,-0.21,1645109046.171875,P12,D03,1,1,1
77,-0.17,1645109046.1875,P12,D03,1,1,1
78,-0.23,1645109046.203125,P12,D03,1,1,1
79,-0.37,1645109046.21875,P12,D03,1,1,1
80,-0.52,1645109046.234375,P12,D03,1,1,1
81,-0.58,1645109046.25,P12,D03,1,1,1
82,-0.52,1645109046.265625,P12,D03,1,1,1
83,-0.37,1645109046.28125,P12,D03,1,1,1
84,-0.19,1645109046.296875,P12,D03,1,1,1
85,-0.03,1645109046.3125,P12,D03,1,1,1
86,0.04,1645109046.328125,P12,D03,1,1,1
87,0.02,1645109046.34375,P12,D03,1,1,1
88,-0.12,1645109046.359375,P12,D03,1,1,1
89,-0.34,1645109046.375,P12,D03,1,1,1
90,-0.59,1645109046.390625,P12,D03,1,1,1
91,-0.8,1645109046.40625,P12,D03,1,1,1
92,-0.92,1645109046.421875,P12,D03,1,1,1
93,-0.96,1645109046.4375,P12,D03,1,1,1
94,-0.94,1645109046.453125,P12,D03,1,1,1
95,-0.89,1645109046.46875,P12,D03,1,1,1
96,-0.82,1645109046.484375,P12,D03,1,1,1
97,-0.71,1645109046.5,P12,D03,1,1,1
98,-0.58,1645109046.515625,P12,D03,1,1,1
99,-0.43,1645109046.53125,P12,D03,1,1,1
100,-0.32,1645109046.546875,P12,D03,1,1,1
101,-0.25,1645109046.5625,P12,D03,1,1,1
102,-0.25,1645109046.578125,P12,D03,1,1,1
103,-0.26,1645109046.59375,P12,D03,1,1,1
104,-0.26,1645109046.609375,P12,D03,1,1,1
105,-0.21,1645109046.625,P12,D03,1,1,1
106,-0.1,1645109046.640625,P12,D03,1,1,1
107,0.08,1645109046.65625,P12,D03,1,1,1
108,0.32,1645109046.671875,P12,D03,1,1,1
109,0.62,1645109046.6875,P12,D03,1,1,1
110,0.92,1645109046.703125,P12,D03,1,1,1
111,1.15,1645109046.71875,P12,D03,1,1,1
112,1.22,1645109046.734375,P12,D03,1,1,1
113,1.13,1645109046.75,P12,D03,1,1,1
114,0.94,1645109046.765625,P12,D03,1,1,1
115,0.75,1645109046.78125,P12,D03,1,1,1
116,0.65,1645109046.796875,P12,D03,1,1,1
117,0.62,1645109046.8125,P12,D03,1,1,1
118,0.58,1645109046.828125,P12,D03,1,1,1
119,0.43,1645109046.84375,P12,D03,1,1,1
120,0.17,1645109046.859375,P12,D03,1,1,1
121,-0.13,1645109046.875,P12,D03,1,1,1
122,-0.35,1645109046.890625,P12,D03,1,1,1
123,-0.43,1645109046.90625,P12,D03,1,1,1
124,-0.41,1645109046.921875,P12,D03,1,1,1
125,-0.37,1645109046.9375,P12,D03,1,1,1
126,-0.37,1645109046.953125,P12,D03,1,1,1
127,-0.41,1645109046.96875,P12,D03,1,1,1
128,-0.41,1645109046.984375,P12,D03,1,1,1
129,-0.28,1645109047.0,P12,D03,1,1,1
130,-0.05,1645109047.015625,P12,D03,1,1,1
131,0.19,1645109047.03125,P12,D03,1,1,1
132,0.32,1645109047.046875,P12,D03,1,1,1
133,0.32,1645109047.0625,P12,D03,1,1,1
134,0.27,1645109047.078125,P12,D03,1,1,1
135,0.32,1645109047.09375,P12,D03,1,1,1
136,0.53,1645109047.109375,P12,D03,1,1,1
137,0.87,1645109047.125,P12,D03,1,1,1
138,1.21,1645109047.140625,P12,D03,1,1,1
139,1.38,1645109047.15625,P12,D03,1,1,1
140,1.29,1645109047.171875,P12,D03,1,1,1
141,0.97,1645109047.1875,P12,D03,1,1,1
142,0.54,1645109047.203125,P12,D03,1,1,1
143,0.14,1645109047.21875,P12,D03,1,1,1
144,-0.14,1645109047.234375,P12,D03,1,1,1
145,-0.31,1645109047.25,P12,D03,1,1,1
146,-0.39,1645109047.265625,P12,D03,1,1,1
147,-0.42,1645109047.28125,P12,D03,1,1,1
148,-0.44,1645109047.296875,P12,D03,1,1,1
149,-0.4,1645109047.3125,P12,D03,1,1,1
150,-0.3,1645109047.328125,P12,D03,1,1,1
151,-0.13,1645109047.34375,P12,D03,1,1,1
152,0.06,1645109047.359375,P12,D03,1,1,1
153,0.23,1645109047.375,P12,D03,1,1,1
154,0.32,1645109047.390625,P12,D03,1,1,1
155,0.34,1645109047.40625,P12,D03,1,1,1
156,0.33,1645109047.421875,P12,D03,1,1,1
157,0.36,1645109047.4375,P12,D03,1,1,1
158,0.45,1645109047.453125,P12,D03,1,1,1
159,0.62,1645109047.46875,P12,D03,1,1,1
160,0.81,1645109047.484375,P12,D03,1,1,1
161,0.94,1645109047.5,P12,D03,1,1,1
162,0.95,1645109047.515625,P12,D03,1,1,1
163,0.83,1645109047.53125,P12,D03,1,1,1
164,0.6,1645109047.546875,P12,D03,1,1,1
165,0.36,1645109047.5625,P12,D03,1,1,1
166,0.22,1645109047.578125,P12,D03,1,1,1
167,0.28,1645109047.59375,P12,D03,1,1,1
168,0.58,1645109047.609375,P12,D03,1,1,1
169,1.12,1645109047.625,P12,D03,1,1,1
170,1.83,1645109047.640625,P12,D03,1,1,1
171,2.59,1645109047.65625,P12,D03,1,1,1
172,3.29,1645109047.671875,P12,D03,1,1,1
173,3.82,1645109047.6875,P12,D03,1,1,1
174,4.12,1645109047.703125,P12,D03,1,1,1
175,4.18,1645109047.71875,P12,D03,1,1,1
176,4.04,1645109047.734375,P12,D03,1,1,1
177,3.8,1645109047.75,P12,D03,1,1,1
178,3.6,1645109047.765625,P12,D03,1,1,1
179,3.59,1645109047.78125,P12,D03,1,1,1
180,3.86,1645109047.796875,P12,D03,1,1,1
181,4.42,1645109047.8125,P12,D03,1,1,1
182,5.15,1645109047.828125,P12,D03,1,1,1
183,5.88,1645109047.84375,P12,D03,1,1,1
184,6.44,1645109047.859375,P12,D03,1,1,1
185,6.77,1645109047.875,P12,D03,1,1,1
186,6.94,1645109047.890625,P12,D03,1,1,1
187,7.08,1645109047.90625,P12,D03,1,1,1
188,7.35,1645109047.921875,P12,D03,1,1,1
189,7.81,1645109047.9375,P12,D03,1,1,1
190,8.4,1645109047.953125,P12,D03,1,1,1
191,8.95,1645109047.96875,P12,D03,1,1,1
192,9.3,1645109047.984375,P12,D03,1,1,1
193,9.33,1645109048.0,P12,D03,1,1,1
194,8.99,1645109048.015625,P12,D03,1,1,1
195,8.34,1645109048.03125,P12,D03,1,1,1
196,7.46,1645109048.046875,P12,D03,1,1,1
197,6.46,1645109048.0625,P12,D03,1,1,1
198,5.42,1645109048.078125,P12,D03,1,1,1
199,4.37,1645109048.09375,P12,D03,1,1,1
200,3.29,1645109048.109375,P12,D03,1,1,1
201,2.15,1645109048.125,P12,D03,1,1,1
202,0.92,1645109048.140625,P12,D03,1,1,1
203,-0.38,1645109048.15625,P12,D03,1,1,1
204,-1.68,1645109048.171875,P12,D03,1,1,1
205,-2.92,1645109048.1875,P12,D03,1,1,1
206,-4.05,1645109048.203125,P12,D03,1,1,1
207,-5.08,1645109048.21875,P12,D03,1,1,1
208,-6.09,1645109048.234375,P12,D03,1,1,1
209,-7.11,1645109048.25,P12,D03,1,1,1
210,-8.15,1645109048.265625,P12,D03,1,1,1
211,-9.13,1645109048.28125,P12,D03,1,1,1
212,-9.91,1645109048.296875,P12,D03,1,1,1
213,-10.32,1645109048.3125,P12,D03,1,1,1
214,-10.23,1645109048.328125,P12,D03,1,1,1
215,-9.61,1645109048.34375,P12,D03,1,1,1
216,-8.58,1645109048.359375,P12,D03,1,1,1
217,-7.38,1645109048.375,P12,D03,1,1,1
218,-6.35,1645109048.390625,P12,D03,1,1,1
219,-5.77,1645109048.40625,P12,D03,1,1,1
220,-5.81,1645109048.421875,P12,D03,1,1,1
221,-6.41,1645109048.4375,P12,D03,1,1,1
222,-7.37,1645109048.453125,P12,D03,1,1,1
223,-8.37,1645109048.46875,P12,D03,1,1,1
224,-9.16,1645109048.484375,P12,D03,1,1,1
225,-9.58,1645109048.5,P12,D03,1,1,1
226,-9.59,1645109048.515625,P12,D03,1,1,1
227,-9.29,1645109048.53125,P12,D03,1,1,1
228,-8.79,1645109048.546875,P12,D03,1,1,1
229,-8.21,1645109048.5625,P12,D03,1,1,1
230,-7.61,1645109048.578125,P12,D03,1,1,1
231,-6.99,1645109048.59375,P12,D03,1,1,1
232,-6.32,1645109048.609375,P12,D03,1,1,1
233,-5.51,1645109048.625,P12,D03,1,1,1
234,-4.54,1645109048.640625,P12,D03,1,1,1
235,-3.49,1645109048.65625,P12,D03,1,1,1
236,-2.55,1645109048.671875,P12,D03,1,1,1
237,-1.94,1645109048.6875,P12,D03,1,1,1
238,-1.83,1645109048.703125,P12,D03,1,1,1
239,-2.26,1645109048.71875,P12,D03,1,1,1
240,-3.06,1645109048.734375,P12,D03,1,1,1
241,-3.97,1645109048.75,P12,D03,1,1,1
242,-4.7,1645109048.765625,P12,D03,1,1,1
243,-5.04,1645109048.78125,P12,D03,1,1,1
244,-4.9,1645109048.796875,P12,D03,1,1,1
245,-4.27,1645109048.8125,P12,D03,1,1,1
246,-3.22,1645109048.828125,P12,D03,1,1,1
247,-1.84,1645109048.84375,P12,D03,1,1,1
248,-0.25,1645109048.859375,P12,D03,1,1,1
249,1.38,1645109048.875,P12,D03,1,1,1
250,2.82,1645109048.890625,P12,D03,1,1,1
251,3.85,1645109048.90625,P12,D03,1,1,1
252,4.28,1645109048.921875,P12,D03,1,1,1
253,4.06,1645109048.9375,P12,D03,1,1,1
254,3.31,1645109048.953125,P12,D03,1,1,1
255,2.3,1645109048.96875,P12,D03,1,1,1
256,1.34,1645109048.984375,P12,D03,1,1,1
257,0.67,1645109049.0,P12,D03,1,1,1
258,0.42,1645109049.015625,P12,D03,1,1,1
259,0.53,1645109049.03125,P12,D03,1,1,1
260,0.88,1645109049.046875,P12,D03,1,1,1
261,1.35,1645109049.0625,P12,D03,1,1,1
262,1.87,1645109049.078125,P12,D03,1,1,1
263,2.41,1645109049.09375,P12,D03,1,1,1
264,2.95,1645109049.109375,P12,D03,1,1,1
265,3.42,1645109049.125,P12,D03,1,1,1
266,3.69,1645109049.140625,P12,D03,1,1,1
267,3.69,1645109049.15625,P12,D03,1,1,1
268,3.42,1645109049.171875,P12,D03,1,1,1
269,3.01,1645109049.1875,P12,D03,1,1,1
270,2.6,1645109049.203125,P12,D03,1,1,1
271,2.31,1645109049.21875,P12,D03,1,1,1
272,2.13,1645109049.234375,P12,D03,1,1,1
273,1.97,1645109049.25,P12,D03,1,1,1
274,1.72,1645109049.265625,P12,D03,1,1,1
275,1.37,1645109049.28125,P12,D03,1,1,1
276,0.96,1645109049.296875,P12,D03,1,1,1
277,0.63,1645109049.3125,P12,D03,1,1,1
278,0.48,1645109049.328125,P12,D03,1,1,1
279,0.52,1645109049.34375,P12,D03,1,1,1
280,0.67,1645109049.359375,P12,D03,1,1,1
281,0.82,1645109049.375,P12,D03,1,1,1
282,0.86,1645109049.390625,P12,D03,1,1,1
283,0.76,1645109049.40625,P12,D03,1,1,1
284,0.55,1645109049.421875,P12,D03,1,1,1
285,0.29,1645109049.4375,P12,D03,1,1,1
286,0.03,1645109049.453125,P12,D03,1,1,1
287,-0.18,1645109049.46875,P12,D03,1,1,1
288,-0.3,1645109049.484375,P12,D03,1,1,1
289,-0.31,1645109049.5,P12,D03,1,1,1
290,-0.19,1645109049.515625,P12,D03,1,1,1
291,0.02,1645109049.53125,P12,D03,1,1,1
292,0.26,1645109049.546875,P12,D03,1,1,1
293,0.4,1645109049.5625,P12,D03,1,1,1
294,0.38,1645109049.578125,P12,D03,1,1,1
295,0.15,1645109049.59375,P12,D03,1,1,1
296,-0.21,1645109049.609375,P12,D03,1,1,1
297,-0.58,1645109049.625,P12,D03,1,1,1
298,-0.82,1645109049.640625,P12,D03,1,1,1
299,-0.88,1645109049.65625,P12,D03,1,1,1
300,-0.81,1645109049.671875,P12,D03,1,1,1
301,-0.74,1645109049.6875,P12,D03,1,1,1
302,-0.78,1645109049.703125,P12,D03,1,1,1
303,-0.96,1645109049.71875,P12,D03,1,1,1
304,-1.19,1645109049.734375,P12,D03,1,1,1
305,-1.34,1645109049.75,P12,D03,1,1,1
306,-1.27,1645109049.765625,P12,D03,1,1,1
307,-0.98,1645109049.78125,P12,D03,1,1,1
308,-0.61,1645109049.796875,P12,D03,1,1,1
309,-0.31,1645109049.8125,P12,D03,1,1,1
310,-0.23,1645109049.828125,P12,D03,1,1,1
311,-0.36,1645109049.84375,P12,D03,1,1,1
312,-0.59,1645109049.859375,P12,D03,1,1,1
313,-0.73,1645109049.875,P12,D03,1,1,1
314,-0.67,1645109049.890625,P12,D03,1,1,1
315,-0.39,1645109049.90625,P12,D03,1,1,1
316,0.01,1645109049.921875,P12,D03,1,1,1
317,0.39,1645109049.9375,P12,D03,1,1,1
318,0.67,1645109049.953125,P12,D03,1,1,1
319,0.82,1645109049.96875,P12,D03,1,1,1
320,0.87,1645109049.984375,P12,D03,1,1,1
321,0.87,1645109050.0,P12,D03,1,1,1
322,0.84,1645109050.015625,P12,D03,1,1,1
323,0.79,1645109050.03125,P12,D03,1,1,1
324,0.73,1645109050.046875,P12,D03,1,1,1
325,0.7,1645109050.0625,P12,D03,1,1,1
326,0.72,1645109050.078125,P12,D03,1,1,1
327,0.77,1645109050.09375,P12,D03,1,1,1
328,0.82,1645109050.109375,P12,D03,1,1,1
329,0.8,1645109050.125,P12,D03,1,1,1
330,0.67,1645109050.140625,P12,D03,1,1,1
331,0.42,1645109050.15625,P12,D03,1,1,1
332,0.14,1645109050.171875,P12,D03,1,1,1
333,-0.09,1645109050.1875,P12,D03,1,1,1
334,-0.18,1645109050.203125,P12,D03,1,1,1
335,-0.08,1645109050.21875,P12,D03,1,1,1
336,0.19,1645109050.234375,P12,D03,1,1,1
337,0.59,1645109050.25,P12,D03,1,1,1
338,1.03,1645109050.265625,P12,D03,1,1,1
339,1.42,1645109050.28125,P12,D03,1,1,1
340,1.64,1645109050.296875,P12,D03,1,1,1
341,1.65,1645109050.3125,P12,D03,1,1,1
342,1.41,1645109050.328125,P12,D03,1,1,1
343,0.99,1645109050.34375,P12,D03,1,1,1
344,0.46,1645109050.359375,P12,D03,1,1,1
345,-0.05,1645109050.375,P12,D03,1,1,1
346,-0.47,1645109050.390625,P12,D03,1,1,1
347,-0.71,1645109050.40625,P12,D03,1,1,1
348,-0.73,1645109050.421875,P12,D03,1,1,1
349,-0.55,1645109050.4375,P12,D03,1,1,1
350,-0.21,1645109050.453125,P12,D03,1,1,1
351,0.19,1645109050.46875,P12,D03,1,1,1
352,0.49,1645109050.484375,P12,D03,1,1,1
353,0.58,1645109050.5,P12,D03,1,1,1
354,0.42,1645109050.515625,P12,D03,1,1,1
355,0.06,1645109050.53125,P12,D03,1,1,1
356,-0.35,1645109050.546875,P12,D03,1,1,1
357,-0.69,1645109050.5625,P12,D03,1,1,1
358,-0.88,1645109050.578125,P12,D03,1,1,1
359,-0.94,1645109050.59375,P12,D03,1,1,1
360,-0.88,1645109050.609375,P12,D03,1,1,1
361,-0.75,1645109050.625,P12,D03,1,1,1
362,-0.52,1645109050.640625,P12,D03,1,1,1
363,-0.21,1645109050.65625,P12,D03,1,1,1
364,0.16,1645109050.671875,P12,D03,1,1,1
365,0.47,1645109050.6875,P12,D03,1,1,1
366,0.58,1645109050.703125,P12,D03,1,1,1
367,0.42,1645109050.71875,P12,D03,1,1,1
368,0.05,1645109050.734375,P12,D03,1,1,1
369,-0.33,1645109050.75,P12,D03,1,1,1
370,-0.53,1645109050.765625,P12,D03,1,1,1
371,-0.4,1645109050.78125,P12,D03,1,1,1
372,0.02,1645109050.796875,P12,D03,1,1,1
373,0.54,1645109050.8125,P12,D03,1,1,1
374,0.93,1645109050.828125,P12,D03,1,1,1
375,1.03,1645109050.84375,P12,D03,1,1,1
376,0.83,1645109050.859375,P12,D03,1,1,1
377,0.43,1645109050.875,P12,D03,1,1,1
378,-0.03,1645109050.890625,P12,D03,1,1,1
379,-0.43,1645109050.90625,P12,D03,1,1,1
380,-0.73,1645109050.921875,P12,D03,1,1,1
381,-0.95,1645109050.9375,P12,D03,1,1,1
382,-1.08,1645109050.953125,P12,D03,1,1,1
383,-1.1,1645109050.96875,P12,D03,1,1,1
384,-0.95,1645109050.984375,P12,D03,1,1,1
385,-0.6,1645109051.0,P12,D03,1,1,1
386,-0.12,1645109051.015625,P12,D03,1,1,1
387,0.36,1645109051.03125,P12,D03,1,1,1
388,0.67,1645109051.046875,P12,D03,1,1,1
389,0.72,1645109051.0625,P12,D03,1,1,1
390,0.52,1645109051.078125,P12,D03,1,1,1
391,0.19,1645109051.09375,P12,D03,1,1,1
392,-0.12,1645109051.109375,P12,D03,1,1,1
393,-0.29,1645109051.125,P12,D03,1,1,1
394,-0.33,1645109051.140625,P12,D03,1,1,1
395,-0.31,1645109051.15625,P12,D03,1,1,1
396,-0.31,1645109051.171875,P12,D03,1,1,1
397,-0.37,1645109051.1875,P12,D03,1,1,1
398,-0.49,1645109051.203125,P12,D03,1,1,1
399,-0.59,1645109051.21875,P12,D03,1,1,1
400,-0.6,1645109051.234375,P12,D03,1,1,1
401,-0.5,1645109051.25,P12,D03,1,1,1
402,-0.32,1645109051.265625,P12,D03,1,1,1
403,-0.13,1645109051.28125,P12,D03,1,1,1
404,0.04,1645109051.296875,P12,D03,1,1,1
405,0.17,1645109051.3125,P12,D03,1,1,1
406,0.3,1645109051.328125,P12,D03,1,1,1
407,0.45,1645109051.34375,P12,D03,1,1,1
408,0.59,1645109051.359375,P12,D03,1,1,1
409,0.67,1645109051.375,P12,D03,1,1,1
410,0.6,1645109051.390625,P12,D03,1,1,1
411,0.36,1645109051.40625,P12,D03,1,1,1
412,0.03,1645109051.421875,P12,D03,1,1,1
413,-0.24,1645109051.4375,P12,D03,1,1,1
414,-0.29,1645109051.453125,P12,D03,1,1,1
415,-0.04,1645109051.46875,P12,D03,1,1,1
416,0.46,1645109051.484375,P12,D03,1,1,1
417,1.06,1645109051.5,P12,D03,1,1,1
418,1.58,1645109051.515625,P12,D03,1,1,1
419,1.88,1645109051.53125,P12,D03,1,1,1
420,1.92,1645109051.546875,P12,D03,1,1,1
421,1.72,1645109051.5625,P12,D03,1,1,1
422,1.33,1645109051.578125,P12,D03,1,1,1
423,0.84,1645109051.59375,P12,D03,1,1,1
424,0.31,1645109051.609375,P12,D03,1,1,1
425,-0.17,1645109051.625,P12,D03,1,1,1
426,-0.53,1645109051.640625,P12,D03,1,1,1
427,-0.72,1645109051.65625,P12,D03,1,1,1
428,-0.72,1645109051.671875,P12,D03,1,1,1
429,-0.58,1645109051.6875,P12,D03,1,1,1
430,-0.41,1645109051.703125,P12,D03,1,1,1
431,-0.29,1645109051.71875,P12,D03,1,1,1
432,-0.27,1645109051.734375,P12,D03,1,1,1
433,-0.34,1645109051.75,P12,D03,1,1,1
434,-0.45,1645109051.765625,P12,D03,1,1,1
435,-0.55,1645109051.78125,P12,D03,1,1,1
436,-0.6,1645109051.796875,P12,D03,1,1,1
437,-0.6,1645109051.8125,P12,D03,1,1,1
438,-0.52,1645109051.828125,P12,D03,1,1,1
439,-0.37,1645109051.84375,P12,D03,1,1,1
440,-0.17,1645109051.859375,P12,D03,1,1,1
441,0.06,1645109051.875,P12,D03,1,1,1
442,0.23,1645109051.890625,P12,D03,1,1,1
443,0.27,1645109051.90625,P12,D03,1,1,1
444,0.17,1645109051.921875,P12,D03,1,1,1
445,-0.05,1645109051.9375,P12,D03,1,1,1
446,-0.3,1645109051.953125,P12,D03,1,1,1
447,-0.51,1645109051.96875,P12,D03,1,1,1
448,-0.62,1645109051.984375,P12,D03,1,1,1
449,-0.63,1645109052.0,P12,D03,1,1,1
450,-0.57,1645109052.015625,P12,D03,1,1,1
451,-0.45,1645109052.03125,P12,D03,1,1,1
452,-0.24,1645109052.046875,P12,D03,1,1,1
453,0.04,1645109052.0625,P12,D03,1,1,1
454,0.33,1645109052.078125,P12,D03,1,1,1
455,0.54,1645109052.09375,P12,D03,1,1,1
456,0.56,1645109052.109375,P12,D03,1,1,1
457,0.33,1645109052.125,P12,D03,1,1,1
458,-0.05,1645109052.140625,P12,D03,1,1,1
459,-0.42,1645109052.15625,P12,D03,1,1,1
460,-0.6,1645109052.171875,P12,D03,1,1,1
461,-0.5,1645109052.1875,P12,D03,1,1,1
462,-0.19,1645109052.203125,P12,D03,1,1,1
463,0.17,1645109052.21875,P12,D03,1,1,1
464,0.42,1645109052.234375,P12,D03,1,1,1
465,0.45,1645109052.25,P12,D03,1,1,1
466,0.29,1645109052.265625,P12,D03,1,1,1
467,0.06,1645109052.28125,P12,D03,1,1,1
468,-0.12,1645109052.296875,P12,D03,1,1,1
469,-0.19,1645109052.3125,P12,D03,1,1,1
470,-0.13,1645109052.328125,P12,D03,1,1,1
471,0.01,1645109052.34375,P12,D03,1,1,1
472,0.17,1645109052.359375,P12,D03,1,1,1
473,0.34,1645109052.375,P12,D03,1,1,1
474,0.52,1645109052.390625,P12,D03,1,1,1
475,0.72,1645109052.40625,P12,D03,1,1,1
476,0.89,1645109052.421875,P12,D03,1,1,1
477,0.98,1645109052.4375,P12,D03,1,1,1
478,0.92,1645109052.453125,P12,D03,1,1,1
479,0.67,1645109052.46875,P12,D03,1,1,1
480,0.28,1645109052.484375,P12,D03,1,1,1
481,-0.14,1645109052.5,P12,D03,1,1,1
482,-0.47,1645109052.515625,P12,D03,1,1,1
483,-0.65,1645109052.53125,P12,D03,1,1,1
484,-0.65,1645109052.546875,P12,D03,1,1,1
485,-0.56,1645109052.5625,P12,D03,1,1,1
486,-0.47,1645109052.578125,P12,D03,1,1,1
487,-0.44,1645109052.59375,P12,D03,1,1,1
488,-0.49,1645109052.609375,P12,D03,1,1,1
489,-0.58,1645109052.625,P12,D03,1,1,1
490,-0.63,1645109052.640625,P12,D03,1,1,1
491,-0.56,1645109052.65625,P12,D03,1,1,1
492,-0.35,1645109052.671875,P12,D03,1,1,1
493,-0.05,1645109052.6875,P12,D03,1,1,1
494,0.21,1645109052.703125,P12,D03,1,1,1
495,0.33,1645109052.71875,P12,D03,1,1,1
496,0.25,1645109052.734375,P12,D03,1,1,1
497,0.02,1645109052.75,P12,D03,1,1,1
498,-0.24,1645109052.765625,P12,D03,1,1,1
499,-0.38,1645109052.78125,P12,D03,1,1,1
500,-0.33,1645109052.796875,P12,D03,1,1,1
501,-0.12,1645109052.8125,P12,D03,1,1,1
502,0.15,1645109052.828125,P12,D03,1,1,1
503,0.37,1645109052.84375,P12,D03,1,1,1
504,0.48,1645109052.859375,P12,D03,1,1,1
505,0.51,1645109052.875,P12,D03,1,1,1
506,0.51,1645109052.890625,P12,D03,1,1,1
507,0.55,1645109052.90625,P12,D03,1,1,1
508,0.64,1645109052.921875,P12,D03,1,1,1
509,0.75,1645109052.9375,P12,D03,1,1,1
510,0.83,1645109052.953125,P12,D03,1,1,1
511,0.84,1645109052.96875,P12,D03,1,1,1
512,0.78,1645109052.984375,P12,D03,1,1,1
513,0.66,1645109053.0,P12,D03,1,1,1
514,0.53,1645109053.015625,P12,D03,1,1,1
515,0.44,1645109053.03125,P12,D03,1,1,1
516,0.42,1645109053.046875,P12,D03,1,1,1
517,0.49,1645109053.0625,P12,D03,1,1,1
518,0.63,1645109053.078125,P12,D03,1,1,1
519,0.77,1645109053.09375,P12,D03,1,1,1
520,0.83,1645109053.109375,P12,D03,1,1,1
521,0.76,1645109053.125,P12,D03,1,1,1
522,0.53,1645109053.140625,P12,D03,1,1,1
523,0.18,1645109053.15625,P12,D03,1,1,1
524,-0.2,1645109053.171875,P12,D03,1,1,1
525,-0.51,1645109053.1875,P12,D03,1,1,1
526,-0.71,1645109053.203125,P12,D03,1,1,1
527,-0.79,1645109053.21875,P12,D03,1,1,1
528,-0.79,1645109053.234375,P12,D03,1,1,1
529,-0.73,1645109053.25,P12,D03,1,1,1
530,-0.64,1645109053.265625,P12,D03,1,1,1
531,-0.54,1645109053.28125,P12,D03,1,1,1
532,-0.42,1645109053.296875,P12,D03,1,1,1
533,-0.35,1645109053.3125,P12,D03,1,1,1
534,-0.38,1645109053.328125,P12,D03,1,1,1
535,-0.54,1645109053.34375,P12,D03,1,1,1
536,-0.79,1645109053.359375,P12,D03,1,1,1
537,-1.01,1645109053.375,P12,D03,1,1,1
538,-1.11,1645109053.390625,P12,D03,1,1,1
539,-1.03,1645109053.40625,P12,D03,1,1,1
540,-0.81,1645109053.421875,P12,D03,1,1,1
541,-0.56,1645109053.4375,P12,D03,1,1,1
542,-0.4,1645109053.453125,P12,D03,1,1,1
543,-0.4,1645109053.46875,P12,D03,1,1,1
544,-0.5,1645109053.484375,P12,D03,1,1,1
545,-0.61,1645109053.5,P12,D03,1,1,1
546,-0.63,1645109053.515625,P12,D03,1,1,1
547,-0.5,1645109053.53125,P12,D03,1,1,1
548,-0.25,1645109053.546875,P12,D03,1,1,1
549,0.03,1645109053.5625,P12,D03,1,1,1
550,0.26,1645109053.578125,P12,D03,1,1,1
551,0.37,1645109053.59375,P12,D03,1,1,1
552,0.33,1645109053.609375,P12,D03,1,1,1
553,0.21,1645109053.625,P12,D03,1,1,1
554,0.05,1645109053.640625,P12,D03,1,1,1
555,-0.09,1645109053.65625,P12,D03,1,1,1
556,-0.16,1645109053.671875,P12,D03,1,1,1
557,-0.16,1645109053.6875,P12,D03,1,1,1
558,-0.09,1645109053.703125,P12,D03,1,1,1
559,0.01,1645109053.71875,P12,D03,1,1,1
560,0.11,1645109053.734375,P12,D03,1,1,1
561,0.16,1645109053.75,P12,D03,1,1,1
562,0.13,1645109053.765625,P12,D03,1,1,1
563,0.04,1645109053.78125,P12,D03,1,1,1
564,-0.11,1645109053.796875,P12,D03,1,1,1
565,-0.25,1645109053.8125,P12,D03,1,1,1
566,-0.32,1645109053.828125,P12,D03,1,1,1
567,-0.3,1645109053.84375,P12,D03,1,1,1
568,-0.16,1645109053.859375,P12,D03,1,1,1
569,0.07,1645109053.875,P12,D03,1,1,1
570,0.33,1645109053.890625,P12,D03,1,1,1
571,0.59,1645109053.90625,P12,D03,1,1,1
572,0.77,1645109053.921875,P12,D03,1,1,1
573,0.84,1645109053.9375,P12,D03,1,1,1
574,0.76,1645109053.953125,P12,D03,1,1,1
575,0.53,1645109053.96875,P12,D03,1,1,1
576,0.2,1645109053.984375,P12,D03,1,1,1
577,-0.14,1645109054.0,P12,D03,1,1,1
578,-0.39,1645109054.015625,P12,D03,1,1,1
579,-0.47,1645109054.03125,P12,D03,1,1,1
580,-0.35,1645109054.046875,P12,D03,1,1,1
581,-0.1,1645109054.0625,P12,D03,1,1,1
582,0.22,1645109054.078125,P12,D03,1,1,1
583,0.51,1645109054.09375,P12,D03,1,1,1
584,0.75,1645109054.109375,P12,D03,1,1,1
585,0.93,1645109054.125,P12,D03,1,1,1
586,1.04,1645109054.140625,P12,D03,1,1,1
587,1.04,1645109054.15625,P12,D03,1,1,1
588,0.87,1645109054.171875,P12,D03,1,1,1
589,0.49,1645109054.1875,P12,D03,1,1,1
590,-0.04,1645109054.203125,P12,D03,1,1,1
591,-0.57,1645109054.21875,P12,D03,1,1,1
592,-0.89,1645109054.234375,P12,D03,1,1,1
593,-0.86,1645109054.25,P12,D03,1,1,1
594,-0.46,1645109054.265625,P12,D03,1,1,1
595,0.12,1645109054.28125,P12,D03,1,1,1
596,0.64,1645109054.296875,P12,D03,1,1,1
597,0.91,1645109054.3125,P12,D03,1,1,1
598,0.84,1645109054.328125,P12,D03,1,1,1
599,0.54,1645109054.34375,P12,D03,1,1,1
600,0.17,1645109054.359375,P12,D03,1,1,1
601,-0.13,1645109054.375,P12,D03,1,1,1
602,-0.26,1645109054.390625,P12,D03,1,1,1
603,-0.25,1645109054.40625,P12,D03,1,1,1
604,-0.17,1645109054.421875,P12,D03,1,1,1
605,-0.11,1645109054.4375,P12,D03,1,1,1
606,-0.1,1645109054.453125,P12,D03,1,1,1
607,-0.17,1645109054.46875,P12,D03,1,1,1
608,-0.29,1645109054.484375,P12,D03,1,1,1
609,-0.43,1645109054.5,P12,D03,1,1,1
610,-0.53,1645109054.515625,P12,D03,1,1,1
611,-0.51,1645109054.53125,P12,D03,1,1,1
612,-0.34,1645109054.546875,P12,D03,1,1,1
613,-0.02,1645109054.5625,P12,D03,1,1,1
614,0.4,1645109054.578125,P12,D03,1,1,1
615,0.8,1645109054.59375,P12,D03,1,1,1
616,1.05,1645109054.609375,P12,D03,1,1,1
617,1.09,1645109054.625,P12,D03,1,1,1
618,0.94,1645109054.640625,P12,D03,1,1,1
619,0.7,1645109054.65625,P12,D03,1,1,1
620,0.49,1645109054.671875,P12,D03,1,1,1
621,0.39,1645109054.6875,P12,D03,1,1,1
622,0.4,1645109054.703125,P12,D03,1,1,1
623,0.44,1645109054.71875,P12,D03,1,1,1
624,0.43,1645109054.734375,P12,D03,1,1,1
625,0.33,1645109054.75,P12,D03,1,1,1
626,0.18,1645109054.765625,P12,D03,1,1,1
627,0.07,1645109054.78125,P12,D03,1,1,1
628,0.07,1645109054.796875,P12,D03,1,1,1
629,0.18,1645109054.8125,P12,D03,1,1,1
630,0.32,1645109054.828125,P12,D03,1,1,1
631,0.4,1645109054.84375,P12,D03,1,1,1
632,0.34,1645109054.859375,P12,D03,1,1,1
633,0.11,1645109054.875,P12,D03,1,1,1
634,-0.25,1645109054.890625,P12,D03,1,1,1
635,-0.68,1645109054.90625,P12,D03,1,1,1
636,-1.11,1645109054.921875,P12,D03,1,1,1
637,-1.48,1645109054.9375,P12,D03,1,1,1
638,-1.73,1645109054.953125,P12,D03,1,1,1
639,-1.78,1645109054.96875,P12,D03,1,1,1
640,-1.6,1645109054.984375,P12,D03,1,1,1
641,-1.24,1645109055.0,P12,D03,1,1,1
642,-0.77,1645109055.015625,P12,D03,1,1,1
643,-0.32,1645109055.03125,P12,D03,1,1,1
644,0.01,1645109055.046875,P12,D03,1,1,1
645,0.16,1645109055.0625,P12,D03,1,1,1
646,0.15,1645109055.078125,P12,D03,1,1,1
647,0.03,1645109055.09375,P12,D03,1,1,1
648,-0.14,1645109055.109375,P12,D03,1,1,1
649,-0.32,1645109055.125,P12,D03,1,1,1
650,-0.46,1645109055.140625,P12,D03,1,1,1
651,-0.57,1645109055.15625,P12,D03,1,1,1
652,-0.63,1645109055.171875,P12,D03,1,1,1
653,-0.67,1645109055.1875,P12,D03,1,1,1
654,-0.69,1645109055.203125,P12,D03,1,1,1
655,-0.71,1645109055.21875,P12,D03,1,1,1
656,-0.71,1645109055.234375,P12,D03,1,1,1
657,-0.65,1645109055.25,P12,D03,1,1,1
658,-0.51,1645109055.265625,P12,D03,1,1,1
659,-0.28,1645109055.28125,P12,D03,1,1,1
660,-0.01,1645109055.296875,P12,D03,1,1,1
661,0.2,1645109055.3125,P12,D03,1,1,1
662,0.28,1645109055.328125,P12,D03,1,1,1
663,0.18,1645109055.34375,P12,D03,1,1,1
664,-0.06,1645109055.359375,P12,D03,1,1,1
665,-0.33,1645109055.375,P12,D03,1,1,1
666,-0.53,1645109055.390625,P12,D03,1,1,1
667,-0.58,1645109055.40625,P12,D03,1,1,1
668,-0.47,1645109055.421875,P12,D03,1,1,1
669,-0.26,1645109055.4375,P12,D03,1,1,1
670,-0.03,1645109055.453125,P12,D03,1,1,1
671,0.18,1645109055.46875,P12,D03,1,1,1
672,0.32,1645109055.484375,P12,D03,1,1,1
673,0.44,1645109055.5,P12,D03,1,1,1
674,0.54,1645109055.515625,P12,D03,1,1,1
675,0.65,1645109055.53125,P12,D03,1,1,1
676,0.76,1645109055.546875,P12,D03,1,1,1
677,0.85,1645109055.5625,P12,D03,1,1,1
678,0.91,1645109055.578125,P12,D03,1,1,1
679,0.94,1645109055.59375,P12,D03,1,1,1
680,0.93,1645109055.609375,P12,D03,1,1,1
681,0.88,1645109055.625,P12,D03,1,1,1
682,0.81,1645109055.640625,P12,D03,1,1,1
683,0.75,1645109055.65625,P12,D03,1,1,1
684,0.74,1645109055.671875,P12,D03,1,1,1
685,0.78,1645109055.6875,P12,D03,1,1,1
686,0.86,1645109055.703125,P12,D03,1,1,1
687,0.89,1645109055.71875,P12,D03,1,1,1
688,0.78,1645109055.734375,P12,D03,1,1,1
689,0.53,1645109055.75,P12,D03,1,1,1
690,0.19,1645109055.765625,P12,D03,1,1,1
691,-0.07,1645109055.78125,P12,D03,1,1,1
692,-0.12,1645109055.796875,P12,D03,1,1,1
693,0.04,1645109055.8125,P12,D03,1,1,1
694,0.32,1645109055.828125,P12,D03,1,1,1
695,0.53,1645109055.84375,P12,D03,1,1,1
696,0.53,1645109055.859375,P12,D03,1,1,1
697,0.29,1645109055.875,P12,D03,1,1,1
698,-0.09,1645109055.890625,P12,D03,1,1,1
699,-0.43,1645109055.90625,P12,D03,1,1,1
700,-0.59,1645109055.921875,P12,D03,1,1,1
701,-0.51,1645109055.9375,P12,D03,1,1,1
702,-0.28,1645109055.953125,P12,D03,1,1,1
703,-0.04,1645109055.96875,P12,D03,1,1,1
704,0.09,1645109055.984375,P12,D03,1,1,1
705,0.05,1645109056.0,P12,D03,1,1,1
706,-0.13,1645109056.015625,P12,D03,1,1,1
707,-0.33,1645109056.03125,P12,D03,1,1,1
708,-0.43,1645109056.046875,P12,D03,1,1,1
709,-0.39,1645109056.0625,P12,D03,1,1,1
710,-0.2,1645109056.078125,P12,D03,1,1,1
711,0.03,1645109056.09375,P12,D03,1,1,1
712,0.19,1645109056.109375,P12,D03,1,1,1
713,0.22,1645109056.125,P12,D03,1,1,1
714,0.11,1645109056.140625,P12,D03,1,1,1
715,-0.06,1645109056.15625,P12,D03,1,1,1
716,-0.21,1645109056.171875,P12,D03,1,1,1
717,-0.28,1645109056.1875,P12,D03,1,1,1
718,-0.28,1645109056.203125,P12,D03,1,1,1
719,-0.21,1645109056.21875,P12,D03,1,1,1
720,-0.12,1645109056.234375,P12,D03,1,1,1
721,0.01,1645109056.25,P12,D03,1,1,1
722,0.18,1645109056.265625,P12,D03,1,1,1
723,0.34,1645109056.28125,P12,D03,1,1,1
724,0.42,1645109056.296875,P12,D03,1,1,1
725,0.34,1645109056.3125,P12,D03,1,1,1
726,0.04,1645109056.328125,P12,D03,1,1,1
727,-0.44,1645109056.34375,P12,D03,1,1,1
728,-0.97,1645109056.359375,P12,D03,1,1,1
729,-1.39,1645109056.375,P12,D03,1,1,1
730,-1.54,1645109056.390625,P12,D03,1,1,1
731,-1.39,1645109056.40625,P12,D03,1,1,1
732,-0.97,1645109056.421875,P12,D03,1,1,1
733,-0.36,1645109056.4375,P12,D03,1,1,1
734,0.33,1645109056.453125,P12,D03,1,1,1
735,0.97,1645109056.46875,P12,D03,1,1,1
736,1.46,1645109056.484375,P12,D03,1,1,1
737,1.72,1645109056.5,P12,D03,1,1,1
738,1.68,1645109056.515625,P12,D03,1,1,1
739,1.35,1645109056.53125,P12,D03,1,1,1
740,0.78,1645109056.546875,P12,D03,1,1,1
741,0.11,1645109056.5625,P12,D03,1,1,1
742,-0.49,1645109056.578125,P12,D03,1,1,1
743,-0.91,1645109056.59375,P12,D03,1,1,1
744,-1.08,1645109056.609375,P12,D03,1,1,1
745,-1.01,1645109056.625,P12,D03,1,1,1
746,-0.79,1645109056.640625,P12,D03,1,1,1
747,-0.51,1645109056.65625,P12,D03,1,1,1
748,-0.27,1645109056.671875,P12,D03,1,1,1
749,-0.09,1645109056.6875,P12,D03,1,1,1
750,-0.0,1645109056.703125,P12,D03,1,1,1
751,0.03,1645109056.71875,P12,D03,1,1,1
752,0.05,1645109056.734375,P12,D03,1,1,1
753,0.1,1645109056.75,P12,D03,1,1,1
754,0.23,1645109056.765625,P12,D03,1,1,1
755,0.47,1645109056.78125,P12,D03,1,1,1
756,0.77,1645109056.796875,P12,D03,1,1,1
757,1.08,1645109056.8125,P12,D03,1,1,1
758,1.3,1645109056.828125,P12,D03,1,1,1
759,1.34,1645109056.84375,P12,D03,1,1,1
760,1.2,1645109056.859375,P12,D03,1,1,1
761,0.88,1645109056.875,P12,D03,1,1,1
762,0.5,1645109056.890625,P12,D03,1,1,1
763,0.15,1645109056.90625,P12,D03,1,1,1
764,-0.09,1645109056.921875,P12,D03,1,1,1
765,-0.2,1645109056.9375,P12,D03,1,1,1
766,-0.21,1645109056.953125,P12,D03,1,1,1
767,-0.19,1645109056.96875,P12,D03,1,1,1
768,-0.21,1645109056.984375,P12,D03,1,1,1
769,-0.29,1645109057.0,P12,D03,1,1,1
770,-0.43,1645109057.015625,P12,D03,1,1,1
771,-0.58,1645109057.03125,P12,D03,1,1,1
772,-0.71,1645109057.046875,P12,D03,1,1,1
773,-0.77,1645109057.0625,P12,D03,1,1,1
774,-0.73,1645109057.078125,P12,D03,1,1,1
775,-0.56,1645109057.09375,P12,D03,1,1,1
776,-0.25,1645109057.109375,P12,D03,1,1,1
777,0.18,1645109057.125,P12,D03,1,1,1
778,0.64,1645109057.140625,P12,D03,1,1,1
779,1.02,1645109057.15625,P12,D03,1,1,1
780,1.18,1645109057.171875,P12,D03,1,1,1
781,1.07,1645109057.1875,P12,D03,1,1,1
782,0.72,1645109057.203125,P12,D03,1,1,1
783,0.24,1645109057.21875,P12,D03,1,1,1
784,-0.2,1645109057.234375,P12,D03,1,1,1
785,-0.45,1645109057.25,P12,D03,1,1,1
786,-0.4,1645109057.265625,P12,D03,1,1,1
787,-0.07,1645109057.28125,P12,D03,1,1,1
788,0.43,1645109057.296875,P12,D03,1,1,1
789,0.94,1645109057.3125,P12,D03,1,1,1
790,1.25,1645109057.328125,P12,D03,1,1,1
791,1.25,1645109057.34375,P12,D03,1,1,1
792,0.91,1645109057.359375,P12,D03,1,1,1
793,0.35,1645109057.375,P12,D03,1,1,1
794,-0.22,1645109057.390625,P12,D03,1,1,1
795,-0.6,1645109057.40625,P12,D03,1,1,1
796,-0.65,1645109057.421875,P12,D03,1,1,1
797,-0.32,1645109057.4375,P12,D03,1,1,1
798,0.31,1645109057.453125,P12,D03,1,1,1
799,1.06,1645109057.46875,P12,D03,1,1,1
800,1.74,1645109057.484375,P12,D03,1,1,1
801,2.16,1645109057.5,P12,D03,1,1,1
802,2.21,1645109057.515625,P12,D03,1,1,1
803,1.87,1645109057.53125,P12,D03,1,1,1
804,1.21,1645109057.546875,P12,D03,1,1,1
805,0.42,1645109057.5625,P12,D03,1,1,1
806,-0.32,1645109057.578125,P12,D03,1,1,1
807,-0.81,1645109057.59375,P12,D03,1,1,1
808,-1.0,1645109057.609375,P12,D03,1,1,1
809,-0.93,1645109057.625,P12,D03,1,1,1
810,-0.69,1645109057.640625,P12,D03,1,1,1
811,-0.42,1645109057.65625,P12,D03,1,1,1
812,-0.18,1645109057.671875,P12,D03,1,1,1
813,0.01,1645109057.6875,P12,D03,1,1,1
814,0.16,1645109057.703125,P12,D03,1,1,1
815,0.25,1645109057.71875,P12,D03,1,1,1
816,0.25,1645109057.734375,P12,D03,1,1,1
817,0.12,1645109057.75,P12,D03,1,1,1
818,-0.15,1645109057.765625,P12,D03,1,1,1
819,-0.5,1645109057.78125,P12,D03,1,1,1
820,-0.81,1645109057.796875,P12,D03,1,1,1
821,-0.97,1645109057.8125,P12,D03,1,1,1
822,-0.92,1645109057.828125,P12,D03,1,1,1
823,-0.69,1645109057.84375,P12,D03,1,1,1
824,-0.42,1645109057.859375,P12,D03,1,1,1
825,-0.25,1645109057.875,P12,D03,1,1,1
826,-0.27,1645109057.890625,P12,D03,1,1,1
827,-0.45,1645109057.90625,P12,D03,1,1,1
828,-0.69,1645109057.921875,P12,D03,1,1,1
829,-0.87,1645109057.9375,P12,D03,1,1,1
830,-0.92,1645109057.953125,P12,D03,1,1,1
831,-0.88,1645109057.96875,P12,D03,1,1,1
832,-0.81,1645109057.984375,P12,D03,1,1,1
833,-0.78,1645109058.0,P12,D03,1,1,1
834,-0.78,1645109058.015625,P12,D03,1,1,1
835,-0.78,1645109058.03125,P12,D03,1,1,1
836,-0.74,1645109058.046875,P12,D03,1,1,1
837,-0.66,1645109058.0625,P12,D03,1,1,1
838,-0.6,1645109058.078125,P12,D03,1,1,1
839,-0.59,1645109058.09375,P12,D03,1,1,1
840,-0.61,1645109058.109375,P12,D03,1,1,1
841,-0.6,1645109058.125,P12,D03,1,1,1
842,-0.48,1645109058.140625,P12,D03,1,1,1
843,-0.23,1645109058.15625,P12,D03,1,1,1
844,0.08,1645109058.171875,P12,D03,1,1,1
845,0.36,1645109058.1875,P12,D03,1,1,1
846,0.55,1645109058.203125,P12,D03,1,1,1
847,0.63,1645109058.21875,P12,D03,1,1,1
848,0.65,1645109058.234375,P12,D03,1,1,1
849,0.64,1645109058.25,P12,D03,1,1,1
850,0.63,1645109058.265625,P12,D03,1,1,1
851,0.56,1645109058.28125,P12,D03,1,1,1
852,0.41,1645109058.296875,P12,D03,1,1,1
853,0.16,1645109058.3125,P12,D03,1,1,1
854,-0.19,1645109058.328125,P12,D03,1,1,1
855,-0.55,1645109058.34375,P12,D03,1,1,1
856,-0.87,1645109058.359375,P12,D03,1,1,1
857,-1.06,1645109058.375,P12,D03,1,1,1
858,-1.11,1645109058.390625,P12,D03,1,1,1
859,-1.04,1645109058.40625,P12,D03,1,1,1
860,-0.89,1645109058.421875,P12,D03,1,1,1
861,-0.74,1645109058.4375,P12,D03,1,1,1
862,-0.67,1645109058.453125,P12,D03,1,1,1
863,-0.69,1645109058.46875,P12,D03,1,1,1
864,-0.76,1645109058.484375,P12,D03,1,1,1
865,-0.77,1645109058.5,P12,D03,1,1,1
866,-0.6,1645109058.515625,P12,D03,1,1,1
867,-0.22,1645109058.53125,P12,D03,1,1,1
868,0.34,1645109058.546875,P12,D03,1,1,1
869,0.92,1645109058.5625,P12,D03,1,1,1
870,1.33,1645109058.578125,P12,D03,1,1,1
871,1.43,1645109058.59375,P12,D03,1,1,1
872,1.17,1645109058.609375,P12,D03,1,1,1
873,0.62,1645109058.625,P12,D03,1,1,1
874,-0.07,1645109058.640625,P12,D03,1,1,1
875,-0.69,1645109058.65625,P12,D03,1,1,1
876,-1.08,1645109058.671875,P12,D03,1,1,1
877,-1.14,1645109058.6875,P12,D03,1,1,1
878,-0.89,1645109058.703125,P12,D03,1,1,1
879,-0.46,1645109058.71875,P12,D03,1,1,1
880,-0.01,1645109058.734375,P12,D03,1,1,1
881,0.32,1645109058.75,P12,D03,1,1,1
882,0.48,1645109058.765625,P12,D03,1,1,1
883,0.51,1645109058.78125,P12,D03,1,1,1
884,0.51,1645109058.796875,P12,D03,1,1,1
885,0.56,1645109058.8125,P12,D03,1,1,1
886,0.63,1645109058.828125,P12,D03,1,1,1
887,0.66,1645109058.84375,P12,D03,1,1,1
888,0.55,1645109058.859375,P12,D03,1,1,1
889,0.3,1645109058.875,P12,D03,1,1,1
890,-0.0,1645109058.890625,P12,D03,1,1,1
891,-0.21,1645109058.90625,P12,D03,1,1,1
892,-0.22,1645109058.921875,P12,D03,1,1,1
893,-0.01,1645109058.9375,P12,D03,1,1,1
894,0.29,1645109058.953125,P12,D03,1,1,1
895,0.54,1645109058.96875,P12,D03,1,1,1
896,0.63,1645109058.984375,P12,D03,1,1,1
897,0.57,1645109059.0,P12,D03,1,1,1
898,0.46,1645109059.015625,P12,D03,1,1,1
899,0.38,1645109059.03125,P12,D03,1,1,1
900,0.39,1645109059.046875,P12,D03,1,1,1
901,0.43,1645109059.0625,P12,D03,1,1,1
902,0.43,1645109059.078125,P12,D03,1,1,1
903,0.3,1645109059.09375,P12,D03,1,1,1
904,0.05,1645109059.109375,P12,D03,1,1,1
905,-0.29,1645109059.125,P12,D03,1,1,1
906,-0.63,1645109059.140625,P12,D03,1,1,1
907,-0.91,1645109059.15625,P12,D03,1,1,1
908,-1.08,1645109059.171875,P12,D03,1,1,1
909,-1.16,1645109059.1875,P12,D03,1,1,1
910,-1.17,1645109059.203125,P12,D03,1,1,1
911,-1.14,1645109059.21875,P12,D03,1,1,1
912,-1.08,1645109059.234375,P12,D03,1,1,1
913,-0.98,1645109059.25,P12,D03,1,1,1
914,-0.86,1645109059.265625,P12,D03,1,1,1
915,-0.73,1645109059.28125,P12,D03,1,1,1
916,-0.62,1645109059.296875,P12,D03,1,1,1
917,-0.57,1645109059.3125,P12,D03,1,1,1
918,-0.55,1645109059.328125,P12,D03,1,1,1
919,-0.52,1645109059.34375,P12,D03,1,1,1
920,-0.47,1645109059.359375,P12,D03,1,1,1
921,-0.36,1645109059.375,P12,D03,1,1,1
922,-0.21,1645109059.390625,P12,D03,1,1,1
923,-0.05,1645109059.40625,P12,D03,1,1,1
924,0.09,1645109059.421875,P12,D03,1,1,1
925,0.21,1645109059.4375,P12,D03,1,1,1
926,0.31,1645109059.453125,P12,D03,1,1,1
927,0.41,1645109059.46875,P12,D03,1,1,1
928,0.51,1645109059.484375,P12,D03,1,1,1
929,0.58,1645109059.5,P12,D03,1,1,1
930,0.61,1645109059.515625,P12,D03,1,1,1
931,0.58,1645109059.53125,P12,D03,1,1,1
932,0.52,1645109059.546875,P12,D03,1,1,1
933,0.45,1645109059.5625,P12,D03,1,1,1
934,0.39,1645109059.578125,P12,D03,1,1,1
935,0.36,1645109059.59375,P12,D03,1,1,1
936,0.34,1645109059.609375,P12,D03,1,1,1
937,0.34,1645109059.625,P12,D03,1,1,1
938,0.36,1645109059.640625,P12,D03,1,1,1
939,0.43,1645109059.65625,P12,D03,1,1,1
940,0.59,1645109059.671875,P12,D03,1,1,1
941,0.85,1645109059.6875,P12,D03,1,1,1
942,1.17,1645109059.703125,P12,D03,1,1,1
943,1.46,1645109059.71875,P12,D03,1,1,1
944,1.59,1645109059.734375,P12,D03,1,1,1
945,1.47,1645109059.75,P12,D03,1,1,1
946,1.08,1645109059.765625,P12,D03,1,1,1
947,0.51,1645109059.78125,P12,D03,1,1,1
948,-0.06,1645109059.796875,P12,D03,1,1,1
949,-0.47,1645109059.8125,P12,D03,1,1,1
950,-0.66,1645109059.828125,P12,D03,1,1,1
951,-0.65,1645109059.84375,P12,D03,1,1,1
952,-0.55,1645109059.859375,P12,D03,1,1,1
953,-0.47,1645109059.875,P12,D03,1,1,1
954,-0.46,1645109059.890625,P12,D03,1,1,1
955,-0.46,1645109059.90625,P12,D03,1,1,1
956,-0.43,1645109059.921875,P12,D03,1,1,1
957,-0.35,1645109059.9375,P12,D03,1,1,1
958,-0.28,1645109059.953125,P12,D03,1,1,1
959,-0.29,1645109059.96875,P12,D03,1,1,1
960,-0.44,1645109059.984375,P12,D03,1,1,1
961,-0.66,1645109060.0,P12,D03,1,1,1
962,-0.87,1645109060.015625,P12,D03,1,1,1
963,-0.97,1645109060.03125,P12,D03,1,1,1
964,-0.97,1645109060.046875,P12,D03,1,1,1
965,-0.97,1645109060.0625,P12,D03,1,1,1
966,-1.06,1645109060.078125,P12,D03,1,1,1
967,-1.26,1645109060.09375,P12,D03,1,1,1
968,-1.5,1645109060.109375,P12,D03,1,1,1
969,-1.59,1645109060.125,P12,D03,1,1,1
970,-1.41,1645109060.140625,P12,D03,1,1,1
971,-0.93,1645109060.15625,P12,D03,1,1,1
972,-0.28,1645109060.171875,P12,D03,1,1,1
973,0.32,1645109060.1875,P12,D03,1,1,1
974,0.68,1645109060.203125,P12,D03,1,1,1
975,0.77,1645109060.21875,P12,D03,1,1,1
976,0.64,1645109060.234375,P12,D03,1,1,1
977,0.42,1645109060.25,P12,D03,1,1,1
978,0.2,1645109060.265625,P12,D03,1,1,1
979,-0.01,1645109060.28125,P12,D03,1,1,1
980,-0.21,1645109060.296875,P12,D03,1,1,1
981,-0.43,1645109060.3125,P12,D03,1,1,1
982,-0.6,1645109060.328125,P12,D03,1,1,1
983,-0.67,1645109060.34375,P12,D03,1,1,1
984,-0.56,1645109060.359375,P12,D03,1,1,1
985,-0.27,1645109060.375,P12,D03,1,1,1
986,0.11,1645109060.390625,P12,D03,1,1,1
987,0.5,1645109060.40625,P12,D03,1,1,1
988,0.82,1645109060.421875,P12,D03,1,1,1
989,1.03,1645109060.4375,P12,D03,1,1,1
990,1.17,1645109060.453125,P12,D03,1,1,1
991,1.27,1645109060.46875,P12,D03,1,1,1
992,1.37,1645109060.484375,P12,D03,1,1,1
993,1.49,1645109060.5,P12,D03,1,1,1
994,1.61,1645109060.515625,P12,D03,1,1,1
995,1.71,1645109060.53125,P12,D03,1,1,1
996,1.74,1645109060.546875,P12,D03,1,1,1
997,1.63,1645109060.5625,P12,D03,1,1,1
998,1.34,1645109060.578125,P12,D03,1,1,1
999,0.88,1645109060.59375,P12,D03,1,1,1
1000,0.33,1645109060.609375,P12,D03,1,1,1
1001,-0.19,1645109060.625,P12,D03,1,1,1
1002,-0.57,1645109060.640625,P12,D03,1,1,1
1003,-0.76,1645109060.65625,P12,D03,1,1,1
1004,-0.76,1645109060.671875,P12,D03,1,1,1
1005,-0.63,1645109060.6875,P12,D03,1,1,1
1006,-0.46,1645109060.703125,P12,D03,1,1,1
1007,-0.31,1645109060.71875,P12,D03,1,1,1
1008,-0.22,1645109060.734375,P12,D03,1,1,1
1009,-0.21,1645109060.75,P12,D03,1,1,1
1010,-0.29,1645109060.765625,P12,D03,1,1,1
1011,-0.44,1645109060.78125,P12,D03,1,1,1
1012,-0.61,1645109060.796875,P12,D03,1,1,1
1013,-0.73,1645109060.8125,P12,D03,1,1,1
1014,-0.75,1645109060.828125,P12,D03,1,1,1
1015,-0.69,1645109060.84375,P12,D03,1,1,1
1016,-0.6,1645109060.859375,P12,D03,1,1,1
1017,-0.53,1645109060.875,P12,D03,1,1,1
1018,-0.52,1645109060.890625,P12,D03,1,1,1
1019,-0.51,1645109060.90625,P12,D03,1,1,1
1020,-0.44,1645109060.921875,P12,D03,1,1,1
1021,-0.26,1645109060.9375,P12,D03,1,1,1
1022,-0.0,1645109060.953125,P12,D03,1,1,1
1023,0.25,1645109060.96875,P12,D03,1,1,1
1024,0.42,1645109060.984375,P12,D03,1,1,1
1025,0.49,1645109061.0,P12,D03,1,1,1
1026,0.54,1645109061.015625,P12,D03,1,1,1
1027,0.63,1645109061.03125,P12,D03,1,1,1
1028,0.78,1645109061.046875,P12,D03,1,1,1
1029,0.91,1645109061.0625,P12,D03,1,1,1
1030,0.89,1645109061.078125,P12,D03,1,1,1
1031,0.64,1645109061.09375,P12,D03,1,1,1
1032,0.24,1645109061.109375,P12,D03,1,1,1
1033,-0.15,1645109061.125,P12,D03,1,1,1
1034,-0.32,1645109061.140625,P12,D03,1,1,1
1035,-0.16,1645109061.15625,P12,D03,1,1,1
1036,0.24,1645109061.171875,P12,D03,1,1,1
1037,0.69,1645109061.1875,P12,D03,1,1,1
1038,0.97,1645109061.203125,P12,D03,1,1,1
1039,0.96,1645109061.21875,P12,D03,1,1,1
1040,0.72,1645109061.234375,P12,D03,1,1,1
1041,0.38,1645109061.25,P12,D03,1,1,1
1042,0.09,1645109061.265625,P12,D03,1,1,1
1043,-0.09,1645109061.28125,P12,D03,1,1,1
1044,-0.17,1645109061.296875,P12,D03,1,1,1
1045,-0.23,1645109061.3125,P12,D03,1,1,1
1046,-0.29,1645109061.328125,P12,D03,1,1,1
1047,-0.35,1645109061.34375,P12,D03,1,1,1
1048,-0.39,1645109061.359375,P12,D03,1,1,1
1049,-0.39,1645109061.375,P12,D03,1,1,1
1050,-0.38,1645109061.390625,P12,D03,1,1,1
1051,-0.41,1645109061.40625,P12,D03,1,1,1
1052,-0.52,1645109061.421875,P12,D03,1,1,1
1053,-0.68,1645109061.4375,P12,D03,1,1,1
1054,-0.84,1645109061.453125,P12,D03,1,1,1
1055,-0.92,1645109061.46875,P12,D03,1,1,1
1056,-0.89,1645109061.484375,P12,D03,1,1,1
1057,-0.74,1645109061.5,P12,D03,1,1,1
1058,-0.49,1645109061.515625,P12,D03,1,1,1
1059,-0.19,1645109061.53125,P12,D03,1,1,1
1060,0.12,1645109061.546875,P12,D03,1,1,1
1061,0.39,1645109061.5625,P12,D03,1,1,1
1062,0.55,1645109061.578125,P12,D03,1,1,1
1063,0.55,1645109061.59375,P12,D03,1,1,1
1064,0.39,1645109061.609375,P12,D03,1,1,1
1065,0.14,1645109061.625,P12,D03,1,1,1
1066,-0.09,1645109061.640625,P12,D03,1,1,1
1067,-0.19,1645109061.65625,P12,D03,1,1,1
1068,-0.14,1645109061.671875,P12,D03,1,1,1
1069,0.0,1645109061.6875,P12,D03,1,1,1
1070,0.12,1645109061.703125,P12,D03,1,1,1
1071,0.12,1645109061.71875,P12,D03,1,1,1
1072,-0.03,1645109061.734375,P12,D03,1,1,1
1073,-0.26,1645109061.75,P12,D03,1,1,1
1074,-0.46,1645109061.765625,P12,D03,1,1,1
1075,-0.58,1645109061.78125,P12,D03,1,1,1
1076,-0.58,1645109061.796875,P12,D03,1,1,1
1077,-0.51,1645109061.8125,P12,D03,1,1,1
1078,-0.43,1645109061.828125,P12,D03,1,1,1
1079,-0.36,1645109061.84375,P12,D03,1,1,1
1080,-0.28,1645109061.859375,P12,D03,1,1,1
1081,-0.18,1645109061.875,P12,D03,1,1,1
1082,-0.02,1645109061.890625,P12,D03,1,1,1
1083,0.15,1645109061.90625,P12,D03,1,1,1
1084,0.26,1645109061.921875,P12,D03,1,1,1
1085,0.25,1645109061.9375,P12,D03,1,1,1
1086,0.1,1645109061.953125,P12,D03,1,1,1
1087,-0.12,1645109061.96875,P12,D03,1,1,1
1088,-0.3,1645109061.984375,P12,D03,1,1,1
1089,-0.33,1645109062.0,P12,D03,1,1,1
1090,-0.15,1645109062.015625,P12,D03,1,1,1
1091,0.17,1645109062.03125,P12,D03,1,1,1
1092,0.53,1645109062.046875,P12,D03,1,1,1
1093,0.8,1645109062.0625,P12,D03,1,1,1
1094,0.9,1645109062.078125,P12,D03,1,1,1
1095,0.84,1645109062.09375,P12,D03,1,1,1
1096,0.64,1645109062.109375,P12,D03,1,1,1
1097,0.37,1645109062.125,P12,D03,1,1,1
1098,0.09,1645109062.140625,P12,D03,1,1,1
1099,-0.16,1645109062.15625,P12,D03,1,1,1
1100,-0.33,1645109062.171875,P12,D03,1,1,1
1101,-0.39,1645109062.1875,P12,D03,1,1,1
1102,-0.32,1645109062.203125,P12,D03,1,1,1
1103,-0.17,1645109062.21875,P12,D03,1,1,1
1104,0.02,1645109062.234375,P12,D03,1,1,1
1105,0.16,1645109062.25,P12,D03,1,1,1
1106,0.23,1645109062.265625,P12,D03,1,1,1
1107,0.21,1645109062.28125,P12,D03,1,1,1
1108,0.15,1645109062.296875,P12,D03,1,1,1
1109,0.08,1645109062.3125,P12,D03,1,1,1
1110,0.07,1645109062.328125,P12,D03,1,1,1
1111,0.12,1645109062.34375,P12,D03,1,1,1
1112,0.26,1645109062.359375,P12,D03,1,1,1
1113,0.46,1645109062.375,P12,D03,1,1,1
1114,0.68,1645109062.390625,P12,D03,1,1,1
1115,0.88,1645109062.40625,P12,D03,1,1,1
1116,0.96,1645109062.421875,P12,D03,1,1,1
1117,0.86,1645109062.4375,P12,D03,1,1,1
1118,0.57,1645109062.453125,P12,D03,1,1,1
1119,0.15,1645109062.46875,P12,D03,1,1,1
1120,-0.29,1645109062.484375,P12,D03,1,1,1
1121,-0.61,1645109062.5,P12,D03,1,1,1
1122,-0.73,1645109062.515625,P12,D03,1,1,1
1123,-0.67,1645109062.53125,P12,D03,1,1,1
1124,-0.5,1645109062.546875,P12,D03,1,1,1
1125,-0.35,1645109062.5625,P12,D03,1,1,1
1126,-0.29,1645109062.578125,P12,D03,1,1,1
1127,-0.3,1645109062.59375,P12,D03,1,1,1
1128,-0.34,1645109062.609375,P12,D03,1,1,1
1129,-0.34,1645109062.625,P12,D03,1,1,1
1130,-0.28,1645109062.640625,P12,D03,1,1,1
1131,-0.19,1645109062.65625,P12,D03,1,1,1
1132,-0.07,1645109062.671875,P12,D03,1,1,1
1133,0.05,1645109062.6875,P12,D03,1,1,1
1134,0.2,1645109062.703125,P12,D03,1,1,1
1135,0.35,1645109062.71875,P12,D03,1,1,1
1136,0.47,1645109062.734375,P12,D03,1,1,1
1137,0.47,1645109062.75,P12,D03,1,1,1
1138,0.32,1645109062.765625,P12,D03,1,1,1
1139,0.02,1645109062.78125,P12,D03,1,1,1
1140,-0.31,1645109062.796875,P12,D03,1,1,1
1141,-0.54,1645109062.8125,P12,D03,1,1,1
1142,-0.53,1645109062.828125,P12,D03,1,1,1
1143,-0.26,1645109062.84375,P12,D03,1,1,1
1144,0.21,1645109062.859375,P12,D03,1,1,1
1145,0.73,1645109062.875,P12,D03,1,1,1
1146,1.15,1645109062.890625,P12,D03,1,1,1
1147,1.35,1645109062.90625,P12,D03,1,1,1
1148,1.33,1645109062.921875,P12,D03,1,1,1
1149,1.12,1645109062.9375,P12,D03,1,1,1
1150,0.85,1645109062.953125,P12,D03,1,1,1
1151,0.59,1645109062.96875,P12,D03,1,1,1
1152,0.38,1645109062.984375,P12,D03,1,1,1
1153,0.21,1645109063.0,P12,D03,1,1,1
1154,0.03,1645109063.015625,P12,D03,1,1,1
1155,-0.17,1645109063.03125,P12,D03,1,1,1
1156,-0.36,1645109063.046875,P12,D03,1,1,1
1157,-0.48,1645109063.0625,P12,D03,1,1,1
1158,-0.5,1645109063.078125,P12,D03,1,1,1
1159,-0.42,1645109063.09375,P12,D03,1,1,1
1160,-0.32,1645109063.109375,P12,D03,1,1,1
1161,-0.3,1645109063.125,P12,D03,1,1,1
1162,-0.43,1645109063.140625,P12,D03,1,1,1
1163,-0.73,1645109063.15625,P12,D03,1,1,1
1164,-1.11,1645109063.171875,P12,D03,1,1,1
1165,-1.45,1645109063.1875,P12,D03,1,1,1
1166,-1.65,1645109063.203125,P12,D03,1,1,1
1167,-1.66,1645109063.21875,P12,D03,1,1,1
1168,-1.49,1645109063.234375,P12,D03,1,1,1
1169,-1.26,1645109063.25,P12,D03,1,1,1
1170,-1.04,1645109063.265625,P12,D03,1,1,1
1171,-0.89,1645109063.28125,P12,D03,1,1,1
1172,-0.82,1645109063.296875,P12,D03,1,1,1
1173,-0.74,1645109063.3125,P12,D03,1,1,1
1174,-0.61,1645109063.328125,P12,D03,1,1,1
1175,-0.35,1645109063.34375,P12,D03,1,1,1
1176,-0.0,1645109063.359375,P12,D03,1,1,1
1177,0.4,1645109063.375,P12,D03,1,1,1
1178,0.79,1645109063.390625,P12,D03,1,1,1
1179,1.11,1645109063.40625,P12,D03,1,1,1
1180,1.3,1645109063.421875,P12,D03,1,1,1
1181,1.33,1645109063.4375,P12,D03,1,1,1
1182,1.19,1645109063.453125,P12,D03,1,1,1
1183,0.92,1645109063.46875,P12,D03,1,1,1
1184,0.62,1645109063.484375,P12,D03,1,1,1
1185,0.39,1645109063.5,P12,D03,1,1,1
1186,0.31,1645109063.515625,P12,D03,1,1,1
1187,0.38,1645109063.53125,P12,D03,1,1,1
1188,0.51,1645109063.546875,P12,D03,1,1,1
1189,0.61,1645109063.5625,P12,D03,1,1,1
1190,0.58,1645109063.578125,P12,D03,1,1,1
1191,0.41,1645109063.59375,P12,D03,1,1,1
1192,0.15,1645109063.609375,P12,D03,1,1,1
1193,-0.1,1645109063.625,P12,D03,1,1,1
1194,-0.29,1645109063.640625,P12,D03,1,1,1
1195,-0.4,1645109063.65625,P12,D03,1,1,1
1196,-0.45,1645109063.671875,P12,D03,1,1,1
1197,-0.47,1645109063.6875,P12,D03,1,1,1
1198,-0.47,1645109063.703125,P12,D03,1,1,1
1199,-0.47,1645109063.71875,P12,D03,1,1,1
1200,-0.45,1645109063.734375,P12,D03,1,1,1
1201,-0.43,1645109063.75,P12,D03,1,1,1
1202,-0.41,1645109063.765625,P12,D03,1,1,1
1203,-0.39,1645109063.78125,P12,D03,1,1,1
1204,-0.36,1645109063.796875,P12,D03,1,1,1
1205,-0.28,1645109063.8125,P12,D03,1,1,1
1206,-0.12,1645109063.828125,P12,D03,1,1,1
1207,0.14,1645109063.84375,P12,D03,1,1,1
1208,0.45,1645109063.859375,P12,D03,1,1,1
1209,0.73,1645109063.875,P12,D03,1,1,1
1210,0.92,1645109063.890625,P12,D03,1,1,1
1211,0.96,1645109063.90625,P12,D03,1,1,1
1212,0.87,1645109063.921875,P12,D03,1,1,1
1213,0.68,1645109063.9375,P12,D03,1,1,1
1214,0.5,1645109063.953125,P12,D03,1,1,1
1215,0.39,1645109063.96875,P12,D03,1,1,1
1216,0.41,1645109063.984375,P12,D03,1,1,1
1217,0.54,1645109064.0,P12,D03,1,1,1
1218,0.73,1645109064.015625,P12,D03,1,1,1
1219,0.87,1645109064.03125,P12,D03,1,1,1
1220,0.88,1645109064.046875,P12,D03,1,1,1
1221,0.75,1645109064.0625,P12,D03,1,1,1
1222,0.51,1645109064.078125,P12,D03,1,1,1
1223,0.25,1645109064.09375,P12,D03,1,1,1
1224,0.06,1645109064.109375,P12,D03,1,1,1
1225,-0.02,1645109064.125,P12,D03,1,1,1
1226,-0.02,1645109064.140625,P12,D03,1,1,1
1227,-0.01,1645109064.15625,P12,D03,1,1,1
1228,-0.07,1645109064.171875,P12,D03,1,1,1
1229,-0.23,1645109064.1875,P12,D03,1,1,1
1230,-0.49,1645109064.203125,P12,D03,1,1,1
1231,-0.74,1645109064.21875,P12,D03,1,1,1
1232,-0.92,1645109064.234375,P12,D03,1,1,1
1233,-0.98,1645109064.25,P12,D03,1,1,1
1234,-0.93,1645109064.265625,P12,D03,1,1,1
1235,-0.82,1645109064.28125,P12,D03,1,1,1
1236,-0.7,1645109064.296875,P12,D03,1,1,1
1237,-0.6,1645109064.3125,P12,D03,1,1,1
1238,-0.51,1645109064.328125,P12,D03,1,1,1
1239,-0.4,1645109064.34375,P12,D03,1,1,1
1240,-0.27,1645109064.359375,P12,D03,1,1,1
1241,-0.1,1645109064.375,P12,D03,1,1,1
1242,0.06,1645109064.390625,P12,D03,1,1,1
1243,0.15,1645109064.40625,P12,D03,1,1,1
1244,0.14,1645109064.421875,P12,D03,1,1,1
1245,0.05,1645109064.4375,P12,D03,1,1,1
1246,-0.04,1645109064.453125,P12,D03,1,1,1
1247,-0.09,1645109064.46875,P12,D03,1,1,1
1248,-0.07,1645109064.484375,P12,D03,1,1,1
1249,-0.02,1645109064.5,P12,D03,1,1,1
1250,-0.04,1645109064.515625,P12,D03,1,1,1
1251,-0.19,1645109064.53125,P12,D03,1,1,1
1252,-0.48,1645109064.546875,P12,D03,1,1,1
1253,-0.82,1645109064.5625,P12,D03,1,1,1
1254,-1.09,1645109064.578125,P12,D03,1,1,1
1255,-1.17,1645109064.59375,P12,D03,1,1,1
1256,-1.02,1645109064.609375,P12,D03,1,1,1
1257,-0.68,1645109064.625,P12,D03,1,1,1
1258,-0.24,1645109064.640625,P12,D03,1,1,1
1259,0.16,1645109064.65625,P12,D03,1,1,1
1260,0.41,1645109064.671875,P12,D03,1,1,1
1261,0.47,1645109064.6875,P12,D03,1,1,1
1262,0.34,1645109064.703125,P12,D03,1,1,1
1263,0.11,1645109064.71875,P12,D03,1,1,1
1264,-0.12,1645109064.734375,P12,D03,1,1,1
1265,-0.26,1645109064.75,P12,D03,1,1,1
1266,-0.28,1645109064.765625,P12,D03,1,1,1
1267,-0.19,1645109064.78125,P12,D03,1,1,1
1268,-0.03,1645109064.796875,P12,D03,1,1,1
1269,0.1,1645109064.8125,P12,D03,1,1,1
1270,0.16,1645109064.828125,P12,D03,1,1,1
1271,0.13,1645109064.84375,P12,D03,1,1,1
1272,0.01,1645109064.859375,P12,D03,1,1,1
1273,-0.15,1645109064.875,P12,D03,1,1,1
1274,-0.28,1645109064.890625,P12,D03,1,1,1
1275,-0.34,1645109064.90625,P12,D03,1,1,1
1276,-0.29,1645109064.921875,P12,D03,1,1,1
1277,-0.13,1645109064.9375,P12,D03,1,1,1
1278,0.09,1645109064.953125,P12,D03,1,1,1
1279,0.32,1645109064.96875,P12,D03,1,1,1
1280,0.48,1645109064.984375,P12,D03,1,1,1
1281,0.53,1645109065.0,P12,D03,1,1,1
1282,0.46,1645109065.015625,P12,D03,1,1,1
1283,0.29,1645109065.03125,P12,D03,1,1,1
1284,0.08,1645109065.046875,P12,D03,1,1,1
1285,-0.13,1645109065.0625,P12,D03,1,1,1
1286,-0.28,1645109065.078125,P12,D03,1,1,1
1287,-0.35,1645109065.09375,P12,D03,1,1,1
1288,-0.3,1645109065.109375,P12,D03,1,1,1
1289,-0.16,1645109065.125,P12,D03,1,1,1
1290,0.07,1645109065.140625,P12,D03,1,1,1
1291,0.35,1645109065.15625,P12,D03,1,1,1
1292,0.64,1645109065.171875,P12,D03,1,1,1
1293,0.91,1645109065.1875,P12,D03,1,1,1
1294,1.1,1645109065.203125,P12,D03,1,1,1
1295,1.18,1645109065.21875,P12,D03,1,1,1
1296,1.14,1645109065.234375,P12,D03,1,1,1
1297,0.98,1645109065.25,P12,D03,1,1,1
1298,0.76,1645109065.265625,P12,D03,1,1,1
1299,0.54,1645109065.28125,P12,D03,1,1,1
1300,0.39,1645109065.296875,P12,D03,1,1,1
1301,0.35,1645109065.3125,P12,D03,1,1,1
1302,0.42,1645109065.328125,P12,D03,1,1,1
1303,0.55,1645109065.34375,P12,D03,1,1,1
1304,0.67,1645109065.359375,P12,D03,1,1,1
1305,0.71,1645109065.375,P12,D03,1,1,1
1306,0.67,1645109065.390625,P12,D03,1,1,1
1307,0.55,1645109065.40625,P12,D03,1,1,1
1308,0.43,1645109065.421875,P12,D03,1,1,1
1309,0.37,1645109065.4375,P12,D03,1,1,1
1310,0.37,1645109065.453125,P12,D03,1,1,1
1311,0.43,1645109065.46875,P12,D03,1,1,1
1312,0.48,1645109065.484375,P12,D03,1,1,1
1313,0.44,1645109065.5,P12,D03,1,1,1
1314,0.26,1645109065.515625,P12,D03,1,1,1
1315,-0.08,1645109065.53125,P12,D03,1,1,1
1316,-0.53,1645109065.546875,P12,D03,1,1,1
1317,-0.98,1645109065.5625,P12,D03,1,1,1
1318,-1.3,1645109065.578125,P12,D03,1,1,1
1319,-1.4,1645109065.59375,P12,D03,1,1,1
1320,-1.29,1645109065.609375,P12,D03,1,1,1
1321,-1.02,1645109065.625,P12,D03,1,1,1
1322,-0.7,1645109065.640625,P12,D03,1,1,1
1323,-0.43,1645109065.65625,P12,D03,1,1,1
1324,-0.27,1645109065.671875,P12,D03,1,1,1
1325,-0.23,1645109065.6875,P12,D03,1,1,1
1326,-0.26,1645109065.703125,P12,D03,1,1,1
1327,-0.32,1645109065.71875,P12,D03,1,1,1
1328,-0.38,1645109065.734375,P12,D03,1,1,1
1329,-0.42,1645109065.75,P12,D03,1,1,1
1330,-0.4,1645109065.765625,P12,D03,1,1,1
1331,-0.32,1645109065.78125,P12,D03,1,1,1
1332,-0.18,1645109065.796875,P12,D03,1,1,1
1333,-0.01,1645109065.8125,P12,D03,1,1,1
1334,0.1,1645109065.828125,P12,D03,1,1,1
1335,0.12,1645109065.84375,P12,D03,1,1,1
1336,0.03,1645109065.859375,P12,D03,1,1,1
1337,-0.1,1645109065.875,P12,D03,1,1,1
1338,-0.16,1645109065.890625,P12,D03,1,1,1
1339,-0.12,1645109065.90625,P12,D03,1,1,1
1340,0.01,1645109065.921875,P12,D03,1,1,1
1341,0.16,1645109065.9375,P12,D03,1,1,1
1342,0.27,1645109065.953125,P12,D03,1,1,1
1343,0.32,1645109065.96875,P12,D03,1,1,1
1344,0.34,1645109065.984375,P12,D03,1,1,1
1345,0.35,1645109066.0,P12,D03,1,1,1
1346,0.36,1645109066.015625,P12,D03,1,1,1
1347,0.31,1645109066.03125,P12,D03,1,1,1
1348,0.17,1645109066.046875,P12,D03,1,1,1
1349,-0.06,1645109066.0625,P12,D03,1,1,1
1350,-0.32,1645109066.078125,P12,D03,1,1,1
1351,-0.51,1645109066.09375,P12,D03,1,1,1
1352,-0.54,1645109066.109375,P12,D03,1,1,1
1353,-0.41,1645109066.125,P12,D03,1,1,1
1354,-0.17,1645109066.140625,P12,D03,1,1,1
1355,0.07,1645109066.15625,P12,D03,1,1,1
1356,0.22,1645109066.171875,P12,D03,1,1,1
1357,0.24,1645109066.1875,P12,D03,1,1,1
1358,0.14,1645109066.203125,P12,D03,1,1,1
1359,-0.0,1645109066.21875,P12,D03,1,1,1
1360,-0.11,1645109066.234375,P12,D03,1,1,1
1361,-0.09,1645109066.25,P12,D03,1,1,1
1362,0.08,1645109066.265625,P12,D03,1,1,1
1363,0.36,1645109066.28125,P12,D03,1,1,1
1364,0.65,1645109066.296875,P12,D03,1,1,1
1365,0.83,1645109066.3125,P12,D03,1,1,1
1366,0.82,1645109066.328125,P12,D03,1,1,1
1367,0.61,1645109066.34375,P12,D03,1,1,1
1368,0.3,1645109066.359375,P12,D03,1,1,1
1369,0.03,1645109066.375,P12,D03,1,1,1
1370,-0.11,1645109066.390625,P12,D03,1,1,1
1371,-0.08,1645109066.40625,P12,D03,1,1,1
1372,0.1,1645109066.421875,P12,D03,1,1,1
1373,0.35,1645109066.4375,P12,D03,1,1,1
1374,0.59,1645109066.453125,P12,D03,1,1,1
1375,0.78,1645109066.46875,P12,D03,1,1,1
1376,0.88,1645109066.484375,P12,D03,1,1,1
1377,0.91,1645109066.5,P12,D03,1,1,1
1378,0.85,1645109066.515625,P12,D03,1,1,1
1379,0.71,1645109066.53125,P12,D03,1,1,1
1380,0.49,1645109066.546875,P12,D03,1,1,1
1381,0.22,1645109066.5625,P12,D03,1,1,1
1382,-0.06,1645109066.578125,P12,D03,1,1,1
1383,-0.3,1645109066.59375,P12,D03,1,1,1
1384,-0.46,1645109066.609375,P12,D03,1,1,1
1385,-0.53,1645109066.625,P12,D03,1,1,1
1386,-0.53,1645109066.640625,P12,D03,1,1,1
1387,-0.52,1645109066.65625,P12,D03,1,1,1
1388,-0.55,1645109066.671875,P12,D03,1,1,1
1389,-0.65,1645109066.6875,P12,D03,1,1,1
1390,-0.82,1645109066.703125,P12,D03,1,1,1
1391,-1.03,1645109066.71875,P12,D03,1,1,1
1392,-1.25,1645109066.734375,P12,D03,1,1,1
1393,-1.45,1645109066.75,P12,D03,1,1,1
1394,-1.6,1645109066.765625,P12,D03,1,1,1
1395,-1.66,1645109066.78125,P12,D03,1,1,1
1396,-1.56,1645109066.796875,P12,D03,1,1,1
1397,-1.28,1645109066.8125,P12,D03,1,1,1
1398,-0.83,1645109066.828125,P12,D03,1,1,1
1399,-0.31,1645109066.84375,P12,D03,1,1,1
1400,0.16,1645109066.859375,P12,D03,1,1,1
1401,0.44,1645109066.875,P12,D03,1,1,1
1402,0.48,1645109066.890625,P12,D03,1,1,1
1403,0.34,1645109066.90625,P12,D03,1,1,1
1404,0.12,1645109066.921875,P12,D03,1,1,1
1405,-0.05,1645109066.9375,P12,D03,1,1,1
1406,-0.08,1645109066.953125,P12,D03,1,1,1
1407,0.03,1645109066.96875,P12,D03,1,1,1
1408,0.23,1645109066.984375,P12,D03,1,1,1
1409,0.41,1645109067.0,P12,D03,1,1,1
1410,0.52,1645109067.015625,P12,D03,1,1,1
1411,0.54,1645109067.03125,P12,D03,1,1,1
1412,0.49,1645109067.046875,P12,D03,1,1,1
1413,0.37,1645109067.0625,P12,D03,1,1,1
1414,0.21,1645109067.078125,P12,D03,1,1,1
1415,0.03,1645109067.09375,P12,D03,1,1,1
1416,-0.17,1645109067.109375,P12,D03,1,1,1
1417,-0.36,1645109067.125,P12,D03,1,1,1
1418,-0.49,1645109067.140625,P12,D03,1,1,1
1419,-0.51,1645109067.15625,P12,D03,1,1,1
1420,-0.39,1645109067.171875,P12,D03,1,1,1
1421,-0.13,1645109067.1875,P12,D03,1,1,1
1422,0.19,1645109067.203125,P12,D03,1,1,1
1423,0.45,1645109067.21875,P12,D03,1,1,1
1424,0.55,1645109067.234375,P12,D03,1,1,1
1425,0.45,1645109067.25,P12,D03,1,1,1
1426,0.2,1645109067.265625,P12,D03,1,1,1
1427,-0.07,1645109067.28125,P12,D03,1,1,1
1428,-0.2,1645109067.296875,P12,D03,1,1,1
1429,-0.09,1645109067.3125,P12,D03,1,1,1
1430,0.23,1645109067.328125,P12,D03,1,1,1
1431,0.67,1645109067.34375,P12,D03,1,1,1
1432,1.03,1645109067.359375,P12,D03,1,1,1
1433,1.19,1645109067.375,P12,D03,1,1,1
1434,1.09,1645109067.390625,P12,D03,1,1,1
1435,0.76,1645109067.40625,P12,D03,1,1,1
1436,0.3,1645109067.421875,P12,D03,1,1,1
1437,-0.18,1645109067.4375,P12,D03,1,1,1
1438,-0.6,1645109067.453125,P12,D03,1,1,1
1439,-0.88,1645109067.46875,P12,D03,1,1,1
1440,-1.02,1645109067.484375,P12,D03,1,1,1
1441,-1.0,1645109067.5,P12,D03,1,1,1
1442,-0.84,1645109067.515625,P12,D03,1,1,1
1443,-0.57,1645109067.53125,P12,D03,1,1,1
1444,-0.22,1645109067.546875,P12,D03,1,1,1
1445,0.15,1645109067.5625,P12,D03,1,1,1
1446,0.47,1645109067.578125,P12,D03,1,1,1
1447,0.7,1645109067.59375,P12,D03,1,1,1
1448,0.81,1645109067.609375,P12,D03,1,1,1
1449,0.81,1645109067.625,P12,D03,1,1,1
1450,0.74,1645109067.640625,P12,D03,1,1,1
1451,0.65,1645109067.65625,P12,D03,1,1,1
1452,0.59,1645109067.671875,P12,D03,1,1,1
1453,0.56,1645109067.6875,P12,D03,1,1,1
1454,0.57,1645109067.703125,P12,D03,1,1,1
1455,0.59,1645109067.71875,P12,D03,1,1,1
1456,0.59,1645109067.734375,P12,D03,1,1,1
1457,0.56,1645109067.75,P12,D03,1,1,1
1458,0.5,1645109067.765625,P12,D03,1,1,1
1459,0.43,1645109067.78125,P12,D03,1,1,1
1460,0.38,1645109067.796875,P12,D03,1,1,1
1461,0.35,1645109067.8125,P12,D03,1,1,1
1462,0.34,1645109067.828125,P12,D03,1,1,1
1463,0.32,1645109067.84375,P12,D03,1,1,1
1464,0.29,1645109067.859375,P12,D03,1,1,1
1465,0.24,1645109067.875,P12,D03,1,1,1
1466,0.17,1645109067.890625,P12,D03,1,1,1
1467,0.09,1645109067.90625,P12,D03,1,1,1
1468,-0.0,1645109067.921875,P12,D03,1,1,1
1469,-0.11,1645109067.9375,P12,D03,1,1,1
1470,-0.25,1645109067.953125,P12,D03,1,1,1
1471,-0.44,1645109067.96875,P12,D03,1,1,1
1472,-0.64,1645109067.984375,P12,D03,1,1,1
1473,-0.79,1645109068.0,P12,D03,1,1,1
1474,-0.82,1645109068.015625,P12,D03,1,1,1
1475,-0.7,1645109068.03125,P12,D03,1,1,1
1476,-0.46,1645109068.046875,P12,D03,1,1,1
1477,-0.17,1645109068.0625,P12,D03,1,1,1
1478,0.06,1645109068.078125,P12,D03,1,1,1
1479,0.17,1645109068.09375,P12,D03,1,1,1
1480,0.15,1645109068.109375,P12,D03,1,1,1
1481,0.04,1645109068.125,P12,D03,1,1,1
1482,-0.08,1645109068.140625,P12,D03,1,1,1
1483,-0.16,1645109068.15625,P12,D03,1,1,1
1484,-0.18,1645109068.171875,P12,D03,1,1,1
1485,-0.17,1645109068.1875,P12,D03,1,1,1
1486,-0.14,1645109068.203125,P12,D03,1,1,1
1487,-0.14,1645109068.21875,P12,D03,1,1,1
1488,-0.16,1645109068.234375,P12,D03,1,1,1
1489,-0.2,1645109068.25,P12,D03,1,1,1
1490,-0.26,1645109068.265625,P12,D03,1,1,1
1491,-0.34,1645109068.28125,P12,D03,1,1,1
1492,-0.46,1645109068.296875,P12,D03,1,1,1
1493,-0.62,1645109068.3125,P12,D03,1,1,1
1494,-0.8,1645109068.328125,P12,D03,1,1,1
1495,-0.92,1645109068.34375,P12,D03,1,1,1
1496,-0.93,1645109068.359375,P12,D03,1,1,1
1497,-0.82,1645109068.375,P12,D03,1,1,1
1498,-0.61,1645109068.390625,P12,D03,1,1,1
1499,-0.39,1645109068.40625,P12,D03,1,1,1
1500,-0.21,1645109068.421875,P12,D03,1,1,1
1501,-0.1,1645109068.4375,P12,D03,1,1,1
1502,-0.02,1645109068.453125,P12,D03,1,1,1
1503,0.05,1645109068.46875,P12,D03,1,1,1
1504,0.15,1645109068.484375,P12,D03,1,1,1
1505,0.24,1645109068.5,P12,D03,1,1,1
1506,0.29,1645109068.515625,P12,D03,1,1,1
1507,0.28,1645109068.53125,P12,D03,1,1,1
1508,0.23,1645109068.546875,P12,D03,1,1,1
1509,0.18,1645109068.5625,P12,D03,1,1,1
1510,0.17,1645109068.578125,P12,D03,1,1,1
1511,0.22,1645109068.59375,P12,D03,1,1,1
1512,0.27,1645109068.609375,P12,D03,1,1,1
1513,0.27,1645109068.625,P12,D03,1,1,1
1514,0.15,1645109068.640625,P12,D03,1,1,1
1515,-0.07,1645109068.65625,P12,D03,1,1,1
1516,-0.33,1645109068.671875,P12,D03,1,1,1
1517,-0.56,1645109068.6875,P12,D03,1,1,1
1518,-0.68,1645109068.703125,P12,D03,1,1,1
1519,-0.68,1645109068.71875,P12,D03,1,1,1
1520,-0.58,1645109068.734375,P12,D03,1,1,1
1521,-0.46,1645109068.75,P12,D03,1,1,1
1522,-0.34,1645109068.765625,P12,D03,1,1,1
1523,-0.24,1645109068.78125,P12,D03,1,1,1
1524,-0.11,1645109068.796875,P12,D03,1,1,1
1525,0.08,1645109068.8125,P12,D03,1,1,1
1526,0.34,1645109068.828125,P12,D03,1,1,1
1527,0.59,1645109068.84375,P12,D03,1,1,1
1528,0.77,1645109068.859375,P12,D03,1,1,1
1529,0.82,1645109068.875,P12,D03,1,1,1
1530,0.76,1645109068.890625,P12,D03,1,1,1
1531,0.64,1645109068.90625,P12,D03,1,1,1
1532,0.53,1645109068.921875,P12,D03,1,1,1
1533,0.44,1645109068.9375,P12,D03,1,1,1
1534,0.39,1645109068.953125,P12,D03,1,1,1
1535,0.34,1645109068.96875,P12,D03,1,1,1
1536,0.28,1645109068.984375,P12,D03,1,1,1
1537,0.25,1645109069.0,P12,D03,1,1,1
1538,0.32,1645109069.015625,P12,D03,1,1,1
1539,0.5,1645109069.03125,P12,D03,1,1,1
1540,0.79,1645109069.046875,P12,D03,1,1,1
1541,1.05,1645109069.0625,P12,D03,1,1,1
1542,1.19,1645109069.078125,P12,D03,1,1,1
1543,1.12,1645109069.09375,P12,D03,1,1,1
1544,0.87,1645109069.109375,P12,D03,1,1,1
1545,0.51,1645109069.125,P12,D03,1,1,1
1546,0.18,1645109069.140625,P12,D03,1,1,1
1547,-0.04,1645109069.15625,P12,D03,1,1,1
1548,-0.16,1645109069.171875,P12,D03,1,1,1
1549,-0.2,1645109069.1875,P12,D03,1,1,1
1550,-0.24,1645109069.203125,P12,D03,1,1,1
1551,-0.3,1645109069.21875,P12,D03,1,1,1
1552,-0.37,1645109069.234375,P12,D03,1,1,1
1553,-0.43,1645109069.25,P12,D03,1,1,1
1554,-0.46,1645109069.265625,P12,D03,1,1,1
1555,-0.44,1645109069.28125,P12,D03,1,1,1
1556,-0.42,1645109069.296875,P12,D03,1,1,1
1557,-0.4,1645109069.3125,P12,D03,1,1,1
1558,-0.39,1645109069.328125,P12,D03,1,1,1
1559,-0.37,1645109069.34375,P12,D03,1,1,1
1560,-0.33,1645109069.359375,P12,D03,1,1,1
1561,-0.26,1645109069.375,P12,D03,1,1,1
1562,-0.18,1645109069.390625,P12,D03,1,1,1
1563,-0.1,1645109069.40625,P12,D03,1,1,1
1564,0.02,1645109069.421875,P12,D03,1,1,1
1565,0.21,1645109069.4375,P12,D03,1,1,1
1566,0.48,1645109069.453125,P12,D03,1,1,1
1567,0.8,1645109069.46875,P12,D03,1,1,1
1568,1.09,1645109069.484375,P12,D03,1,1,1
1569,1.23,1645109069.5,P12,D03,1,1,1
1570,1.16,1645109069.515625,P12,D03,1,1,1
1571,0.87,1645109069.53125,P12,D03,1,1,1
1572,0.43,1645109069.546875,P12,D03,1,1,1
1573,-0.04,1645109069.5625,P12,D03,1,1,1
1574,-0.42,1645109069.578125,P12,D03,1,1,1
1575,-0.64,1645109069.59375,P12,D03,1,1,1
1576,-0.68,1645109069.609375,P12,D03,1,1,1
1577,-0.57,1645109069.625,P12,D03,1,1,1
1578,-0.37,1645109069.640625,P12,D03,1,1,1
1579,-0.16,1645109069.65625,P12,D03,1,1,1
1580,0.01,1645109069.671875,P12,D03,1,1,1
1581,0.1,1645109069.6875,P12,D03,1,1,1
1582,0.07,1645109069.703125,P12,D03,1,1,1
1583,-0.06,1645109069.71875,P12,D03,1,1,1
1584,-0.26,1645109069.734375,P12,D03,1,1,1
1585,-0.47,1645109069.75,P12,D03,1,1,1
1586,-0.59,1645109069.765625,P12,D03,1,1,1
1587,-0.54,1645109069.78125,P12,D03,1,1,1
1588,-0.27,1645109069.796875,P12,D03,1,1,1
1589,0.19,1645109069.8125,P12,D03,1,1,1
1590,0.77,1645109069.828125,P12,D03,1,1,1
1591,1.36,1645109069.84375,P12,D03,1,1,1
1592,1.84,1645109069.859375,P12,D03,1,1,1
1593,2.13,1645109069.875,P12,D03,1,1,1
1594,2.21,1645109069.890625,P12,D03,1,1,1
1595,2.09,1645109069.90625,P12,D03,1,1,1
1596,1.83,1645109069.921875,P12,D03,1,1,1
1597,1.5,1645109069.9375,P12,D03,1,1,1
1598,1.17,1645109069.953125,P12,D03,1,1,1
1599,0.87,1645109069.96875,P12,D03,1,1,1
1600,0.6,1645109069.984375,P12,D03,1,1,1
1601,0.35,1645109070.0,P12,D03,1,1,1
1602,0.14,1645109070.015625,P12,D03,1,1,1
1603,-0.0,1645109070.03125,P12,D03,1,1,1
1604,-0.04,1645109070.046875,P12,D03,1,1,1
1605,0.06,1645109070.0625,P12,D03,1,1,1
1606,0.29,1645109070.078125,P12,D03,1,1,1
1607,0.58,1645109070.09375,P12,D03,1,1,1
1608,0.81,1645109070.109375,P12,D03,1,1,1
1609,0.87,1645109070.125,P12,D03,1,1,1
1610,0.7,1645109070.140625,P12,D03,1,1,1
1611,0.33,1645109070.15625,P12,D03,1,1,1
1612,-0.11,1645109070.171875,P12,D03,1,1,1
1613,-0.51,1645109070.1875,P12,D03,1,1,1
1614,-0.8,1645109070.203125,P12,D03,1,1,1
1615,-0.98,1645109070.21875,P12,D03,1,1,1
1616,-1.13,1645109070.234375,P12,D03,1,1,1
1617,-1.35,1645109070.25,P12,D03,1,1,1
1618,-1.66,1645109070.265625,P12,D03,1,1,1
1619,-2.05,1645109070.28125,P12,D03,1,1,1
1620,-2.44,1645109070.296875,P12,D03,1,1,1
1621,-2.73,1645109070.3125,P12,D03,1,1,1
1622,-2.87,1645109070.328125,P12,D03,1,1,1
1623,-2.85,1645109070.34375,P12,D03,1,1,1
1624,-2.73,1645109070.359375,P12,D03,1,1,1
1625,-2.57,1645109070.375,P12,D03,1,1,1
1626,-2.44,1645109070.390625,P12,D03,1,1,1
1627,-2.39,1645109070.40625,P12,D03,1,1,1
1628,-2.38,1645109070.421875,P12,D03,1,1,1
1629,-2.37,1645109070.4375,P12,D03,1,1,1
1630,-2.3,1645109070.453125,P12,D03,1,1,1
1631,-2.16,1645109070.46875,P12,D03,1,1,1
1632,-1.94,1645109070.484375,P12,D03,1,1,1
1633,-1.68,1645109070.5,P12,D03,1,1,1
1634,-1.45,1645109070.515625,P12,D03,1,1,1
1635,-1.28,1645109070.53125,P12,D03,1,1,1
1636,-1.18,1645109070.546875,P12,D03,1,1,1
1637,-1.16,1645109070.5625,P12,D03,1,1,1
1638,-1.17,1645109070.578125,P12,D03,1,1,1
1639,-1.17,1645109070.59375,P12,D03,1,1,1
1640,-1.12,1645109070.609375,P12,D03,1,1,1
1641,-0.98,1645109070.625,P12,D03,1,1,1
1642,-0.74,1645109070.640625,P12,D03,1,1,1
1643,-0.45,1645109070.65625,P12,D03,1,1,1
1644,-0.15,1645109070.671875,P12,D03,1,1,1
1645,0.12,1645109070.6875,P12,D03,1,1,1
1646,0.34,1645109070.703125,P12,D03,1,1,1
1647,0.56,1645109070.71875,P12,D03,1,1,1
1648,0.78,1645109070.734375,P12,D03,1,1,1
1649,0.99,1645109070.75,P12,D03,1,1,1
1650,1.14,1645109070.765625,P12,D03,1,1,1
1651,1.14,1645109070.78125,P12,D03,1,1,1
1652,0.94,1645109070.796875,P12,D03,1,1,1
1653,0.58,1645109070.8125,P12,D03,1,1,1
1654,0.15,1645109070.828125,P12,D03,1,1,1
1655,-0.21,1645109070.84375,P12,D03,1,1,1
1656,-0.41,1645109070.859375,P12,D03,1,1,1
1657,-0.43,1645109070.875,P12,D03,1,1,1
1658,-0.33,1645109070.890625,P12,D03,1,1,1
1659,-0.19,1645109070.90625,P12,D03,1,1,1
1660,-0.1,1645109070.921875,P12,D03,1,1,1
1661,-0.1,1645109070.9375,P12,D03,1,1,1
1662,-0.17,1645109070.953125,P12,D03,1,1,1
1663,-0.29,1645109070.96875,P12,D03,1,1,1
1664,-0.42,1645109070.984375,P12,D03,1,1,1
1665,-0.53,1645109071.0,P12,D03,1,1,1
1666,-0.58,1645109071.015625,P12,D03,1,1,1
1667,-0.52,1645109071.03125,P12,D03,1,1,1
1668,-0.32,1645109071.046875,P12,D03,1,1,1
1669,-0.04,1645109071.0625,P12,D03,1,1,1
1670,0.25,1645109071.078125,P12,D03,1,1,1
1671,0.42,1645109071.09375,P12,D03,1,1,1
1672,0.41,1645109071.109375,P12,D03,1,1,1
1673,0.23,1645109071.125,P12,D03,1,1,1
1674,-0.01,1645109071.140625,P12,D03,1,1,1
1675,-0.18,1645109071.15625,P12,D03,1,1,1
1676,-0.17,1645109071.171875,P12,D03,1,1,1
1677,0.05,1645109071.1875,P12,D03,1,1,1
1678,0.38,1645109071.203125,P12,D03,1,1,1
1679,0.72,1645109071.21875,P12,D03,1,1,1
1680,0.95,1645109071.234375,P12,D03,1,1,1
1681,1.02,1645109071.25,P12,D03,1,1,1
1682,0.94,1645109071.265625,P12,D03,1,1,1
1683,0.71,1645109071.28125,P12,D03,1,1,1
1684,0.36,1645109071.296875,P12,D03,1,1,1
1685,-0.06,1645109071.3125,P12,D03,1,1,1
1686,-0.46,1645109071.328125,P12,D03,1,1,1
1687,-0.71,1645109071.34375,P12,D03,1,1,1
1688,-0.66,1645109071.359375,P12,D03,1,1,1
1689,-0.26,1645109071.375,P12,D03,1,1,1
1690,0.45,1645109071.390625,P12,D03,1,1,1
1691,1.27,1645109071.40625,P12,D03,1,1,1
1692,1.99,1645109071.421875,P12,D03,1,1,1
1693,2.44,1645109071.4375,P12,D03,1,1,1
1694,2.58,1645109071.453125,P12,D03,1,1,1
1695,2.46,1645109071.46875,P12,D03,1,1,1
1696,2.25,1645109071.484375,P12,D03,1,1,1
1697,2.06,1645109071.5,P12,D03,1,1,1
1698,1.96,1645109071.515625,P12,D03,1,1,1
1699,1.96,1645109071.53125,P12,D03,1,1,1
1700,2.01,1645109071.546875,P12,D03,1,1,1
1701,2.07,1645109071.5625,P12,D03,1,1,1
1702,2.09,1645109071.578125,P12,D03,1,1,1
1703,2.04,1645109071.59375,P12,D03,1,1,1
1704,1.9,1645109071.609375,P12,D03,1,1,1
1705,1.69,1645109071.625,P12,D03,1,1,1
1706,1.42,1645109071.640625,P12,D03,1,1,1
1707,1.15,1645109071.65625,P12,D03,1,1,1
1708,0.97,1645109071.671875,P12,D03,1,1,1
1709,0.92,1645109071.6875,P12,D03,1,1,1
1710,1.01,1645109071.703125,P12,D03,1,1,1
1711,1.17,1645109071.71875,P12,D03,1,1,1
1712,1.31,1645109071.734375,P12,D03,1,1,1
1713,1.32,1645109071.75,P12,D03,1,1,1
1714,1.2,1645109071.765625,P12,D03,1,1,1
1715,0.99,1645109071.78125,P12,D03,1,1,1
1716,0.78,1645109071.796875,P12,D03,1,1,1
1717,0.66,1645109071.8125,P12,D03,1,1,1
1718,0.7,1645109071.828125,P12,D03,1,1,1
1719,0.88,1645109071.84375,P12,D03,1,1,1
1720,1.17,1645109071.859375,P12,D03,1,1,1
1721,1.5,1645109071.875,P12,D03,1,1,1
1722,1.78,1645109071.890625,P12,D03,1,1,1
1723,1.96,1645109071.90625,P12,D03,1,1,1
1724,2.02,1645109071.921875,P12,D03,1,1,1
1725,1.98,1645109071.9375,P12,D03,1,1,1
1726,1.87,1645109071.953125,P12,D03,1,1,1
1727,1.7,1645109071.96875,P12,D03,1,1,1
1728,1.44,1645109071.984375,P12,D03,1,1,1
1729,1.03,1645109072.0,P12,D03,1,1,1
1730,0.38,1645109072.015625,P12,D03,1,1,1
1731,-0.53,1645109072.03125,P12,D03,1,1,1
1732,-1.67,1645109072.046875,P12,D03,1,1,1
1733,-2.93,1645109072.0625,P12,D03,1,1,1
1734,-4.17,1645109072.078125,P12,D03,1,1,1
1735,-5.26,1645109072.09375,P12,D03,1,1,1
1736,-6.14,1645109072.109375,P12,D03,1,1,1
1737,-6.84,1645109072.125,P12,D03,1,1,1
1738,-7.47,1645109072.140625,P12,D03,1,1,1
1739,-8.19,1645109072.15625,P12,D03,1,1,1
1740,-9.11,1645109072.171875,P12,D03,1,1,1
1741,-10.25,1645109072.1875,P12,D03,1,1,1
1742,-11.49,1645109072.203125,P12,D03,1,1,1
1743,-12.61,1645109072.21875,P12,D03,1,1,1
1744,-13.38,1645109072.234375,P12,D03,1,1,1
1745,-13.65,1645109072.25,P12,D03,1,1,1
1746,-13.46,1645109072.265625,P12,D03,1,1,1
1747,-13.06,1645109072.28125,P12,D03,1,1,1
1748,-12.78,1645109072.296875,P12,D03,1,1,1
1749,-12.95,1645109072.3125,P12,D03,1,1,1
1750,-13.81,1645109072.328125,P12,D03,1,1,1
1751,-15.38,1645109072.34375,P12,D03,1,1,1
1752,-17.51,1645109072.359375,P12,D03,1,1,1
1753,-19.86,1645109072.375,P12,D03,1,1,1
1754,-21.94,1645109072.390625,P12,D03,1,1,1
1755,-23.27,1645109072.40625,P12,D03,1,1,1
1756,-23.52,1645109072.421875,P12,D03,1,1,1
1757,-22.67,1645109072.4375,P12,D03,1,1,1
1758,-21.09,1645109072.453125,P12,D03,1,1,1
1759,-19.46,1645109072.46875,P12,D03,1,1,1
1760,-18.55,1645109072.484375,P12,D03,1,1,1
1761,-18.88,1645109072.5,P12,D03,1,1,1
1762,-20.55,1645109072.515625,P12,D03,1,1,1
1763,-23.23,1645109072.53125,P12,D03,1,1,1
1764,-26.4,1645109072.546875,P12,D03,1,1,1
1765,-29.64,1645109072.5625,P12,D03,1,1,1
1766,-32.89,1645109072.578125,P12,D03,1,1,1
1767,-36.41,1645109072.59375,P12,D03,1,1,1
1768,-40.56,1645109072.609375,P12,D03,1,1,1
1769,-45.51,1645109072.625,P12,D03,1,1,1
1770,-51.06,1645109072.640625,P12,D03,1,1,1
1771,-56.65,1645109072.65625,P12,D03,1,1,1
1772,-61.72,1645109072.671875,P12,D03,1,1,1
1773,-65.96,1645109072.6875,P12,D03,1,1,1
1774,-69.57,1645109072.703125,P12,D03,1,1,1
1775,-73.14,1645109072.71875,P12,D03,1,1,1
1776,-77.39,1645109072.734375,P12,D03,1,1,1
1777,-82.73,1645109072.75,P12,D03,1,1,1
1778,-89.08,1645109072.765625,P12,D03,1,1,1
1779,-96.0,1645109072.78125,P12,D03,1,1,1
1780,-102.87,1645109072.796875,P12,D03,1,1,1
1781,-109.0,1645109072.8125,P12,D03,1,1,1
1782,-113.37,1645109072.828125,P12,D03,1,1,1
1783,-114.41,1645109072.84375,P12,D03,1,1,1
1784,-110.09,1645109072.859375,P12,D03,1,1,1
1785,-98.42,1645109072.875,P12,D03,1,1,1
1786,-78.41,1645109072.890625,P12,D03,1,1,1
1787,-50.83,1645109072.90625,P12,D03,1,1,1
1788,-18.24,1645109072.921875,P12,D03,1,1,1
1789,15.66,1645109072.9375,P12,D03,1,1,1
1790,47.3,1645109072.953125,P12,D03,1,1,1
1791,74.26,1645109072.96875,P12,D03,1,1,1
1792,95.66,1645109072.984375,P12,D03,1,1,1
1793,111.8,1645109073.0,P12,D03,1,1,1
1794,123.37,1645109073.015625,P12,D03,1,1,1
1795,130.87,1645109073.03125,P12,D03,1,1,1
1796,134.49,1645109073.046875,P12,D03,1,1,1
1797,134.46,1645109073.0625,P12,D03,1,1,1
1798,131.35,1645109073.078125,P12,D03,1,1,1
1799,126.2,1645109073.09375,P12,D03,1,1,1
1800,120.18,1645109073.109375,P12,D03,1,1,1
1801,114.2,1645109073.125,P12,D03,1,1,1
1802,108.62,1645109073.140625,P12,D03,1,1,1
1803,103.28,1645109073.15625,P12,D03,1,1,1
1804,97.76,1645109073.171875,P12,D03,1,1,1
1805,91.66,1645109073.1875,P12,D03,1,1,1
1806,84.93,1645109073.203125,P12,D03,1,1,1
1807,78.02,1645109073.21875,P12,D03,1,1,1
1808,71.66,1645109073.234375,P12,D03,1,1,1
1809,66.67,1645109073.25,P12,D03,1,1,1
1810,63.48,1645109073.265625,P12,D03,1,1,1
1811,61.85,1645109073.28125,P12,D03,1,1,1
1812,60.9,1645109073.296875,P12,D03,1,1,1
1813,59.34,1645109073.3125,P12,D03,1,1,1
1814,56.02,1645109073.328125,P12,D03,1,1,1
1815,50.37,1645109073.34375,P12,D03,1,1,1
1816,42.58,1645109073.359375,P12,D03,1,1,1
1817,33.42,1645109073.375,P12,D03,1,1,1
1818,23.85,1645109073.390625,P12,D03,1,1,1
1819,14.67,1645109073.40625,P12,D03,1,1,1
1820,6.33,1645109073.421875,P12,D03,1,1,1
1821,-0.95,1645109073.4375,P12,D03,1,1,1
1822,-7.05,1645109073.453125,P12,D03,1,1,1
1823,-11.79,1645109073.46875,P12,D03,1,1,1
1824,-14.97,1645109073.484375,P12,D03,1,1,1
1825,-16.55,1645109073.5,P12,D03,1,1,1
1826,-16.71,1645109073.515625,P12,D03,1,1,1
1827,-15.89,1645109073.53125,P12,D03,1,1,1
1828,-14.59,1645109073.546875,P12,D03,1,1,1
1829,-13.24,1645109073.5625,P12,D03,1,1,1
1830,-12.04,1645109073.578125,P12,D03,1,1,1
1831,-11.05,1645109073.59375,P12,D03,1,1,1
1832,-10.22,1645109073.609375,P12,D03,1,1,1
1833,-9.52,1645109073.625,P12,D03,1,1,1
1834,-8.87,1645109073.640625,P12,D03,1,1,1
1835,-8.21,1645109073.65625,P12,D03,1,1,1
1836,-7.49,1645109073.671875,P12,D03,1,1,1
1837,-6.64,1645109073.6875,P12,D03,1,1,1
1838,-5.65,1645109073.703125,P12,D03,1,1,1
1839,-4.52,1645109073.71875,P12,D03,1,1,1
1840,-3.27,1645109073.734375,P12,D03,1,1,1
1841,-1.9,1645109073.75,P12,D03,1,1,1
1842,-0.38,1645109073.765625,P12,D03,1,1,1
1843,1.26,1645109073.78125,P12,D03,1,1,1
1844,2.95,1645109073.796875,P12,D03,1,1,1
1845,4.55,1645109073.8125,P12,D03,1,1,1
1846,5.96,1645109073.828125,P12,D03,1,1,1
1847,7.16,1645109073.84375,P12,D03,1,1,1
1848,8.23,1645109073.859375,P12,D03,1,1,1
1849,9.32,1645109073.875,P12,D03,1,1,1
1850,10.62,1645109073.890625,P12,D03,1,1,1
1851,12.2,1645109073.90625,P12,D03,1,1,1
1852,14.07,1645109073.921875,P12,D03,1,1,1
1853,16.14,1645109073.9375,P12,D03,1,1,1
1854,18.29,1645109073.953125,P12,D03,1,1,1
1855,20.42,1645109073.96875,P12,D03,1,1,1
1856,22.51,1645109073.984375,P12,D03,1,1,1
1857,24.66,1645109074.0,P12,D03,1,1,1
1858,27.02,1645109074.015625,P12,D03,1,1,1
1859,29.75,1645109074.03125,P12,D03,1,1,1
1860,32.92,1645109074.046875,P12,D03,1,1,1
1861,36.46,1645109074.0625,P12,D03,1,1,1
1862,40.15,1645109074.078125,P12,D03,1,1,1
1863,43.71,1645109074.09375,P12,D03,1,1,1
1864,46.91,1645109074.109375,P12,D03,1,1,1
1865,49.67,1645109074.125,P12,D03,1,1,1
1866,52.16,1645109074.140625,P12,D03,1,1,1
1867,54.67,1645109074.15625,P12,D03,1,1,1
1868,57.59,1645109074.171875,P12,D03,1,1,1
1869,61.21,1645109074.1875,P12,D03,1,1,1
1870,65.57,1645109074.203125,P12,D03,1,1,1
1871,70.35,1645109074.21875,P12,D03,1,1,1
1872,74.84,1645109074.234375,P12,D03,1,1,1
1873,78.17,1645109074.25,P12,D03,1,1,1
1874,79.61,1645109074.265625,P12,D03,1,1,1
1875,78.96,1645109074.28125,P12,D03,1,1,1
1876,76.63,1645109074.296875,P12,D03,1,1,1
1877,73.49,1645109074.3125,P12,D03,1,1,1
1878,70.34,1645109074.328125,P12,D03,1,1,1
1879,67.49,1645109074.34375,P12,D03,1,1,1
1880,64.47,1645109074.359375,P12,D03,1,1,1
1881,60.16,1645109074.375,P12,D03,1,1,1
1882,53.23,1645109074.390625,P12,D03,1,1,1
1883,42.55,1645109074.40625,P12,D03,1,1,1
1884,27.46,1645109074.421875,P12,D03,1,1,1
1885,7.99,1645109074.4375,P12,D03,1,1,1
1886,-15.07,1645109074.453125,P12,D03,1,1,1
1887,-40.17,1645109074.46875,P12,D03,1,1,1
1888,-65.04,1645109074.484375,P12,D03,1,1,1
1889,-87.13,1645109074.5,P12,D03,1,1,1
1890,-104.12,1645109074.515625,P12,D03,1,1,1
1891,-114.64,1645109074.53125,P12,D03,1,1,1
1892,-118.63,1645109074.546875,P12,D03,1,1,1
1893,-117.28,1645109074.5625,P12,D03,1,1,1
1894,-112.41,1645109074.578125,P12,D03,1,1,1
1895,-105.79,1645109074.59375,P12,D03,1,1,1
1896,-98.64,1645109074.609375,P12,D03,1,1,1
1897,-91.54,1645109074.625,P12,D03,1,1,1
1898,-84.69,1645109074.640625,P12,D03,1,1,1
1899,-78.22,1645109074.65625,P12,D03,1,1,1
1900,-72.33,1645109074.671875,P12,D03,1,1,1
1901,-67.19,1645109074.6875,P12,D03,1,1,1
1902,-62.76,1645109074.703125,P12,D03,1,1,1
1903,-58.73,1645109074.71875,P12,D03,1,1,1
1904,-54.64,1645109074.734375,P12,D03,1,1,1
1905,-50.16,1645109074.75,P12,D03,1,1,1
1906,-45.25,1645109074.765625,P12,D03,1,1,1
1907,-40.22,1645109074.78125,P12,D03,1,1,1
1908,-35.57,1645109074.796875,P12,D03,1,1,1
1909,-31.71,1645109074.8125,P12,D03,1,1,1
1910,-28.76,1645109074.828125,P12,D03,1,1,1
1911,-26.51,1645109074.84375,P12,D03,1,1,1
1912,-24.51,1645109074.859375,P12,D03,1,1,1
1913,-22.31,1645109074.875,P12,D03,1,1,1
1914,-19.65,1645109074.890625,P12,D03,1,1,1
1915,-16.52,1645109074.90625,P12,D03,1,1,1
1916,-13.18,1645109074.921875,P12,D03,1,1,1
1917,-9.95,1645109074.9375,P12,D03,1,1,1
1918,-7.11,1645109074.953125,P12,D03,1,1,1
1919,-4.8,1645109074.96875,P12,D03,1,1,1
1920,-2.98,1645109074.984375,P12,D03,1,1,1
1921,-1.57,1645109075.0,P12,D03,1,1,1
1922,-0.47,1645109075.015625,P12,D03,1,1,1
1923,0.41,1645109075.03125,P12,D03,1,1,1
1924,1.13,1645109075.046875,P12,D03,1,1,1
1925,1.7,1645109075.0625,P12,D03,1,1,1
1926,2.11,1645109075.078125,P12,D03,1,1,1
1927,2.32,1645109075.09375,P12,D03,1,1,1
1928,2.32,1645109075.109375,P12,D03,1,1,1
1929,2.12,1645109075.125,P12,D03,1,1,1
1930,1.8,1645109075.140625,P12,D03,1,1,1
1931,1.49,1645109075.15625,P12,D03,1,1,1
1932,1.33,1645109075.171875,P12,D03,1,1,1
1933,1.38,1645109075.1875,P12,D03,1,1,1
1934,1.62,1645109075.203125,P12,D03,1,1,1
1935,1.93,1645109075.21875,P12,D03,1,1,1
1936,2.12,1645109075.234375,P12,D03,1,1,1
1937,2.06,1645109075.25,P12,D03,1,1,1
1938,1.69,1645109075.265625,P12,D03,1,1,1
1939,1.11,1645109075.28125,P12,D03,1,1,1
1940,0.49,1645109075.296875,P12,D03,1,1,1
1941,0.09,1645109075.3125,P12,D03,1,1,1
1942,0.06,1645109075.328125,P12,D03,1,1,1
1943,0.43,1645109075.34375,P12,D03,1,1,1
1944,1.06,1645109075.359375,P12,D03,1,1,1
1945,1.67,1645109075.375,P12,D03,1,1,1
1946,1.96,1645109075.390625,P12,D03,1,1,1
1947,1.76,1645109075.40625,P12,D03,1,1,1
1948,1.1,1645109075.421875,P12,D03,1,1,1
1949,0.21,1645109075.4375,P12,D03,1,1,1
1950,-0.61,1645109075.453125,P12,D03,1,1,1
1951,-1.12,1645109075.46875,P12,D03,1,1,1
1952,-1.24,1645109075.484375,P12,D03,1,1,1
1953,-1.03,1645109075.5,P12,D03,1,1,1
1954,-0.63,1645109075.515625,P12,D03,1,1,1
1955,-0.15,1645109075.53125,P12,D03,1,1,1
1956,0.36,1645109075.546875,P12,D03,1,1,1
1957,0.91,1645109075.5625,P12,D03,1,1,1
1958,1.44,1645109075.578125,P12,D03,1,1,1
1959,1.82,1645109075.59375,P12,D03,1,1,1
1960,1.88,1645109075.609375,P12,D03,1,1,1
1961,1.51,1645109075.625,P12,D03,1,1,1
1962,0.73,1645109075.640625,P12,D03,1,1,1
1963,-0.24,1645109075.65625,P12,D03,1,1,1
1964,-1.06,1645109075.671875,P12,D03,1,1,1
1965,-1.45,1645109075.6875,P12,D03,1,1,1
1966,-1.25,1645109075.703125,P12,D03,1,1,1
1967,-0.61,1645109075.71875,P12,D03,1,1,1
1968,0.2,1645109075.734375,P12,D03,1,1,1
1969,0.8,1645109075.75,P12,D03,1,1,1
1970,0.99,1645109075.765625,P12,D03,1,1,1
1971,0.75,1645109075.78125,P12,D03,1,1,1
1972,0.27,1645109075.796875,P12,D03,1,1,1
1973,-0.17,1645109075.8125,P12,D03,1,1,1
1974,-0.41,1645109075.828125,P12,D03,1,1,1
1975,-0.41,1645109075.84375,P12,D03,1,1,1
1976,-0.29,1645109075.859375,P12,D03,1,1,1
1977,-0.2,1645109075.875,P12,D03,1,1,1
1978,-0.24,1645109075.890625,P12,D03,1,1,1
1979,-0.38,1645109075.90625,P12,D03,1,1,1
1980,-0.56,1645109075.921875,P12,D03,1,1,1
1981,-0.69,1645109075.9375,P12,D03,1,1,1
1982,-0.77,1645109075.953125,P12,D03,1,1,1
1983,-0.81,1645109075.96875,P12,D03,1,1,1
1984,-0.84,1645109075.984375,P12,D03,1,1,1
1985,-0.84,1645109076.0,P12,D03,1,1,1
1986,-0.74,1645109076.015625,P12,D03,1,1,1
1987,-0.48,1645109076.03125,P12,D03,1,1,1
1988,-0.09,1645109076.046875,P12,D03,1,1,1
1989,0.32,1645109076.0625,P12,D03,1,1,1
1990,0.63,1645109076.078125,P12,D03,1,1,1
1991,0.75,1645109076.09375,P12,D03,1,1,1
1992,0.72,1645109076.109375,P12,D03,1,1,1
1993,0.67,1645109076.125,P12,D03,1,1,1
1994,0.77,1645109076.140625,P12,D03,1,1,1
1995,1.1,1645109076.15625,P12,D03,1,1,1
1996,1.63,1645109076.171875,P12,D03,1,1,1
1997,2.23,1645109076.1875,P12,D03,1,1,1
1998,2.76,1645109076.203125,P12,D03,1,1,1
1999,3.13,1645109076.21875,P12,D03,1,1,1
2000,3.34,1645109076.234375,P12,D03,1,1,1
2001,3.39,1645109076.25,P12,D03,1,1,1
2002,3.31,1645109076.265625,P12,D03,1,1,1
2003,3.08,1645109076.28125,P12,D03,1,1,1
2004,2.71,1645109076.296875,P12,D03,1,1,1
2005,2.21,1645109076.3125,P12,D03,1,1,1
2006,1.71,1645109076.328125,P12,D03,1,1,1
2007,1.35,1645109076.34375,P12,D03,1,1,1
2008,1.23,1645109076.359375,P12,D03,1,1,1
2009,1.37,1645109076.375,P12,D03,1,1,1
2010,1.67,1645109076.390625,P12,D03,1,1,1
2011,1.95,1645109076.40625,P12,D03,1,1,1
2012,2.04,1645109076.421875,P12,D03,1,1,1
2013,1.88,1645109076.4375,P12,D03,1,1,1
2014,1.47,1645109076.453125,P12,D03,1,1,1
2015,0.91,1645109076.46875,P12,D03,1,1,1
2016,0.3,1645109076.484375,P12,D03,1,1,1
2017,-0.27,1645109076.5,P12,D03,1,1,1
2018,-0.77,1645109076.515625,P12,D03,1,1,1
2019,-1.2,1645109076.53125,P12,D03,1,1,1
2020,-1.54,1645109076.546875,P12,D03,1,1,1
2021,-1.82,1645109076.5625,P12,D03,1,1,1
2022,-2.05,1645109076.578125,P12,D03,1,1,1
2023,-2.22,1645109076.59375,P12,D03,1,1,1
2024,-2.36,1645109076.609375,P12,D03,1,1,1
2025,-2.45,1645109076.625,P12,D03,1,1,1
2026,-2.47,1645109076.640625,P12,D03,1,1,1
2027,-2.43,1645109076.65625,P12,D03,1,1,1
2028,-2.33,1645109076.671875,P12,D03,1,1,1
2029,-2.22,1645109076.6875,P12,D03,1,1,1
2030,-2.17,1645109076.703125,P12,D03,1,1,1
2031,-2.18,1645109076.71875,P12,D03,1,1,1
2032,-2.24,1645109076.734375,P12,D03,1,1,1
2033,-2.28,1645109076.75,P12,D03,1,1,1
2034,-2.23,1645109076.765625,P12,D03,1,1,1
2035,-2.04,1645109076.78125,P12,D03,1,1,1
2036,-1.72,1645109076.796875,P12,D03,1,1,1
2037,-1.3,1645109076.8125,P12,D03,1,1,1
2038,-0.84,1645109076.828125,P12,D03,1,1,1
2039,-0.38,1645109076.84375,P12,D03,1,1,1
2040,0.06,1645109076.859375,P12,D03,1,1,1
2041,0.45,1645109076.875,P12,D03,1,1,1
2042,0.73,1645109076.890625,P12,D03,1,1,1
2043,0.83,1645109076.90625,P12,D03,1,1,1
2044,0.69,1645109076.921875,P12,D03,1,1,1
2045,0.3,1645109076.9375,P12,D03,1,1,1
2046,-0.25,1645109076.953125,P12,D03,1,1,1
2047,-0.84,1645109076.96875,P12,D03,1,1,1
2048,-1.31,1645109076.984375,P12,D03,1,1,1
2049,-1.59,1645109077.0,P12,D03,1,1,1
2050,-1.63,1645109077.015625,P12,D03,1,1,1
2051,-1.47,1645109077.03125,P12,D03,1,1,1
2052,-1.15,1645109077.046875,P12,D03,1,1,1
2053,-0.72,1645109077.0625,P12,D03,1,1,1
2054,-0.24,1645109077.078125,P12,D03,1,1,1
2055,0.2,1645109077.09375,P12,D03,1,1,1
2056,0.47,1645109077.109375,P12,D03,1,1,1
2057,0.49,1645109077.125,P12,D03,1,1,1
2058,0.2,1645109077.140625,P12,D03,1,1,1
2059,-0.29,1645109077.15625,P12,D03,1,1,1
2060,-0.82,1645109077.171875,P12,D03,1,1,1
2061,-1.2,1645109077.1875,P12,D03,1,1,1
2062,-1.3,1645109077.203125,P12,D03,1,1,1
2063,-1.13,1645109077.21875,P12,D03,1,1,1
2064,-0.82,1645109077.234375,P12,D03,1,1,1
2065,-0.5,1645109077.25,P12,D03,1,1,1
2066,-0.28,1645109077.265625,P12,D03,1,1,1
2067,-0.19,1645109077.28125,P12,D03,1,1,1
2068,-0.16,1645109077.296875,P12,D03,1,1,1
2069,-0.12,1645109077.3125,P12,D03,1,1,1
2070,-0.01,1645109077.328125,P12,D03,1,1,1
2071,0.17,1645109077.34375,P12,D03,1,1,1
2072,0.37,1645109077.359375,P12,D03,1,1,1
2073,0.53,1645109077.375,P12,D03,1,1,1
2074,0.54,1645109077.390625,P12,D03,1,1,1
2075,0.38,1645109077.40625,P12,D03,1,1,1
2076,0.06,1645109077.421875,P12,D03,1,1,1
2077,-0.34,1645109077.4375,P12,D03,1,1,1
2078,-0.72,1645109077.453125,P12,D03,1,1,1
2079,-0.95,1645109077.46875,P12,D03,1,1,1
2080,-0.94,1645109077.484375,P12,D03,1,1,1
2081,-0.67,1645109077.5,P12,D03,1,1,1
2082,-0.21,1645109077.515625,P12,D03,1,1,1
2083,0.35,1645109077.53125,P12,D03,1,1,1
2084,0.86,1645109077.546875,P12,D03,1,1,1
2085,1.2,1645109077.5625,P12,D03,1,1,1
2086,1.29,1645109077.578125,P12,D03,1,1,1
2087,1.15,1645109077.59375,P12,D03,1,1,1
2088,0.87,1645109077.609375,P12,D03,1,1,1
2089,0.56,1645109077.625,P12,D03,1,1,1
2090,0.3,1645109077.640625,P12,D03,1,1,1
2091,0.15,1645109077.65625,P12,D03,1,1,1
2092,0.07,1645109077.671875,P12,D03,1,1,1
2093,0.03,1645109077.6875,P12,D03,1,1,1
2094,0.03,1645109077.703125,P12,D03,1,1,1
2095,0.05,1645109077.71875,P12,D03,1,1,1
2096,0.11,1645109077.734375,P12,D03,1,1,1
2097,0.18,1645109077.75,P12,D03,1,1,1
2098,0.21,1645109077.765625,P12,D03,1,1,1
2099,0.15,1645109077.78125,P12,D03,1,1,1
2100,-0.02,1645109077.796875,P12,D03,1,1,1
2101,-0.21,1645109077.8125,P12,D03,1,1,1
2102,-0.35,1645109077.828125,P12,D03,1,1,1
2103,-0.39,1645109077.84375,P12,D03,1,1,1
2104,-0.34,1645109077.859375,P12,D03,1,1,1
2105,-0.28,1645109077.875,P12,D03,1,1,1
2106,-0.29,1645109077.890625,P12,D03,1,1,1
2107,-0.37,1645109077.90625,P12,D03,1,1,1
2108,-0.49,1645109077.921875,P12,D03,1,1,1
2109,-0.59,1645109077.9375,P12,D03,1,1,1
2110,-0.61,1645109077.953125,P12,D03,1,1,1
2111,-0.54,1645109077.96875,P12,D03,1,1,1
2112,-0.39,1645109077.984375,P12,D03,1,1,1
2113,-0.2,1645109078.0,P12,D03,1,1,1
2114,0.01,1645109078.015625,P12,D03,1,1,1
2115,0.22,1645109078.03125,P12,D03,1,1,1
2116,0.36,1645109078.046875,P12,D03,1,1,1
2117,0.4,1645109078.0625,P12,D03,1,1,1
2118,0.33,1645109078.078125,P12,D03,1,1,1
2119,0.18,1645109078.09375,P12,D03,1,1,1
2120,0.02,1645109078.109375,P12,D03,1,1,1
2121,-0.07,1645109078.125,P12,D03,1,1,1
2122,-0.07,1645109078.140625,P12,D03,1,1,1
2123,-0.0,1645109078.15625,P12,D03,1,1,1
2124,0.09,1645109078.171875,P12,D03,1,1,1
2125,0.2,1645109078.1875,P12,D03,1,1,1
2126,0.32,1645109078.203125,P12,D03,1,1,1
2127,0.46,1645109078.21875,P12,D03,1,1,1
2128,0.6,1645109078.234375,P12,D03,1,1,1
2129,0.68,1645109078.25,P12,D03,1,1,1
2130,0.62,1645109078.265625,P12,D03,1,1,1
2131,0.4,1645109078.28125,P12,D03,1,1,1
2132,0.07,1645109078.296875,P12,D03,1,1,1
2133,-0.22,1645109078.3125,P12,D03,1,1,1
2134,-0.36,1645109078.328125,P12,D03,1,1,1
2135,-0.3,1645109078.34375,P12,D03,1,1,1
2136,-0.1,1645109078.359375,P12,D03,1,1,1
2137,0.09,1645109078.375,P12,D03,1,1,1
2138,0.15,1645109078.390625,P12,D03,1,1,1
2139,0.03,1645109078.40625,P12,D03,1,1,1
2140,-0.22,1645109078.421875,P12,D03,1,1,1
2141,-0.51,1645109078.4375,P12,D03,1,1,1
2142,-0.73,1645109078.453125,P12,D03,1,1,1
2143,-0.81,1645109078.46875,P12,D03,1,1,1
2144,-0.77,1645109078.484375,P12,D03,1,1,1
2145,-0.64,1645109078.5,P12,D03,1,1,1
2146,-0.48,1645109078.515625,P12,D03,1,1,1
2147,-0.33,1645109078.53125,P12,D03,1,1,1
2148,-0.19,1645109078.546875,P12,D03,1,1,1
2149,-0.09,1645109078.5625,P12,D03,1,1,1
2150,-0.01,1645109078.578125,P12,D03,1,1,1
2151,0.08,1645109078.59375,P12,D03,1,1,1
2152,0.17,1645109078.609375,P12,D03,1,1,1
2153,0.31,1645109078.625,P12,D03,1,1,1
2154,0.49,1645109078.640625,P12,D03,1,1,1
2155,0.68,1645109078.65625,P12,D03,1,1,1
2156,0.82,1645109078.671875,P12,D03,1,1,1
2157,0.84,1645109078.6875,P12,D03,1,1,1
2158,0.74,1645109078.703125,P12,D03,1,1,1
2159,0.54,1645109078.71875,P12,D03,1,1,1
2160,0.33,1645109078.734375,P12,D03,1,1,1
2161,0.16,1645109078.75,P12,D03,1,1,1
2162,0.06,1645109078.765625,P12,D03,1,1,1
2163,0.03,1645109078.78125,P12,D03,1,1,1
2164,0.01,1645109078.796875,P12,D03,1,1,1
2165,-0.01,1645109078.8125,P12,D03,1,1,1
2166,-0.03,1645109078.828125,P12,D03,1,1,1
2167,0.0,1645109078.84375,P12,D03,1,1,1
2168,0.13,1645109078.859375,P12,D03,1,1,1
2169,0.33,1645109078.875,P12,D03,1,1,1
2170,0.52,1645109078.890625,P12,D03,1,1,1
2171,0.59,1645109078.90625,P12,D03,1,1,1
2172,0.47,1645109078.921875,P12,D03,1,1,1
2173,0.16,1645109078.9375,P12,D03,1,1,1
2174,-0.22,1645109078.953125,P12,D03,1,1,1
2175,-0.54,1645109078.96875,P12,D03,1,1,1
2176,-0.66,1645109078.984375,P12,D03,1,1,1
2177,-0.56,1645109079.0,P12,D03,1,1,1
2178,-0.32,1645109079.015625,P12,D03,1,1,1
2179,-0.09,1645109079.03125,P12,D03,1,1,1
2180,0.01,1645109079.046875,P12,D03,1,1,1
2181,-0.08,1645109079.0625,P12,D03,1,1,1
2182,-0.31,1645109079.078125,P12,D03,1,1,1
2183,-0.55,1645109079.09375,P12,D03,1,1,1
2184,-0.69,1645109079.109375,P12,D03,1,1,1
2185,-0.68,1645109079.125,P12,D03,1,1,1
2186,-0.55,1645109079.140625,P12,D03,1,1,1
2187,-0.4,1645109079.15625,P12,D03,1,1,1
2188,-0.35,1645109079.171875,P12,D03,1,1,1
2189,-0.44,1645109079.1875,P12,D03,1,1,1
2190,-0.62,1645109079.203125,P12,D03,1,1,1
2191,-0.78,1645109079.21875,P12,D03,1,1,1
2192,-0.82,1645109079.234375,P12,D03,1,1,1
2193,-0.68,1645109079.25,P12,D03,1,1,1
2194,-0.39,1645109079.265625,P12,D03,1,1,1
2195,-0.07,1645109079.28125,P12,D03,1,1,1
2196,0.17,1645109079.296875,P12,D03,1,1,1
2197,0.25,1645109079.3125,P12,D03,1,1,1
2198,0.18,1645109079.328125,P12,D03,1,1,1
2199,0.04,1645109079.34375,P12,D03,1,1,1
2200,-0.06,1645109079.359375,P12,D03,1,1,1
2201,-0.05,1645109079.375,P12,D03,1,1,1
2202,0.05,1645109079.390625,P12,D03,1,1,1
2203,0.22,1645109079.40625,P12,D03,1,1,1
2204,0.37,1645109079.421875,P12,D03,1,1,1
2205,0.48,1645109079.4375,P12,D03,1,1,1
2206,0.58,1645109079.453125,P12,D03,1,1,1
2207,0.71,1645109079.46875,P12,D03,1,1,1
2208,0.88,1645109079.484375,P12,D03,1,1,1
2209,1.06,1645109079.5,P12,D03,1,1,1
2210,1.17,1645109079.515625,P12,D03,1,1,1
2211,1.13,1645109079.53125,P12,D03,1,1,1
2212,0.93,1645109079.546875,P12,D03,1,1,1
2213,0.61,1645109079.5625,P12,D03,1,1,1
2214,0.29,1645109079.578125,P12,D03,1,1,1
2215,0.06,1645109079.59375,P12,D03,1,1,1
2216,-0.04,1645109079.609375,P12,D03,1,1,1
2217,-0.0,1645109079.625,P12,D03,1,1,1
2218,0.1,1645109079.640625,P12,D03,1,1,1
2219,0.22,1645109079.65625,P12,D03,1,1,1
2220,0.27,1645109079.671875,P12,D03,1,1,1
2221,0.24,1645109079.6875,P12,D03,1,1,1
2222,0.11,1645109079.703125,P12,D03,1,1,1
2223,-0.09,1645109079.71875,P12,D03,1,1,1
2224,-0.26,1645109079.734375,P12,D03,1,1,1
2225,-0.33,1645109079.75,P12,D03,1,1,1
2226,-0.25,1645109079.765625,P12,D03,1,1,1
2227,-0.02,1645109079.78125,P12,D03,1,1,1
2228,0.27,1645109079.796875,P12,D03,1,1,1
2229,0.53,1645109079.8125,P12,D03,1,1,1
2230,0.69,1645109079.828125,P12,D03,1,1,1
2231,0.75,1645109079.84375,P12,D03,1,1,1
2232,0.72,1645109079.859375,P12,D03,1,1,1
2233,0.63,1645109079.875,P12,D03,1,1,1
2234,0.46,1645109079.890625,P12,D03,1,1,1
2235,0.2,1645109079.90625,P12,D03,1,1,1
2236,-0.18,1645109079.921875,P12,D03,1,1,1
2237,-0.61,1645109079.9375,P12,D03,1,1,1
2238,-0.96,1645109079.953125,P12,D03,1,1,1
2239,-1.09,1645109079.96875,P12,D03,1,1,1
2240,-0.94,1645109079.984375,P12,D03,1,1,1
2241,-0.56,1645109080.0,P12,D03,1,1,1
2242,-0.11,1645109080.015625,P12,D03,1,1,1
2243,0.21,1645109080.03125,P12,D03,1,1,1
2244,0.25,1645109080.046875,P12,D03,1,1,1
2245,0.01,1645109080.0625,P12,D03,1,1,1
2246,-0.36,1645109080.078125,P12,D03,1,1,1
2247,-0.69,1645109080.09375,P12,D03,1,1,1
2248,-0.8,1645109080.109375,P12,D03,1,1,1
2249,-0.69,1645109080.125,P12,D03,1,1,1
2250,-0.44,1645109080.140625,P12,D03,1,1,1
2251,-0.2,1645109080.15625,P12,D03,1,1,1
2252,-0.1,1645109080.171875,P12,D03,1,1,1
2253,-0.16,1645109080.1875,P12,D03,1,1,1
2254,-0.31,1645109080.203125,P12,D03,1,1,1
2255,-0.43,1645109080.21875,P12,D03,1,1,1
2256,-0.43,1645109080.234375,P12,D03,1,1,1
2257,-0.27,1645109080.25,P12,D03,1,1,1
2258,-0.01,1645109080.265625,P12,D03,1,1,1
2259,0.26,1645109080.28125,P12,D03,1,1,1
2260,0.47,1645109080.296875,P12,D03,1,1,1
2261,0.54,1645109080.3125,P12,D03,1,1,1
2262,0.44,1645109080.328125,P12,D03,1,1,1
2263,0.2,1645109080.34375,P12,D03,1,1,1
2264,-0.15,1645109080.359375,P12,D03,1,1,1
2265,-0.5,1645109080.375,P12,D03,1,1,1
2266,-0.74,1645109080.390625,P12,D03,1,1,1
2267,-0.77,1645109080.40625,P12,D03,1,1,1
2268,-0.58,1645109080.421875,P12,D03,1,1,1
2269,-0.23,1645109080.4375,P12,D03,1,1,1
2270,0.13,1645109080.453125,P12,D03,1,1,1
2271,0.39,1645109080.46875,P12,D03,1,1,1
2272,0.5,1645109080.484375,P12,D03,1,1,1
2273,0.45,1645109080.5,P12,D03,1,1,1
2274,0.34,1645109080.515625,P12,D03,1,1,1
2275,0.22,1645109080.53125,P12,D03,1,1,1
2276,0.15,1645109080.546875,P12,D03,1,1,1
2277,0.13,1645109080.5625,P12,D03,1,1,1
2278,0.13,1645109080.578125,P12,D03,1,1,1
2279,0.14,1645109080.59375,P12,D03,1,1,1
2280,0.15,1645109080.609375,P12,D03,1,1,1
2281,0.16,1645109080.625,P12,D03,1,1,1
2282,0.15,1645109080.640625,P12,D03,1,1,1
2283,0.11,1645109080.65625,P12,D03,1,1,1
2284,0.02,1645109080.671875,P12,D03,1,1,1
2285,-0.12,1645109080.6875,P12,D03,1,1,1
2286,-0.23,1645109080.703125,P12,D03,1,1,1
2287,-0.22,1645109080.71875,P12,D03,1,1,1
2288,-0.03,1645109080.734375,P12,D03,1,1,1
2289,0.29,1645109080.75,P12,D03,1,1,1
2290,0.6,1645109080.765625,P12,D03,1,1,1
2291,0.76,1645109080.78125,P12,D03,1,1,1
2292,0.65,1645109080.796875,P12,D03,1,1,1
2293,0.3,1645109080.8125,P12,D03,1,1,1
2294,-0.15,1645109080.828125,P12,D03,1,1,1
2295,-0.52,1645109080.84375,P12,D03,1,1,1
2296,-0.71,1645109080.859375,P12,D03,1,1,1
2297,-0.7,1645109080.875,P12,D03,1,1,1
2298,-0.58,1645109080.890625,P12,D03,1,1,1
2299,-0.46,1645109080.90625,P12,D03,1,1,1
2300,-0.41,1645109080.921875,P12,D03,1,1,1
2301,-0.42,1645109080.9375,P12,D03,1,1,1
2302,-0.46,1645109080.953125,P12,D03,1,1,1
2303,-0.48,1645109080.96875,P12,D03,1,1,1
2304,-0.44,1645109080.984375,P12,D03,1,1,1
2305,-0.38,1645109081.0,P12,D03,1,1,1
2306,-0.3,1645109081.015625,P12,D03,1,1,1
2307,-0.19,1645109081.03125,P12,D03,1,1,1
2308,-0.05,1645109081.046875,P12,D03,1,1,1
2309,0.12,1645109081.0625,P12,D03,1,1,1
2310,0.31,1645109081.078125,P12,D03,1,1,1
2311,0.46,1645109081.09375,P12,D03,1,1,1
2312,0.53,1645109081.109375,P12,D03,1,1,1
2313,0.51,1645109081.125,P12,D03,1,1,1
2314,0.4,1645109081.140625,P12,D03,1,1,1
2315,0.24,1645109081.15625,P12,D03,1,1,1
2316,0.09,1645109081.171875,P12,D03,1,1,1
2317,-0.0,1645109081.1875,P12,D03,1,1,1
2318,0.01,1645109081.203125,P12,D03,1,1,1
2319,0.12,1645109081.21875,P12,D03,1,1,1
2320,0.3,1645109081.234375,P12,D03,1,1,1
2321,0.48,1645109081.25,P12,D03,1,1,1
2322,0.59,1645109081.265625,P12,D03,1,1,1
2323,0.6,1645109081.28125,P12,D03,1,1,1
2324,0.55,1645109081.296875,P12,D03,1,1,1
2325,0.47,1645109081.3125,P12,D03,1,1,1
2326,0.44,1645109081.328125,P12,D03,1,1,1
2327,0.47,1645109081.34375,P12,D03,1,1,1
2328,0.57,1645109081.359375,P12,D03,1,1,1
2329,0.67,1645109081.375,P12,D03,1,1,1
2330,0.71,1645109081.390625,P12,D03,1,1,1
2331,0.66,1645109081.40625,P12,D03,1,1,1
2332,0.5,1645109081.421875,P12,D03,1,1,1
2333,0.28,1645109081.4375,P12,D03,1,1,1
2334,0.06,1645109081.453125,P12,D03,1,1,1
2335,-0.09,1645109081.46875,P12,D03,1,1,1
2336,-0.15,1645109081.484375,P12,D03,1,1,1
2337,-0.13,1645109081.5,P12,D03,1,1,1
2338,-0.06,1645109081.515625,P12,D03,1,1,1
2339,0.02,1645109081.53125,P12,D03,1,1,1
2340,0.08,1645109081.546875,P12,D03,1,1,1
2341,0.13,1645109081.5625,P12,D03,1,1,1
2342,0.15,1645109081.578125,P12,D03,1,1,1
2343,0.12,1645109081.59375,P12,D03,1,1,1
2344,0.01,1645109081.609375,P12,D03,1,1,1
2345,-0.19,1645109081.625,P12,D03,1,1,1
2346,-0.45,1645109081.640625,P12,D03,1,1,1
2347,-0.68,1645109081.65625,P12,D03,1,1,1
2348,-0.78,1645109081.671875,P12,D03,1,1,1
2349,-0.7,1645109081.6875,P12,D03,1,1,1
2350,-0.47,1645109081.703125,P12,D03,1,1,1
2351,-0.21,1645109081.71875,P12,D03,1,1,1
2352,-0.05,1645109081.734375,P12,D03,1,1,1
2353,-0.1,1645109081.75,P12,D03,1,1,1
2354,-0.37,1645109081.765625,P12,D03,1,1,1
2355,-0.73,1645109081.78125,P12,D03,1,1,1
2356,-1.03,1645109081.796875,P12,D03,1,1,1
2357,-1.15,1645109081.8125,P12,D03,1,1,1
2358,-1.04,1645109081.828125,P12,D03,1,1,1
2359,-0.75,1645109081.84375,P12,D03,1,1,1
2360,-0.37,1645109081.859375,P12,D03,1,1,1
2361,-0.01,1645109081.875,P12,D03,1,1,1
2362,0.25,1645109081.890625,P12,D03,1,1,1
2363,0.39,1645109081.90625,P12,D03,1,1,1
2364,0.44,1645109081.921875,P12,D03,1,1,1
2365,0.44,1645109081.9375,P12,D03,1,1,1
2366,0.41,1645109081.953125,P12,D03,1,1,1
2367,0.35,1645109081.96875,P12,D03,1,1,1
2368,0.25,1645109081.984375,P12,D03,1,1,1
2369,0.1,1645109082.0,P12,D03,1,1,1
2370,-0.08,1645109082.015625,P12,D03,1,1,1
2371,-0.23,1645109082.03125,P12,D03,1,1,1
2372,-0.28,1645109082.046875,P12,D03,1,1,1
2373,-0.18,1645109082.0625,P12,D03,1,1,1
2374,0.03,1645109082.078125,P12,D03,1,1,1
2375,0.27,1645109082.09375,P12,D03,1,1,1
2376,0.4,1645109082.109375,P12,D03,1,1,1
2377,0.32,1645109082.125,P12,D03,1,1,1
2378,0.03,1645109082.140625,P12,D03,1,1,1
2379,-0.36,1645109082.15625,P12,D03,1,1,1
2380,-0.69,1645109082.171875,P12,D03,1,1,1
2381,-0.83,1645109082.1875,P12,D03,1,1,1
2382,-0.74,1645109082.203125,P12,D03,1,1,1
2383,-0.52,1645109082.21875,P12,D03,1,1,1
2384,-0.29,1645109082.234375,P12,D03,1,1,1
2385,-0.18,1645109082.25,P12,D03,1,1,1
2386,-0.21,1645109082.265625,P12,D03,1,1,1
2387,-0.33,1645109082.28125,P12,D03,1,1,1
2388,-0.46,1645109082.296875,P12,D03,1,1,1
2389,-0.52,1645109082.3125,P12,D03,1,1,1
2390,-0.47,1645109082.328125,P12,D03,1,1,1
2391,-0.33,1645109082.34375,P12,D03,1,1,1
2392,-0.13,1645109082.359375,P12,D03,1,1,1
2393,0.08,1645109082.375,P12,D03,1,1,1
2394,0.25,1645109082.390625,P12,D03,1,1,1
2395,0.34,1645109082.40625,P12,D03,1,1,1
2396,0.35,1645109082.421875,P12,D03,1,1,1
2397,0.29,1645109082.4375,P12,D03,1,1,1
2398,0.19,1645109082.453125,P12,D03,1,1,1
2399,0.09,1645109082.46875,P12,D03,1,1,1
2400,0.01,1645109082.484375,P12,D03,1,1,1
2401,-0.02,1645109082.5,P12,D03,1,1,1
2402,-0.02,1645109082.515625,P12,D03,1,1,1
2403,0.02,1645109082.53125,P12,D03,1,1,1
2404,0.08,1645109082.546875,P12,D03,1,1,1
2405,0.17,1645109082.5625,P12,D03,1,1,1
2406,0.29,1645109082.578125,P12,D03,1,1,1
2407,0.45,1645109082.59375,P12,D03,1,1,1
2408,0.65,1645109082.609375,P12,D03,1,1,1
2409,0.86,1645109082.625,P12,D03,1,1,1
2410,1.08,1645109082.640625,P12,D03,1,1,1
2411,1.26,1645109082.65625,P12,D03,1,1,1
2412,1.37,1645109082.671875,P12,D03,1,1,1
2413,1.35,1645109082.6875,P12,D03,1,1,1
2414,1.17,1645109082.703125,P12,D03,1,1,1
2415,0.85,1645109082.71875,P12,D03,1,1,1
2416,0.48,1645109082.734375,P12,D03,1,1,1
2417,0.19,1645109082.75,P12,D03,1,1,1
2418,0.08,1645109082.765625,P12,D03,1,1,1
2419,0.2,1645109082.78125,P12,D03,1,1,1
2420,0.45,1645109082.796875,P12,D03,1,1,1
2421,0.72,1645109082.8125,P12,D03,1,1,1
2422,0.86,1645109082.828125,P12,D03,1,1,1
2423,0.8,1645109082.84375,P12,D03,1,1,1
2424,0.56,1645109082.859375,P12,D03,1,1,1
2425,0.23,1645109082.875,P12,D03,1,1,1
2426,-0.12,1645109082.890625,P12,D03,1,1,1
2427,-0.44,1645109082.90625,P12,D03,1,1,1
2428,-0.76,1645109082.921875,P12,D03,1,1,1
2429,-1.07,1645109082.9375,P12,D03,1,1,1
2430,-1.33,1645109082.953125,P12,D03,1,1,1
2431,-1.4,1645109082.96875,P12,D03,1,1,1
2432,-1.21,1645109082.984375,P12,D03,1,1,1
2433,-0.74,1645109083.0,P12,D03,1,1,1
2434,-0.13,1645109083.015625,P12,D03,1,1,1
2435,0.41,1645109083.03125,P12,D03,1,1,1
2436,0.67,1645109083.046875,P12,D03,1,1,1
2437,0.54,1645109083.0625,P12,D03,1,1,1
2438,0.1,1645109083.078125,P12,D03,1,1,1
2439,-0.46,1645109083.09375,P12,D03,1,1,1
2440,-0.92,1645109083.109375,P12,D03,1,1,1
2441,-1.12,1645109083.125,P12,D03,1,1,1
2442,-1.03,1645109083.140625,P12,D03,1,1,1
2443,-0.73,1645109083.15625,P12,D03,1,1,1
2444,-0.38,1645109083.171875,P12,D03,1,1,1
2445,-0.1,1645109083.1875,P12,D03,1,1,1
2446,0.06,1645109083.203125,P12,D03,1,1,1
2447,0.07,1645109083.21875,P12,D03,1,1,1
2448,-0.02,1645109083.234375,P12,D03,1,1,1
2449,-0.16,1645109083.25,P12,D03,1,1,1
2450,-0.32,1645109083.265625,P12,D03,1,1,1
2451,-0.47,1645109083.28125,P12,D03,1,1,1
2452,-0.58,1645109083.296875,P12,D03,1,1,1
2453,-0.64,1645109083.3125,P12,D03,1,1,1
2454,-0.62,1645109083.328125,P12,D03,1,1,1
2455,-0.53,1645109083.34375,P12,D03,1,1,1
2456,-0.4,1645109083.359375,P12,D03,1,1,1
2457,-0.25,1645109083.375,P12,D03,1,1,1
2458,-0.11,1645109083.390625,P12,D03,1,1,1
2459,0.0,1645109083.40625,P12,D03,1,1,1
2460,0.1,1645109083.421875,P12,D03,1,1,1
2461,0.18,1645109083.4375,P12,D03,1,1,1
2462,0.24,1645109083.453125,P12,D03,1,1,1
2463,0.28,1645109083.46875,P12,D03,1,1,1
2464,0.29,1645109083.484375,P12,D03,1,1,1
2465,0.28,1645109083.5,P12,D03,1,1,1
2466,0.3,1645109083.515625,P12,D03,1,1,1
2467,0.36,1645109083.53125,P12,D03,1,1,1
2468,0.43,1645109083.546875,P12,D03,1,1,1
2469,0.44,1645109083.5625,P12,D03,1,1,1
2470,0.37,1645109083.578125,P12,D03,1,1,1
2471,0.21,1645109083.59375,P12,D03,1,1,1
2472,0.03,1645109083.609375,P12,D03,1,1,1
2473,-0.06,1645109083.625,P12,D03,1,1,1
2474,-0.01,1645109083.640625,P12,D03,1,1,1
2475,0.15,1645109083.65625,P12,D03,1,1,1
2476,0.29,1645109083.671875,P12,D03,1,1,1
2477,0.31,1645109083.6875,P12,D03,1,1,1
2478,0.14,1645109083.703125,P12,D03,1,1,1
2479,-0.14,1645109083.71875,P12,D03,1,1,1
2480,-0.39,1645109083.734375,P12,D03,1,1,1
2481,-0.44,1645109083.75,P12,D03,1,1,1
2482,-0.24,1645109083.765625,P12,D03,1,1,1
2483,0.13,1645109083.78125,P12,D03,1,1,1
2484,0.5,1645109083.796875,P12,D03,1,1,1
2485,0.69,1645109083.8125,P12,D03,1,1,1
2486,0.6,1645109083.828125,P12,D03,1,1,1
2487,0.29,1645109083.84375,P12,D03,1,1,1
2488,-0.08,1645109083.859375,P12,D03,1,1,1
2489,-0.33,1645109083.875,P12,D03,1,1,1
2490,-0.35,1645109083.890625,P12,D03,1,1,1
2491,-0.14,1645109083.90625,P12,D03,1,1,1
2492,0.18,1645109083.921875,P12,D03,1,1,1
2493,0.45,1645109083.9375,P12,D03,1,1,1
2494,0.57,1645109083.953125,P12,D03,1,1,1
2495,0.51,1645109083.96875,P12,D03,1,1,1
2496,0.32,1645109083.984375,P12,D03,1,1,1
2497,0.14,1645109084.0,P12,D03,1,1,1
2498,0.08,1645109084.015625,P12,D03,1,1,1
2499,0.2,1645109084.03125,P12,D03,1,1,1
2500,0.45,1645109084.046875,P12,D03,1,1,1
2501,0.75,1645109084.0625,P12,D03,1,1,1
2502,0.96,1645109084.078125,P12,D03,1,1,1
2503,1.02,1645109084.09375,P12,D03,1,1,1
2504,0.92,1645109084.109375,P12,D03,1,1,1
2505,0.76,1645109084.125,P12,D03,1,1,1
2506,0.64,1645109084.140625,P12,D03,1,1,1
2507,0.61,1645109084.15625,P12,D03,1,1,1
2508,0.65,1645109084.171875,P12,D03,1,1,1
2509,0.68,1645109084.1875,P12,D03,1,1,1
2510,0.61,1645109084.203125,P12,D03,1,1,1
2511,0.41,1645109084.21875,P12,D03,1,1,1
2512,0.14,1645109084.234375,P12,D03,1,1,1
2513,-0.14,1645109084.25,P12,D03,1,1,1
2514,-0.39,1645109084.265625,P12,D03,1,1,1
2515,-0.63,1645109084.28125,P12,D03,1,1,1
2516,-0.87,1645109084.296875,P12,D03,1,1,1
2517,-1.12,1645109084.3125,P12,D03,1,1,1
2518,-1.33,1645109084.328125,P12,D03,1,1,1
2519,-1.39,1645109084.34375,P12,D03,1,1,1
2520,-1.25,1645109084.359375,P12,D03,1,1,1
2521,-0.96,1645109084.375,P12,D03,1,1,1
2522,-0.61,1645109084.390625,P12,D03,1,1,1
2523,-0.35,1645109084.40625,P12,D03,1,1,1
2524,-0.27,1645109084.421875,P12,D03,1,1,1
2525,-0.33,1645109084.4375,P12,D03,1,1,1
2526,-0.45,1645109084.453125,P12,D03,1,1,1
2527,-0.49,1645109084.46875,P12,D03,1,1,1
2528,-0.41,1645109084.484375,P12,D03,1,1,1
2529,-0.24,1645109084.5,P12,D03,1,1,1
2530,-0.11,1645109084.515625,P12,D03,1,1,1
2531,-0.09,1645109084.53125,P12,D03,1,1,1
2532,-0.22,1645109084.546875,P12,D03,1,1,1
2533,-0.43,1645109084.5625,P12,D03,1,1,1
2534,-0.6,1645109084.578125,P12,D03,1,1,1
2535,-0.59,1645109084.59375,P12,D03,1,1,1
2536,-0.37,1645109084.609375,P12,D03,1,1,1
2537,0.04,1645109084.625,P12,D03,1,1,1
2538,0.5,1645109084.640625,P12,D03,1,1,1
2539,0.85,1645109084.65625,P12,D03,1,1,1
2540,0.97,1645109084.671875,P12,D03,1,1,1
2541,0.83,1645109084.6875,P12,D03,1,1,1
2542,0.48,1645109084.703125,P12,D03,1,1,1
2543,0.05,1645109084.71875,P12,D03,1,1,1
2544,-0.33,1645109084.734375,P12,D03,1,1,1
2545,-0.57,1645109084.75,P12,D03,1,1,1
2546,-0.61,1645109084.765625,P12,D03,1,1,1
2547,-0.49,1645109084.78125,P12,D03,1,1,1
2548,-0.31,1645109084.796875,P12,D03,1,1,1
2549,-0.16,1645109084.8125,P12,D03,1,1,1
2550,-0.11,1645109084.828125,P12,D03,1,1,1
2551,-0.17,1645109084.84375,P12,D03,1,1,1
2552,-0.24,1645109084.859375,P12,D03,1,1,1
2553,-0.22,1645109084.875,P12,D03,1,1,1
2554,-0.05,1645109084.890625,P12,D03,1,1,1
2555,0.25,1645109084.90625,P12,D03,1,1,1
2556,0.54,1645109084.921875,P12,D03,1,1,1
2557,0.72,1645109084.9375,P12,D03,1,1,1
2558,0.69,1645109084.953125,P12,D03,1,1,1
2559,0.48,1645109084.96875,P12,D03,1,1,1
2560,0.21,1645109084.984375,P12,D03,1,1,1
2561,-0.02,1645109085.0,P12,D03,1,1,1
2562,-0.14,1645109085.015625,P12,D03,1,1,1
2563,-0.19,1645109085.03125,P12,D03,1,1,1
2564,-0.23,1645109085.046875,P12,D03,1,1,1
2565,-0.29,1645109085.0625,P12,D03,1,1,1
2566,-0.35,1645109085.078125,P12,D03,1,1,1
2567,-0.31,1645109085.09375,P12,D03,1,1,1
2568,-0.11,1645109085.109375,P12,D03,1,1,1
2569,0.22,1645109085.125,P12,D03,1,1,1
2570,0.61,1645109085.140625,P12,D03,1,1,1
2571,0.93,1645109085.15625,P12,D03,1,1,1
2572,1.09,1645109085.171875,P12,D03,1,1,1
2573,1.09,1645109085.1875,P12,D03,1,1,1
2574,0.95,1645109085.203125,P12,D03,1,1,1
2575,0.71,1645109085.21875,P12,D03,1,1,1
2576,0.38,1645109085.234375,P12,D03,1,1,1
2577,-0.03,1645109085.25,P12,D03,1,1,1
2578,-0.5,1645109085.265625,P12,D03,1,1,1
2579,-0.95,1645109085.28125,P12,D03,1,1,1
2580,-1.25,1645109085.296875,P12,D03,1,1,1
2581,-1.26,1645109085.3125,P12,D03,1,1,1
2582,-0.95,1645109085.328125,P12,D03,1,1,1
2583,-0.41,1645109085.34375,P12,D03,1,1,1
2584,0.16,1645109085.359375,P12,D03,1,1,1
2585,0.54,1645109085.375,P12,D03,1,1,1
2586,0.59,1645109085.390625,P12,D03,1,1,1
2587,0.34,1645109085.40625,P12,D03,1,1,1
2588,-0.04,1645109085.421875,P12,D03,1,1,1
2589,-0.36,1645109085.4375,P12,D03,1,1,1
2590,-0.46,1645109085.453125,P12,D03,1,1,1
2591,-0.34,1645109085.46875,P12,D03,1,1,1
2592,-0.09,1645109085.484375,P12,D03,1,1,1
2593,0.17,1645109085.5,P12,D03,1,1,1
2594,0.33,1645109085.515625,P12,D03,1,1,1
2595,0.4,1645109085.53125,P12,D03,1,1,1
2596,0.38,1645109085.546875,P12,D03,1,1,1
2597,0.31,1645109085.5625,P12,D03,1,1,1
2598,0.16,1645109085.578125,P12,D03,1,1,1
2599,-0.09,1645109085.59375,P12,D03,1,1,1
2600,-0.45,1645109085.609375,P12,D03,1,1,1
2601,-0.85,1645109085.625,P12,D03,1,1,1
2602,-1.15,1645109085.640625,P12,D03,1,1,1
2603,-1.21,1645109085.65625,P12,D03,1,1,1
2604,-0.98,1645109085.671875,P12,D03,1,1,1
2605,-0.52,1645109085.6875,P12,D03,1,1,1
2606,0.02,1645109085.703125,P12,D03,1,1,1
2607,0.45,1645109085.71875,P12,D03,1,1,1
2608,0.69,1645109085.734375,P12,D03,1,1,1
2609,0.73,1645109085.75,P12,D03,1,1,1
2610,0.65,1645109085.765625,P12,D03,1,1,1
2611,0.53,1645109085.78125,P12,D03,1,1,1
2612,0.44,1645109085.796875,P12,D03,1,1,1
2613,0.41,1645109085.8125,P12,D03,1,1,1
2614,0.42,1645109085.828125,P12,D03,1,1,1
2615,0.43,1645109085.84375,P12,D03,1,1,1
2616,0.41,1645109085.859375,P12,D03,1,1,1
2617,0.36,1645109085.875,P12,D03,1,1,1
2618,0.27,1645109085.890625,P12,D03,1,1,1
2619,0.17,1645109085.90625,P12,D03,1,1,1
2620,0.08,1645109085.921875,P12,D03,1,1,1
2621,-0.03,1645109085.9375,P12,D03,1,1,1
2622,-0.17,1645109085.953125,P12,D03,1,1,1
2623,-0.35,1645109085.96875,P12,D03,1,1,1
2624,-0.54,1645109085.984375,P12,D03,1,1,1
2625,-0.67,1645109086.0,P12,D03,1,1,1
2626,-0.66,1645109086.015625,P12,D03,1,1,1
2627,-0.48,1645109086.03125,P12,D03,1,1,1
2628,-0.19,1645109086.046875,P12,D03,1,1,1
2629,0.1,1645109086.0625,P12,D03,1,1,1
2630,0.23,1645109086.078125,P12,D03,1,1,1
2631,0.16,1645109086.09375,P12,D03,1,1,1
2632,-0.08,1645109086.109375,P12,D03,1,1,1
2633,-0.34,1645109086.125,P12,D03,1,1,1
2634,-0.47,1645109086.140625,P12,D03,1,1,1
2635,-0.43,1645109086.15625,P12,D03,1,1,1
2636,-0.25,1645109086.171875,P12,D03,1,1,1
2637,-0.06,1645109086.1875,P12,D03,1,1,1
2638,0.02,1645109086.203125,P12,D03,1,1,1
2639,-0.04,1645109086.21875,P12,D03,1,1,1
2640,-0.2,1645109086.234375,P12,D03,1,1,1
2641,-0.34,1645109086.25,P12,D03,1,1,1
2642,-0.37,1645109086.265625,P12,D03,1,1,1
2643,-0.27,1645109086.28125,P12,D03,1,1,1
2644,-0.04,1645109086.296875,P12,D03,1,1,1
2645,0.25,1645109086.3125,P12,D03,1,1,1
2646,0.55,1645109086.328125,P12,D03,1,1,1
2647,0.8,1645109086.34375,P12,D03,1,1,1
2648,0.97,1645109086.359375,P12,D03,1,1,1
2649,1.06,1645109086.375,P12,D03,1,1,1
2650,1.03,1645109086.390625,P12,D03,1,1,1
2651,0.9,1645109086.40625,P12,D03,1,1,1
2652,0.7,1645109086.421875,P12,D03,1,1,1
2653,0.49,1645109086.4375,P12,D03,1,1,1
2654,0.31,1645109086.453125,P12,D03,1,1,1
2655,0.21,1645109086.46875,P12,D03,1,1,1
2656,0.2,1645109086.484375,P12,D03,1,1,1
2657,0.24,1645109086.5,P12,D03,1,1,1
2658,0.31,1645109086.515625,P12,D03,1,1,1
2659,0.38,1645109086.53125,P12,D03,1,1,1
2660,0.43,1645109086.546875,P12,D03,1,1,1
2661,0.47,1645109086.5625,P12,D03,1,1,1
2662,0.5,1645109086.578125,P12,D03,1,1,1
2663,0.5,1645109086.59375,P12,D03,1,1,1
2664,0.45,1645109086.609375,P12,D03,1,1,1
2665,0.33,1645109086.625,P12,D03,1,1,1
2666,0.12,1645109086.640625,P12,D03,1,1,1
2667,-0.14,1645109086.65625,P12,D03,1,1,1
2668,-0.42,1645109086.671875,P12,D03,1,1,1
2669,-0.68,1645109086.6875,P12,D03,1,1,1
2670,-0.89,1645109086.703125,P12,D03,1,1,1
2671,-1.03,1645109086.71875,P12,D03,1,1,1
2672,-1.12,1645109086.734375,P12,D03,1,1,1
2673,-1.16,1645109086.75,P12,D03,1,1,1
2674,-1.15,1645109086.765625,P12,D03,1,1,1
2675,-1.1,1645109086.78125,P12,D03,1,1,1
2676,-0.98,1645109086.796875,P12,D03,1,1,1
2677,-0.81,1645109086.8125,P12,D03,1,1,1
2678,-0.62,1645109086.828125,P12,D03,1,1,1
2679,-0.45,1645109086.84375,P12,D03,1,1,1
2680,-0.34,1645109086.859375,P12,D03,1,1,1
2681,-0.26,1645109086.875,P12,D03,1,1,1
2682,-0.16,1645109086.890625,P12,D03,1,1,1
2683,0.0,1645109086.90625,P12,D03,1,1,1
2684,0.24,1645109086.921875,P12,D03,1,1,1
2685,0.49,1645109086.9375,P12,D03,1,1,1
2686,0.65,1645109086.953125,P12,D03,1,1,1
2687,0.63,1645109086.96875,P12,D03,1,1,1
2688,0.42,1645109086.984375,P12,D03,1,1,1
2689,0.09,1645109087.0,P12,D03,1,1,1
2690,-0.25,1645109087.015625,P12,D03,1,1,1
2691,-0.46,1645109087.03125,P12,D03,1,1,1
2692,-0.5,1645109087.046875,P12,D03,1,1,1
2693,-0.37,1645109087.0625,P12,D03,1,1,1
2694,-0.16,1645109087.078125,P12,D03,1,1,1
2695,0.07,1645109087.09375,P12,D03,1,1,1
2696,0.25,1645109087.109375,P12,D03,1,1,1
2697,0.36,1645109087.125,P12,D03,1,1,1
2698,0.4,1645109087.140625,P12,D03,1,1,1
2699,0.38,1645109087.15625,P12,D03,1,1,1
2700,0.31,1645109087.171875,P12,D03,1,1,1
2701,0.2,1645109087.1875,P12,D03,1,1,1
2702,0.03,1645109087.203125,P12,D03,1,1,1
2703,-0.15,1645109087.21875,P12,D03,1,1,1
2704,-0.31,1645109087.234375,P12,D03,1,1,1
2705,-0.4,1645109087.25,P12,D03,1,1,1
2706,-0.38,1645109087.265625,P12,D03,1,1,1
2707,-0.24,1645109087.28125,P12,D03,1,1,1
2708,0.01,1645109087.296875,P12,D03,1,1,1
2709,0.3,1645109087.3125,P12,D03,1,1,1
2710,0.56,1645109087.328125,P12,D03,1,1,1
2711,0.72,1645109087.34375,P12,D03,1,1,1
2712,0.74,1645109087.359375,P12,D03,1,1,1
2713,0.65,1645109087.375,P12,D03,1,1,1
2714,0.5,1645109087.390625,P12,D03,1,1,1
2715,0.35,1645109087.40625,P12,D03,1,1,1
2716,0.28,1645109087.421875,P12,D03,1,1,1
2717,0.31,1645109087.4375,P12,D03,1,1,1
2718,0.42,1645109087.453125,P12,D03,1,1,1
2719,0.56,1645109087.46875,P12,D03,1,1,1
2720,0.62,1645109087.484375,P12,D03,1,1,1
2721,0.55,1645109087.5,P12,D03,1,1,1
2722,0.33,1645109087.515625,P12,D03,1,1,1
2723,-0.01,1645109087.53125,P12,D03,1,1,1
2724,-0.35,1645109087.546875,P12,D03,1,1,1
2725,-0.59,1645109087.5625,P12,D03,1,1,1
2726,-0.65,1645109087.578125,P12,D03,1,1,1
2727,-0.53,1645109087.59375,P12,D03,1,1,1
2728,-0.31,1645109087.609375,P12,D03,1,1,1
2729,-0.08,1645109087.625,P12,D03,1,1,1
2730,0.09,1645109087.640625,P12,D03,1,1,1
2731,0.19,1645109087.65625,P12,D03,1,1,1
2732,0.26,1645109087.671875,P12,D03,1,1,1
2733,0.34,1645109087.6875,P12,D03,1,1,1
2734,0.39,1645109087.703125,P12,D03,1,1,1
2735,0.38,1645109087.71875,P12,D03,1,1,1
2736,0.25,1645109087.734375,P12,D03,1,1,1
2737,-0.0,1645109087.75,P12,D03,1,1,1
2738,-0.3,1645109087.765625,P12,D03,1,1,1
2739,-0.53,1645109087.78125,P12,D03,1,1,1
2740,-0.6,1645109087.796875,P12,D03,1,1,1
2741,-0.5,1645109087.8125,P12,D03,1,1,1
2742,-0.31,1645109087.828125,P12,D03,1,1,1
2743,-0.17,1645109087.84375,P12,D03,1,1,1
2744,-0.16,1645109087.859375,P12,D03,1,1,1
2745,-0.29,1645109087.875,P12,D03,1,1,1
2746,-0.47,1645109087.890625,P12,D03,1,1,1
2747,-0.56,1645109087.90625,P12,D03,1,1,1
2748,-0.45,1645109087.921875,P12,D03,1,1,1
2749,-0.13,1645109087.9375,P12,D03,1,1,1
2750,0.33,1645109087.953125,P12,D03,1,1,1
2751,0.82,1645109087.96875,P12,D03,1,1,1
2752,1.21,1645109087.984375,P12,D03,1,1,1
2753,1.4,1645109088.0,P12,D03,1,1,1
2754,1.39,1645109088.015625,P12,D03,1,1,1
2755,1.22,1645109088.03125,P12,D03,1,1,1
2756,0.95,1645109088.046875,P12,D03,1,1,1
2757,0.63,1645109088.0625,P12,D03,1,1,1
2758,0.29,1645109088.078125,P12,D03,1,1,1
2759,-0.08,1645109088.09375,P12,D03,1,1,1
2760,-0.46,1645109088.109375,P12,D03,1,1,1
2761,-0.83,1645109088.125,P12,D03,1,1,1
2762,-1.11,1645109088.140625,P12,D03,1,1,1
2763,-1.21,1645109088.15625,P12,D03,1,1,1
2764,-1.08,1645109088.171875,P12,D03,1,1,1
2765,-0.74,1645109088.1875,P12,D03,1,1,1
2766,-0.33,1645109088.203125,P12,D03,1,1,1
2767,0.01,1645109088.21875,P12,D03,1,1,1
2768,0.16,1645109088.234375,P12,D03,1,1,1
2769,0.09,1645109088.25,P12,D03,1,1,1
2770,-0.12,1645109088.265625,P12,D03,1,1,1
2771,-0.32,1645109088.28125,P12,D03,1,1,1
2772,-0.42,1645109088.296875,P12,D03,1,1,1
2773,-0.4,1645109088.3125,P12,D03,1,1,1
2774,-0.3,1645109088.328125,P12,D03,1,1,1
2775,-0.23,1645109088.34375,P12,D03,1,1,1
2776,-0.24,1645109088.359375,P12,D03,1,1,1
2777,-0.32,1645109088.375,P12,D03,1,1,1
2778,-0.44,1645109088.390625,P12,D03,1,1,1
2779,-0.56,1645109088.40625,P12,D03,1,1,1
2780,-0.67,1645109088.421875,P12,D03,1,1,1
2781,-0.75,1645109088.4375,P12,D03,1,1,1
2782,-0.8,1645109088.453125,P12,D03,1,1,1
2783,-0.78,1645109088.46875,P12,D03,1,1,1
2784,-0.66,1645109088.484375,P12,D03,1,1,1
2785,-0.45,1645109088.5,P12,D03,1,1,1
2786,-0.17,1645109088.515625,P12,D03,1,1,1
2787,0.07,1645109088.53125,P12,D03,1,1,1
2788,0.22,1645109088.546875,P12,D03,1,1,1
2789,0.24,1645109088.5625,P12,D03,1,1,1
2790,0.19,1645109088.578125,P12,D03,1,1,1
2791,0.13,1645109088.59375,P12,D03,1,1,1
2792,0.1,1645109088.609375,P12,D03,1,1,1
2793,0.09,1645109088.625,P12,D03,1,1,1
2794,0.09,1645109088.640625,P12,D03,1,1,1
2795,0.02,1645109088.65625,P12,D03,1,1,1
2796,-0.09,1645109088.671875,P12,D03,1,1,1
2797,-0.19,1645109088.6875,P12,D03,1,1,1
2798,-0.23,1645109088.703125,P12,D03,1,1,1
2799,-0.18,1645109088.71875,P12,D03,1,1,1
2800,-0.06,1645109088.734375,P12,D03,1,1,1
2801,0.07,1645109088.75,P12,D03,1,1,1
2802,0.15,1645109088.765625,P12,D03,1,1,1
2803,0.18,1645109088.78125,P12,D03,1,1,1
2804,0.22,1645109088.796875,P12,D03,1,1,1
2805,0.34,1645109088.8125,P12,D03,1,1,1
2806,0.55,1645109088.828125,P12,D03,1,1,1
2807,0.79,1645109088.84375,P12,D03,1,1,1
2808,0.97,1645109088.859375,P12,D03,1,1,1
2809,1.02,1645109088.875,P12,D03,1,1,1
2810,0.92,1645109088.890625,P12,D03,1,1,1
2811,0.72,1645109088.90625,P12,D03,1,1,1
2812,0.52,1645109088.921875,P12,D03,1,1,1
2813,0.42,1645109088.9375,P12,D03,1,1,1
2814,0.43,1645109088.953125,P12,D03,1,1,1
2815,0.56,1645109088.96875,P12,D03,1,1,1
2816,0.75,1645109088.984375,P12,D03,1,1,1
2817,0.96,1645109089.0,P12,D03,1,1,1
2818,1.13,1645109089.015625,P12,D03,1,1,1
2819,1.17,1645109089.03125,P12,D03,1,1,1
2820,1.06,1645109089.046875,P12,D03,1,1,1
2821,0.76,1645109089.0625,P12,D03,1,1,1
2822,0.35,1645109089.078125,P12,D03,1,1,1
2823,-0.11,1645109089.09375,P12,D03,1,1,1
2824,-0.49,1645109089.109375,P12,D03,1,1,1
2825,-0.74,1645109089.125,P12,D03,1,1,1
2826,-0.87,1645109089.140625,P12,D03,1,1,1
2827,-0.91,1645109089.15625,P12,D03,1,1,1
2828,-0.91,1645109089.171875,P12,D03,1,1,1
2829,-0.89,1645109089.1875,P12,D03,1,1,1
2830,-0.81,1645109089.203125,P12,D03,1,1,1
2831,-0.63,1645109089.21875,P12,D03,1,1,1
2832,-0.36,1645109089.234375,P12,D03,1,1,1
2833,-0.03,1645109089.25,P12,D03,1,1,1
2834,0.25,1645109089.265625,P12,D03,1,1,1
2835,0.37,1645109089.28125,P12,D03,1,1,1
2836,0.31,1645109089.296875,P12,D03,1,1,1
2837,0.1,1645109089.3125,P12,D03,1,1,1
2838,-0.17,1645109089.328125,P12,D03,1,1,1
2839,-0.41,1645109089.34375,P12,D03,1,1,1
2840,-0.55,1645109089.359375,P12,D03,1,1,1
2841,-0.6,1645109089.375,P12,D03,1,1,1
2842,-0.58,1645109089.390625,P12,D03,1,1,1
2843,-0.49,1645109089.40625,P12,D03,1,1,1
2844,-0.37,1645109089.421875,P12,D03,1,1,1
2845,-0.24,1645109089.4375,P12,D03,1,1,1
2846,-0.16,1645109089.453125,P12,D03,1,1,1
2847,-0.19,1645109089.46875,P12,D03,1,1,1
2848,-0.38,1645109089.484375,P12,D03,1,1,1
2849,-0.69,1645109089.5,P12,D03,1,1,1
2850,-1.03,1645109089.515625,P12,D03,1,1,1
2851,-1.26,1645109089.53125,P12,D03,1,1,1
2852,-1.3,1645109089.546875,P12,D03,1,1,1
2853,-1.12,1645109089.5625,P12,D03,1,1,1
2854,-0.78,1645109089.578125,P12,D03,1,1,1
2855,-0.39,1645109089.59375,P12,D03,1,1,1
2856,-0.02,1645109089.609375,P12,D03,1,1,1
2857,0.31,1645109089.625,P12,D03,1,1,1
2858,0.6,1645109089.640625,P12,D03,1,1,1
2859,0.87,1645109089.65625,P12,D03,1,1,1
2860,1.09,1645109089.671875,P12,D03,1,1,1
2861,1.21,1645109089.6875,P12,D03,1,1,1
2862,1.17,1645109089.703125,P12,D03,1,1,1
2863,0.99,1645109089.71875,P12,D03,1,1,1
2864,0.72,1645109089.734375,P12,D03,1,1,1
2865,0.47,1645109089.75,P12,D03,1,1,1
2866,0.34,1645109089.765625,P12,D03,1,1,1
2867,0.36,1645109089.78125,P12,D03,1,1,1
2868,0.5,1645109089.796875,P12,D03,1,1,1
2869,0.66,1645109089.8125,P12,D03,1,1,1
2870,0.74,1645109089.828125,P12,D03,1,1,1
2871,0.68,1645109089.84375,P12,D03,1,1,1
2872,0.51,1645109089.859375,P12,D03,1,1,1
2873,0.32,1645109089.875,P12,D03,1,1,1
2874,0.19,1645109089.890625,P12,D03,1,1,1
2875,0.15,1645109089.90625,P12,D03,1,1,1
2876,0.2,1645109089.921875,P12,D03,1,1,1
2877,0.25,1645109089.9375,P12,D03,1,1,1
2878,0.26,1645109089.953125,P12,D03,1,1,1
2879,0.19,1645109089.96875,P12,D03,1,1,1
2880,0.06,1645109089.984375,P12,D03,1,1,1
2881,-0.1,1645109090.0,P12,D03,1,1,1
2882,-0.26,1645109090.015625,P12,D03,1,1,1
2883,-0.39,1645109090.03125,P12,D03,1,1,1
2884,-0.5,1645109090.046875,P12,D03,1,1,1
2885,-0.59,1645109090.0625,P12,D03,1,1,1
2886,-0.66,1645109090.078125,P12,D03,1,1,1
2887,-0.73,1645109090.09375,P12,D03,1,1,1
2888,-0.79,1645109090.109375,P12,D03,1,1,1
2889,-0.82,1645109090.125,P12,D03,1,1,1
2890,-0.81,1645109090.140625,P12,D03,1,1,1
2891,-0.75,1645109090.15625,P12,D03,1,1,1
2892,-0.62,1645109090.171875,P12,D03,1,1,1
2893,-0.44,1645109090.1875,P12,D03,1,1,1
2894,-0.28,1645109090.203125,P12,D03,1,1,1
2895,-0.15,1645109090.21875,P12,D03,1,1,1
2896,-0.09,1645109090.234375,P12,D03,1,1,1
2897,-0.05,1645109090.25,P12,D03,1,1,1
2898,0.02,1645109090.265625,P12,D03,1,1,1
2899,0.11,1645109090.28125,P12,D03,1,1,1
2900,0.22,1645109090.296875,P12,D03,1,1,1
2901,0.28,1645109090.3125,P12,D03,1,1,1
2902,0.28,1645109090.328125,P12,D03,1,1,1
2903,0.26,1645109090.34375,P12,D03,1,1,1
2904,0.31,1645109090.359375,P12,D03,1,1,1
2905,0.48,1645109090.375,P12,D03,1,1,1
2906,0.76,1645109090.390625,P12,D03,1,1,1
2907,1.08,1645109090.40625,P12,D03,1,1,1
2908,1.28,1645109090.421875,P12,D03,1,1,1
2909,1.26,1645109090.4375,P12,D03,1,1,1
2910,0.99,1645109090.453125,P12,D03,1,1,1
2911,0.53,1645109090.46875,P12,D03,1,1,1
2912,0.02,1645109090.484375,P12,D03,1,1,1
2913,-0.43,1645109090.5,P12,D03,1,1,1
2914,-0.72,1645109090.515625,P12,D03,1,1,1
2915,-0.83,1645109090.53125,P12,D03,1,1,1
