,data,timestamp,participant,document,val,arou,eng
0,-0.54,1645110579.65625,P12,D07,0,0,1
1,-1.18,1645110579.671875,P12,D07,0,0,1
2,-1.72,1645110579.6875,P12,D07,0,0,1
3,-1.97,1645110579.703125,P12,D07,0,0,1
4,-1.87,1645110579.71875,P12,D07,0,0,1
5,-1.48,1645110579.734375,P12,D07,0,0,1
6,-0.99,1645110579.75,P12,D07,0,0,1
7,-0.56,1645110579.765625,P12,D07,0,0,1
8,-0.28,1645110579.78125,P12,D07,0,0,1
9,-0.15,1645110579.796875,P12,D07,0,0,1
10,-0.14,1645110579.8125,P12,D07,0,0,1
11,-0.19,1645110579.828125,P12,D07,0,0,1
12,-0.27,1645110579.84375,P12,D07,0,0,1
13,-0.34,1645110579.859375,P12,D07,0,0,1
14,-0.35,1645110579.875,P12,D07,0,0,1
15,-0.25,1645110579.890625,P12,D07,0,0,1
16,-0.02,1645110579.90625,P12,D07,0,0,1
17,0.26,1645110579.921875,P12,D07,0,0,1
18,0.5,1645110579.9375,P12,D07,0,0,1
19,0.59,1645110579.953125,P12,D07,0,0,1
20,0.53,1645110579.96875,P12,D07,0,0,1
21,0.36,1645110579.984375,P12,D07,0,0,1
22,0.19,1645110580.0,P12,D07,0,0,1
23,0.05,1645110580.015625,P12,D07,0,0,1
24,-0.06,1645110580.03125,P12,D07,0,0,1
25,-0.19,1645110580.046875,P12,D07,0,0,1
26,-0.34,1645110580.0625,P12,D07,0,0,1
27,-0.45,1645110580.078125,P12,D07,0,0,1
28,-0.41,1645110580.09375,P12,D07,0,0,1
29,-0.17,1645110580.109375,P12,D07,0,0,1
30,0.26,1645110580.125,P12,D07,0,0,1
31,0.74,1645110580.140625,P12,D07,0,0,1
32,1.11,1645110580.15625,P12,D07,0,0,1
33,1.26,1645110580.171875,P12,D07,0,0,1
34,1.15,1645110580.1875,P12,D07,0,0,1
35,0.84,1645110580.203125,P12,D07,0,0,1
36,0.42,1645110580.21875,P12,D07,0,0,1
37,0.01,1645110580.234375,P12,D07,0,0,1
38,-0.32,1645110580.25,P12,D07,0,0,1
39,-0.51,1645110580.265625,P12,D07,0,0,1
40,-0.53,1645110580.28125,P12,D07,0,0,1
41,-0.4,1645110580.296875,P12,D07,0,0,1
42,-0.18,1645110580.3125,P12,D07,0,0,1
43,0.09,1645110580.328125,P12,D07,0,0,1
44,0.31,1645110580.34375,P12,D07,0,0,1
45,0.45,1645110580.359375,P12,D07,0,0,1
46,0.51,1645110580.375,P12,D07,0,0,1
47,0.48,1645110580.390625,P12,D07,0,0,1
48,0.4,1645110580.40625,P12,D07,0,0,1
49,0.28,1645110580.421875,P12,D07,0,0,1
50,0.17,1645110580.4375,P12,D07,0,0,1
51,0.12,1645110580.453125,P12,D07,0,0,1
52,0.19,1645110580.46875,P12,D07,0,0,1
53,0.39,1645110580.484375,P12,D07,0,0,1
54,0.67,1645110580.5,P12,D07,0,0,1
55,0.93,1645110580.515625,P12,D07,0,0,1
56,1.04,1645110580.53125,P12,D07,0,0,1
57,0.95,1645110580.546875,P12,D07,0,0,1
58,0.7,1645110580.5625,P12,D07,0,0,1
59,0.39,1645110580.578125,P12,D07,0,0,1
60,0.16,1645110580.59375,P12,D07,0,0,1
61,0.1,1645110580.609375,P12,D07,0,0,1
62,0.23,1645110580.625,P12,D07,0,0,1
63,0.47,1645110580.640625,P12,D07,0,0,1
64,0.71,1645110580.65625,P12,D07,0,0,1
65,0.82,1645110580.671875,P12,D07,0,0,1
66,0.73,1645110580.6875,P12,D07,0,0,1
67,0.44,1645110580.703125,P12,D07,0,0,1
68,0.03,1645110580.71875,P12,D07,0,0,1
69,-0.37,1645110580.734375,P12,D07,0,0,1
70,-0.69,1645110580.75,P12,D07,0,0,1
71,-0.88,1645110580.765625,P12,D07,0,0,1
72,-0.94,1645110580.78125,P12,D07,0,0,1
73,-0.94,1645110580.796875,P12,D07,0,0,1
74,-0.93,1645110580.8125,P12,D07,0,0,1
75,-0.92,1645110580.828125,P12,D07,0,0,1
76,-0.89,1645110580.84375,P12,D07,0,0,1
77,-0.82,1645110580.859375,P12,D07,0,0,1
78,-0.73,1645110580.875,P12,D07,0,0,1
79,-0.62,1645110580.890625,P12,D07,0,0,1
80,-0.55,1645110580.90625,P12,D07,0,0,1
81,-0.52,1645110580.921875,P12,D07,0,0,1
82,-0.53,1645110580.9375,P12,D07,0,0,1
83,-0.54,1645110580.953125,P12,D07,0,0,1
84,-0.53,1645110580.96875,P12,D07,0,0,1
85,-0.49,1645110580.984375,P12,D07,0,0,1
86,-0.44,1645110581.0,P12,D07,0,0,1
87,-0.44,1645110581.015625,P12,D07,0,0,1
88,-0.46,1645110581.03125,P12,D07,0,0,1
89,-0.51,1645110581.046875,P12,D07,0,0,1
90,-0.53,1645110581.0625,P12,D07,0,0,1
91,-0.5,1645110581.078125,P12,D07,0,0,1
92,-0.38,1645110581.09375,P12,D07,0,0,1
93,-0.2,1645110581.109375,P12,D07,0,0,1
94,0.03,1645110581.125,P12,D07,0,0,1
95,0.26,1645110581.140625,P12,D07,0,0,1
96,0.45,1645110581.15625,P12,D07,0,0,1
97,0.56,1645110581.171875,P12,D07,0,0,1
98,0.57,1645110581.1875,P12,D07,0,0,1
99,0.5,1645110581.203125,P12,D07,0,0,1
100,0.39,1645110581.21875,P12,D07,0,0,1
101,0.26,1645110581.234375,P12,D07,0,0,1
102,0.16,1645110581.25,P12,D07,0,0,1
103,0.08,1645110581.265625,P12,D07,0,0,1
104,0.02,1645110581.28125,P12,D07,0,0,1
105,-0.04,1645110581.296875,P12,D07,0,0,1
106,-0.09,1645110581.3125,P12,D07,0,0,1
107,-0.11,1645110581.328125,P12,D07,0,0,1
108,-0.09,1645110581.34375,P12,D07,0,0,1
109,-0.02,1645110581.359375,P12,D07,0,0,1
110,0.07,1645110581.375,P12,D07,0,0,1
111,0.16,1645110581.390625,P12,D07,0,0,1
112,0.22,1645110581.40625,P12,D07,0,0,1
113,0.23,1645110581.421875,P12,D07,0,0,1
114,0.19,1645110581.4375,P12,D07,0,0,1
115,0.15,1645110581.453125,P12,D07,0,0,1
116,0.13,1645110581.46875,P12,D07,0,0,1
117,0.19,1645110581.484375,P12,D07,0,0,1
118,0.33,1645110581.5,P12,D07,0,0,1
119,0.54,1645110581.515625,P12,D07,0,0,1
120,0.75,1645110581.53125,P12,D07,0,0,1
121,0.91,1645110581.546875,P12,D07,0,0,1
122,0.95,1645110581.5625,P12,D07,0,0,1
123,0.87,1645110581.578125,P12,D07,0,0,1
124,0.71,1645110581.59375,P12,D07,0,0,1
125,0.53,1645110581.609375,P12,D07,0,0,1
126,0.35,1645110581.625,P12,D07,0,0,1
127,0.17,1645110581.640625,P12,D07,0,0,1
128,-0.02,1645110581.65625,P12,D07,0,0,1
129,-0.21,1645110581.671875,P12,D07,0,0,1
130,-0.35,1645110581.6875,P12,D07,0,0,1
131,-0.34,1645110581.703125,P12,D07,0,0,1
132,-0.14,1645110581.71875,P12,D07,0,0,1
133,0.23,1645110581.734375,P12,D07,0,0,1
134,0.65,1645110581.75,P12,D07,0,0,1
135,0.97,1645110581.765625,P12,D07,0,0,1
136,1.08,1645110581.78125,P12,D07,0,0,1
137,0.95,1645110581.796875,P12,D07,0,0,1
138,0.66,1645110581.8125,P12,D07,0,0,1
139,0.33,1645110581.828125,P12,D07,0,0,1
140,0.07,1645110581.84375,P12,D07,0,0,1
141,-0.08,1645110581.859375,P12,D07,0,0,1
142,-0.16,1645110581.875,P12,D07,0,0,1
143,-0.23,1645110581.890625,P12,D07,0,0,1
144,-0.33,1645110581.90625,P12,D07,0,0,1
145,-0.51,1645110581.921875,P12,D07,0,0,1
146,-0.77,1645110581.9375,P12,D07,0,0,1
147,-1.07,1645110581.953125,P12,D07,0,0,1
148,-1.37,1645110581.96875,P12,D07,0,0,1
149,-1.61,1645110581.984375,P12,D07,0,0,1
150,-1.76,1645110582.0,P12,D07,0,0,1
151,-1.82,1645110582.015625,P12,D07,0,0,1
152,-1.78,1645110582.03125,P12,D07,0,0,1
153,-1.65,1645110582.046875,P12,D07,0,0,1
154,-1.41,1645110582.0625,P12,D07,0,0,1
155,-1.05,1645110582.078125,P12,D07,0,0,1
156,-0.59,1645110582.09375,P12,D07,0,0,1
157,-0.1,1645110582.109375,P12,D07,0,0,1
158,0.33,1645110582.125,P12,D07,0,0,1
159,0.6,1645110582.140625,P12,D07,0,0,1
160,0.68,1645110582.15625,P12,D07,0,0,1
161,0.63,1645110582.171875,P12,D07,0,0,1
162,0.53,1645110582.1875,P12,D07,0,0,1
163,0.49,1645110582.203125,P12,D07,0,0,1
164,0.53,1645110582.21875,P12,D07,0,0,1
165,0.61,1645110582.234375,P12,D07,0,0,1
166,0.65,1645110582.25,P12,D07,0,0,1
167,0.63,1645110582.265625,P12,D07,0,0,1
168,0.57,1645110582.28125,P12,D07,0,0,1
169,0.6,1645110582.296875,P12,D07,0,0,1
170,0.79,1645110582.3125,P12,D07,0,0,1
171,1.1,1645110582.328125,P12,D07,0,0,1
172,1.38,1645110582.34375,P12,D07,0,0,1
173,1.48,1645110582.359375,P12,D07,0,0,1
174,1.27,1645110582.375,P12,D07,0,0,1
175,0.83,1645110582.390625,P12,D07,0,0,1
176,0.34,1645110582.40625,P12,D07,0,0,1
177,0.0,1645110582.421875,P12,D07,0,0,1
178,-0.07,1645110582.4375,P12,D07,0,0,1
179,0.06,1645110582.453125,P12,D07,0,0,1
180,0.23,1645110582.46875,P12,D07,0,0,1
181,0.28,1645110582.484375,P12,D07,0,0,1
182,0.12,1645110582.5,P12,D07,0,0,1
183,-0.18,1645110582.515625,P12,D07,0,0,1
184,-0.47,1645110582.53125,P12,D07,0,0,1
185,-0.63,1645110582.546875,P12,D07,0,0,1
186,-0.6,1645110582.5625,P12,D07,0,0,1
187,-0.46,1645110582.578125,P12,D07,0,0,1
188,-0.29,1645110582.59375,P12,D07,0,0,1
189,-0.16,1645110582.609375,P12,D07,0,0,1
190,-0.1,1645110582.625,P12,D07,0,0,1
191,-0.07,1645110582.640625,P12,D07,0,0,1
192,-0.04,1645110582.65625,P12,D07,0,0,1
193,0.02,1645110582.671875,P12,D07,0,0,1
194,0.11,1645110582.6875,P12,D07,0,0,1
195,0.22,1645110582.703125,P12,D07,0,0,1
196,0.33,1645110582.71875,P12,D07,0,0,1
197,0.44,1645110582.734375,P12,D07,0,0,1
198,0.52,1645110582.75,P12,D07,0,0,1
199,0.55,1645110582.765625,P12,D07,0,0,1
200,0.52,1645110582.78125,P12,D07,0,0,1
201,0.46,1645110582.796875,P12,D07,0,0,1
202,0.4,1645110582.8125,P12,D07,0,0,1
203,0.37,1645110582.828125,P12,D07,0,0,1
204,0.38,1645110582.84375,P12,D07,0,0,1
205,0.42,1645110582.859375,P12,D07,0,0,1
206,0.44,1645110582.875,P12,D07,0,0,1
207,0.42,1645110582.890625,P12,D07,0,0,1
208,0.31,1645110582.90625,P12,D07,0,0,1
209,0.12,1645110582.921875,P12,D07,0,0,1
210,-0.13,1645110582.9375,P12,D07,0,0,1
211,-0.4,1645110582.953125,P12,D07,0,0,1
212,-0.63,1645110582.96875,P12,D07,0,0,1
213,-0.81,1645110582.984375,P12,D07,0,0,1
214,-0.92,1645110583.0,P12,D07,0,0,1
215,-0.96,1645110583.015625,P12,D07,0,0,1
216,-0.96,1645110583.03125,P12,D07,0,0,1
217,-0.94,1645110583.046875,P12,D07,0,0,1
218,-0.94,1645110583.0625,P12,D07,0,0,1
219,-0.99,1645110583.078125,P12,D07,0,0,1
220,-1.1,1645110583.09375,P12,D07,0,0,1
221,-1.26,1645110583.109375,P12,D07,0,0,1
222,-1.45,1645110583.125,P12,D07,0,0,1
223,-1.62,1645110583.140625,P12,D07,0,0,1
224,-1.68,1645110583.15625,P12,D07,0,0,1
225,-1.54,1645110583.171875,P12,D07,0,0,1
226,-1.18,1645110583.1875,P12,D07,0,0,1
227,-0.67,1645110583.203125,P12,D07,0,0,1
228,-0.13,1645110583.21875,P12,D07,0,0,1
229,0.29,1645110583.234375,P12,D07,0,0,1
230,0.54,1645110583.25,P12,D07,0,0,1
231,0.65,1645110583.265625,P12,D07,0,0,1
232,0.71,1645110583.28125,P12,D07,0,0,1
233,0.81,1645110583.296875,P12,D07,0,0,1
234,0.97,1645110583.3125,P12,D07,0,0,1
235,1.11,1645110583.328125,P12,D07,0,0,1
236,1.13,1645110583.34375,P12,D07,0,0,1
237,0.95,1645110583.359375,P12,D07,0,0,1
238,0.6,1645110583.375,P12,D07,0,0,1
239,0.18,1645110583.390625,P12,D07,0,0,1
240,-0.15,1645110583.40625,P12,D07,0,0,1
241,-0.28,1645110583.421875,P12,D07,0,0,1
242,-0.18,1645110583.4375,P12,D07,0,0,1
243,0.1,1645110583.453125,P12,D07,0,0,1
244,0.43,1645110583.46875,P12,D07,0,0,1
245,0.71,1645110583.484375,P12,D07,0,0,1
246,0.85,1645110583.5,P12,D07,0,0,1
247,0.84,1645110583.515625,P12,D07,0,0,1
248,0.74,1645110583.53125,P12,D07,0,0,1
249,0.61,1645110583.546875,P12,D07,0,0,1
250,0.51,1645110583.5625,P12,D07,0,0,1
251,0.45,1645110583.578125,P12,D07,0,0,1
252,0.41,1645110583.59375,P12,D07,0,0,1
253,0.33,1645110583.609375,P12,D07,0,0,1
254,0.22,1645110583.625,P12,D07,0,0,1
255,0.11,1645110583.640625,P12,D07,0,0,1
256,0.06,1645110583.65625,P12,D07,0,0,1
257,0.11,1645110583.671875,P12,D07,0,0,1
258,0.24,1645110583.6875,P12,D07,0,0,1
259,0.42,1645110583.703125,P12,D07,0,0,1
260,0.56,1645110583.71875,P12,D07,0,0,1
261,0.64,1645110583.734375,P12,D07,0,0,1
262,0.63,1645110583.75,P12,D07,0,0,1
263,0.54,1645110583.765625,P12,D07,0,0,1
264,0.39,1645110583.78125,P12,D07,0,0,1
265,0.21,1645110583.796875,P12,D07,0,0,1
266,0.03,1645110583.8125,P12,D07,0,0,1
267,-0.13,1645110583.828125,P12,D07,0,0,1
268,-0.21,1645110583.84375,P12,D07,0,0,1
269,-0.18,1645110583.859375,P12,D07,0,0,1
270,-0.02,1645110583.875,P12,D07,0,0,1
271,0.23,1645110583.890625,P12,D07,0,0,1
272,0.52,1645110583.90625,P12,D07,0,0,1
273,0.74,1645110583.921875,P12,D07,0,0,1
274,0.8,1645110583.9375,P12,D07,0,0,1
275,0.67,1645110583.953125,P12,D07,0,0,1
276,0.37,1645110583.96875,P12,D07,0,0,1
277,-0.03,1645110583.984375,P12,D07,0,0,1
278,-0.41,1645110584.0,P12,D07,0,0,1
279,-0.66,1645110584.015625,P12,D07,0,0,1
280,-0.73,1645110584.03125,P12,D07,0,0,1
281,-0.63,1645110584.046875,P12,D07,0,0,1
282,-0.42,1645110584.0625,P12,D07,0,0,1
283,-0.19,1645110584.078125,P12,D07,0,0,1
284,0.04,1645110584.09375,P12,D07,0,0,1
285,0.27,1645110584.109375,P12,D07,0,0,1
286,0.49,1645110584.125,P12,D07,0,0,1
287,0.71,1645110584.140625,P12,D07,0,0,1
288,0.9,1645110584.15625,P12,D07,0,0,1
289,1.04,1645110584.171875,P12,D07,0,0,1
290,1.06,1645110584.1875,P12,D07,0,0,1
291,0.94,1645110584.203125,P12,D07,0,0,1
292,0.65,1645110584.21875,P12,D07,0,0,1
293,0.21,1645110584.234375,P12,D07,0,0,1
294,-0.33,1645110584.25,P12,D07,0,0,1
295,-0.88,1645110584.265625,P12,D07,0,0,1
296,-1.32,1645110584.28125,P12,D07,0,0,1
297,-1.52,1645110584.296875,P12,D07,0,0,1
298,-1.43,1645110584.3125,P12,D07,0,0,1
299,-1.08,1645110584.328125,P12,D07,0,0,1
300,-0.58,1645110584.34375,P12,D07,0,0,1
301,-0.07,1645110584.359375,P12,D07,0,0,1
302,0.35,1645110584.375,P12,D07,0,0,1
303,0.63,1645110584.390625,P12,D07,0,0,1
304,0.76,1645110584.40625,P12,D07,0,0,1
305,0.72,1645110584.421875,P12,D07,0,0,1
306,0.54,1645110584.4375,P12,D07,0,0,1
307,0.23,1645110584.453125,P12,D07,0,0,1
308,-0.11,1645110584.46875,P12,D07,0,0,1
309,-0.39,1645110584.484375,P12,D07,0,0,1
310,-0.5,1645110584.5,P12,D07,0,0,1
311,-0.46,1645110584.515625,P12,D07,0,0,1
312,-0.35,1645110584.53125,P12,D07,0,0,1
313,-0.3,1645110584.546875,P12,D07,0,0,1
314,-0.4,1645110584.5625,P12,D07,0,0,1
315,-0.67,1645110584.578125,P12,D07,0,0,1
316,-1.03,1645110584.59375,P12,D07,0,0,1
317,-1.33,1645110584.609375,P12,D07,0,0,1
318,-1.47,1645110584.625,P12,D07,0,0,1
319,-1.41,1645110584.640625,P12,D07,0,0,1
320,-1.19,1645110584.65625,P12,D07,0,0,1
321,-0.88,1645110584.671875,P12,D07,0,0,1
322,-0.58,1645110584.6875,P12,D07,0,0,1
323,-0.38,1645110584.703125,P12,D07,0,0,1
324,-0.3,1645110584.71875,P12,D07,0,0,1
325,-0.33,1645110584.734375,P12,D07,0,0,1
326,-0.44,1645110584.75,P12,D07,0,0,1
327,-0.55,1645110584.765625,P12,D07,0,0,1
328,-0.66,1645110584.78125,P12,D07,0,0,1
329,-0.73,1645110584.796875,P12,D07,0,0,1
330,-0.76,1645110584.8125,P12,D07,0,0,1
331,-0.75,1645110584.828125,P12,D07,0,0,1
332,-0.68,1645110584.84375,P12,D07,0,0,1
333,-0.59,1645110584.859375,P12,D07,0,0,1
334,-0.49,1645110584.875,P12,D07,0,0,1
335,-0.48,1645110584.890625,P12,D07,0,0,1
336,-0.58,1645110584.90625,P12,D07,0,0,1
337,-0.8,1645110584.921875,P12,D07,0,0,1
338,-1.07,1645110584.9375,P12,D07,0,0,1
339,-1.28,1645110584.953125,P12,D07,0,0,1
340,-1.33,1645110584.96875,P12,D07,0,0,1
341,-1.18,1645110584.984375,P12,D07,0,0,1
342,-0.89,1645110585.0,P12,D07,0,0,1
343,-0.54,1645110585.015625,P12,D07,0,0,1
344,-0.2,1645110585.03125,P12,D07,0,0,1
345,0.07,1645110585.046875,P12,D07,0,0,1
346,0.29,1645110585.0625,P12,D07,0,0,1
347,0.48,1645110585.078125,P12,D07,0,0,1
348,0.65,1645110585.09375,P12,D07,0,0,1
349,0.84,1645110585.109375,P12,D07,0,0,1
350,1.06,1645110585.125,P12,D07,0,0,1
351,1.29,1645110585.140625,P12,D07,0,0,1
352,1.5,1645110585.15625,P12,D07,0,0,1
353,1.64,1645110585.171875,P12,D07,0,0,1
354,1.64,1645110585.1875,P12,D07,0,0,1
355,1.44,1645110585.203125,P12,D07,0,0,1
356,1.06,1645110585.21875,P12,D07,0,0,1
357,0.54,1645110585.234375,P12,D07,0,0,1
358,-0.03,1645110585.25,P12,D07,0,0,1
359,-0.53,1645110585.265625,P12,D07,0,0,1
360,-0.9,1645110585.28125,P12,D07,0,0,1
361,-1.13,1645110585.296875,P12,D07,0,0,1
362,-1.3,1645110585.3125,P12,D07,0,0,1
363,-1.48,1645110585.328125,P12,D07,0,0,1
364,-1.75,1645110585.34375,P12,D07,0,0,1
365,-2.09,1645110585.359375,P12,D07,0,0,1
366,-2.45,1645110585.375,P12,D07,0,0,1
367,-2.71,1645110585.390625,P12,D07,0,0,1
368,-2.79,1645110585.40625,P12,D07,0,0,1
369,-2.67,1645110585.421875,P12,D07,0,0,1
370,-2.45,1645110585.4375,P12,D07,0,0,1
371,-2.28,1645110585.453125,P12,D07,0,0,1
372,-2.3,1645110585.46875,P12,D07,0,0,1
373,-2.57,1645110585.484375,P12,D07,0,0,1
374,-3.01,1645110585.5,P12,D07,0,0,1
375,-3.51,1645110585.515625,P12,D07,0,0,1
376,-3.96,1645110585.53125,P12,D07,0,0,1
377,-4.33,1645110585.546875,P12,D07,0,0,1
378,-4.65,1645110585.5625,P12,D07,0,0,1
379,-5.03,1645110585.578125,P12,D07,0,0,1
380,-5.56,1645110585.59375,P12,D07,0,0,1
381,-6.25,1645110585.609375,P12,D07,0,0,1
382,-7.04,1645110585.625,P12,D07,0,0,1
383,-7.78,1645110585.640625,P12,D07,0,0,1
384,-8.36,1645110585.65625,P12,D07,0,0,1
385,-8.69,1645110585.671875,P12,D07,0,0,1
386,-8.84,1645110585.6875,P12,D07,0,0,1
387,-8.97,1645110585.703125,P12,D07,0,0,1
388,-9.29,1645110585.71875,P12,D07,0,0,1
389,-9.96,1645110585.734375,P12,D07,0,0,1
390,-11.0,1645110585.75,P12,D07,0,0,1
391,-12.29,1645110585.765625,P12,D07,0,0,1
392,-13.59,1645110585.78125,P12,D07,0,0,1
393,-14.61,1645110585.796875,P12,D07,0,0,1
394,-15.04,1645110585.8125,P12,D07,0,0,1
395,-14.61,1645110585.828125,P12,D07,0,0,1
396,-13.22,1645110585.84375,P12,D07,0,0,1
397,-10.93,1645110585.859375,P12,D07,0,0,1
398,-8.12,1645110585.875,P12,D07,0,0,1
399,-5.33,1645110585.890625,P12,D07,0,0,1
400,-3.2,1645110585.90625,P12,D07,0,0,1
401,-2.12,1645110585.921875,P12,D07,0,0,1
402,-2.06,1645110585.9375,P12,D07,0,0,1
403,-2.51,1645110585.953125,P12,D07,0,0,1
404,-2.6,1645110585.96875,P12,D07,0,0,1
405,-1.53,1645110585.984375,P12,D07,0,0,1
406,1.1,1645110586.0,P12,D07,0,0,1
407,5.08,1645110586.015625,P12,D07,0,0,1
408,9.67,1645110586.03125,P12,D07,0,0,1
409,13.94,1645110586.046875,P12,D07,0,0,1
410,17.11,1645110586.0625,P12,D07,0,0,1
411,18.86,1645110586.078125,P12,D07,0,0,1
412,19.33,1645110586.09375,P12,D07,0,0,1
413,18.96,1645110586.109375,P12,D07,0,0,1
414,18.19,1645110586.125,P12,D07,0,0,1
415,17.27,1645110586.140625,P12,D07,0,0,1
416,16.23,1645110586.15625,P12,D07,0,0,1
417,15.01,1645110586.171875,P12,D07,0,0,1
418,13.64,1645110586.1875,P12,D07,0,0,1
419,12.29,1645110586.203125,P12,D07,0,0,1
420,11.24,1645110586.21875,P12,D07,0,0,1
421,10.66,1645110586.234375,P12,D07,0,0,1
422,10.53,1645110586.25,P12,D07,0,0,1
423,10.59,1645110586.265625,P12,D07,0,0,1
424,10.48,1645110586.28125,P12,D07,0,0,1
425,9.96,1645110586.296875,P12,D07,0,0,1
426,9.0,1645110586.3125,P12,D07,0,0,1
427,7.83,1645110586.328125,P12,D07,0,0,1
428,6.81,1645110586.34375,P12,D07,0,0,1
429,6.22,1645110586.359375,P12,D07,0,0,1
430,6.15,1645110586.375,P12,D07,0,0,1
431,6.47,1645110586.390625,P12,D07,0,0,1
432,6.9,1645110586.40625,P12,D07,0,0,1
433,7.14,1645110586.421875,P12,D07,0,0,1
434,7.02,1645110586.4375,P12,D07,0,0,1
435,6.51,1645110586.453125,P12,D07,0,0,1
436,5.76,1645110586.46875,P12,D07,0,0,1
437,5.01,1645110586.484375,P12,D07,0,0,1
438,4.48,1645110586.5,P12,D07,0,0,1
439,4.29,1645110586.515625,P12,D07,0,0,1
440,4.42,1645110586.53125,P12,D07,0,0,1
441,4.77,1645110586.546875,P12,D07,0,0,1
442,5.19,1645110586.5625,P12,D07,0,0,1
443,5.58,1645110586.578125,P12,D07,0,0,1
444,5.91,1645110586.59375,P12,D07,0,0,1
445,6.25,1645110586.609375,P12,D07,0,0,1
446,6.7,1645110586.625,P12,D07,0,0,1
447,7.28,1645110586.640625,P12,D07,0,0,1
448,7.98,1645110586.65625,P12,D07,0,0,1
449,8.68,1645110586.671875,P12,D07,0,0,1
450,9.28,1645110586.6875,P12,D07,0,0,1
451,9.68,1645110586.703125,P12,D07,0,0,1
452,9.85,1645110586.71875,P12,D07,0,0,1
453,9.85,1645110586.734375,P12,D07,0,0,1
454,9.77,1645110586.75,P12,D07,0,0,1
455,9.75,1645110586.765625,P12,D07,0,0,1
456,9.87,1645110586.78125,P12,D07,0,0,1
457,10.21,1645110586.796875,P12,D07,0,0,1
458,10.75,1645110586.8125,P12,D07,0,0,1
459,11.43,1645110586.828125,P12,D07,0,0,1
460,12.13,1645110586.84375,P12,D07,0,0,1
461,12.74,1645110586.859375,P12,D07,0,0,1
462,13.12,1645110586.875,P12,D07,0,0,1
463,13.16,1645110586.890625,P12,D07,0,0,1
464,12.8,1645110586.90625,P12,D07,0,0,1
465,12.0,1645110586.921875,P12,D07,0,0,1
466,10.82,1645110586.9375,P12,D07,0,0,1
467,9.42,1645110586.953125,P12,D07,0,0,1
468,8.0,1645110586.96875,P12,D07,0,0,1
469,6.78,1645110586.984375,P12,D07,0,0,1
470,5.94,1645110587.0,P12,D07,0,0,1
471,5.55,1645110587.015625,P12,D07,0,0,1
472,5.58,1645110587.03125,P12,D07,0,0,1
473,5.97,1645110587.046875,P12,D07,0,0,1
474,6.63,1645110587.0625,P12,D07,0,0,1
475,7.5,1645110587.078125,P12,D07,0,0,1
476,8.61,1645110587.09375,P12,D07,0,0,1
477,9.99,1645110587.109375,P12,D07,0,0,1
478,11.67,1645110587.125,P12,D07,0,0,1
479,13.64,1645110587.140625,P12,D07,0,0,1
480,15.8,1645110587.15625,P12,D07,0,0,1
481,17.95,1645110587.171875,P12,D07,0,0,1
482,19.8,1645110587.1875,P12,D07,0,0,1
483,21.03,1645110587.203125,P12,D07,0,0,1
484,21.33,1645110587.21875,P12,D07,0,0,1
485,20.49,1645110587.234375,P12,D07,0,0,1
486,18.51,1645110587.25,P12,D07,0,0,1
487,15.57,1645110587.265625,P12,D07,0,0,1
488,12.07,1645110587.28125,P12,D07,0,0,1
489,8.47,1645110587.296875,P12,D07,0,0,1
490,5.1,1645110587.3125,P12,D07,0,0,1
491,1.97,1645110587.328125,P12,D07,0,0,1
492,-1.23,1645110587.34375,P12,D07,0,0,1
493,-4.98,1645110587.359375,P12,D07,0,0,1
494,-9.69,1645110587.375,P12,D07,0,0,1
495,-15.39,1645110587.390625,P12,D07,0,0,1
496,-21.58,1645110587.40625,P12,D07,0,0,1
497,-27.43,1645110587.421875,P12,D07,0,0,1
498,-32.07,1645110587.4375,P12,D07,0,0,1
499,-34.94,1645110587.453125,P12,D07,0,0,1
500,-36.01,1645110587.46875,P12,D07,0,0,1
501,-35.65,1645110587.484375,P12,D07,0,0,1
502,-34.45,1645110587.5,P12,D07,0,0,1
503,-32.94,1645110587.515625,P12,D07,0,0,1
504,-31.48,1645110587.53125,P12,D07,0,0,1
505,-30.28,1645110587.546875,P12,D07,0,0,1
506,-29.45,1645110587.5625,P12,D07,0,0,1
507,-29.07,1645110587.578125,P12,D07,0,0,1
508,-29.15,1645110587.59375,P12,D07,0,0,1
509,-29.62,1645110587.609375,P12,D07,0,0,1
510,-30.31,1645110587.625,P12,D07,0,0,1
511,-31.01,1645110587.640625,P12,D07,0,0,1
512,-31.58,1645110587.65625,P12,D07,0,0,1
513,-31.94,1645110587.671875,P12,D07,0,0,1
514,-32.16,1645110587.6875,P12,D07,0,0,1
515,-32.4,1645110587.703125,P12,D07,0,0,1
516,-32.85,1645110587.71875,P12,D07,0,0,1
517,-33.68,1645110587.734375,P12,D07,0,0,1
518,-34.97,1645110587.75,P12,D07,0,0,1
519,-36.71,1645110587.765625,P12,D07,0,0,1
520,-38.74,1645110587.78125,P12,D07,0,0,1
521,-40.85,1645110587.796875,P12,D07,0,0,1
522,-42.85,1645110587.8125,P12,D07,0,0,1
523,-44.72,1645110587.828125,P12,D07,0,0,1
524,-46.57,1645110587.84375,P12,D07,0,0,1
525,-48.64,1645110587.859375,P12,D07,0,0,1
526,-51.15,1645110587.875,P12,D07,0,0,1
527,-54.12,1645110587.890625,P12,D07,0,0,1
528,-57.38,1645110587.90625,P12,D07,0,0,1
529,-60.62,1645110587.921875,P12,D07,0,0,1
530,-63.56,1645110587.9375,P12,D07,0,0,1
531,-66.16,1645110587.953125,P12,D07,0,0,1
532,-68.66,1645110587.96875,P12,D07,0,0,1
533,-71.58,1645110587.984375,P12,D07,0,0,1
534,-75.4,1645110588.0,P12,D07,0,0,1
535,-80.22,1645110588.015625,P12,D07,0,0,1
536,-85.51,1645110588.03125,P12,D07,0,0,1
537,-89.91,1645110588.046875,P12,D07,0,0,1
538,-91.53,1645110588.0625,P12,D07,0,0,1
539,-88.34,1645110588.078125,P12,D07,0,0,1
540,-78.75,1645110588.09375,P12,D07,0,0,1
541,-62.21,1645110588.109375,P12,D07,0,0,1
542,-39.34,1645110588.125,P12,D07,0,0,1
543,-11.91,1645110588.140625,P12,D07,0,0,1
544,17.6,1645110588.15625,P12,D07,0,0,1
545,46.49,1645110588.171875,P12,D07,0,0,1
546,72.35,1645110588.1875,P12,D07,0,0,1
547,93.38,1645110588.203125,P12,D07,0,0,1
548,108.58,1645110588.21875,P12,D07,0,0,1
549,117.8,1645110588.234375,P12,D07,0,0,1
550,121.6,1645110588.25,P12,D07,0,0,1
551,121.09,1645110588.265625,P12,D07,0,0,1
552,117.72,1645110588.28125,P12,D07,0,0,1
553,112.92,1645110588.296875,P12,D07,0,0,1
554,107.93,1645110588.3125,P12,D07,0,0,1
555,103.6,1645110588.328125,P12,D07,0,0,1
556,100.38,1645110588.34375,P12,D07,0,0,1
557,98.35,1645110588.359375,P12,D07,0,0,1
558,97.23,1645110588.375,P12,D07,0,0,1
559,96.53,1645110588.390625,P12,D07,0,0,1
560,95.53,1645110588.40625,P12,D07,0,0,1
561,93.47,1645110588.421875,P12,D07,0,0,1
562,89.61,1645110588.4375,P12,D07,0,0,1
563,83.42,1645110588.453125,P12,D07,0,0,1
564,74.73,1645110588.46875,P12,D07,0,0,1
565,63.73,1645110588.484375,P12,D07,0,0,1
566,50.98,1645110588.5,P12,D07,0,0,1
567,37.3,1645110588.515625,P12,D07,0,0,1
568,23.62,1645110588.53125,P12,D07,0,0,1
569,10.81,1645110588.546875,P12,D07,0,0,1
570,-0.48,1645110588.5625,P12,D07,0,0,1
571,-9.91,1645110588.578125,P12,D07,0,0,1
572,-17.46,1645110588.59375,P12,D07,0,0,1
573,-23.3,1645110588.609375,P12,D07,0,0,1
574,-27.68,1645110588.625,P12,D07,0,0,1
575,-30.83,1645110588.640625,P12,D07,0,0,1
576,-32.87,1645110588.65625,P12,D07,0,0,1
577,-33.9,1645110588.671875,P12,D07,0,0,1
578,-34.09,1645110588.6875,P12,D07,0,0,1
579,-33.69,1645110588.703125,P12,D07,0,0,1
580,-33.0,1645110588.71875,P12,D07,0,0,1
581,-32.28,1645110588.734375,P12,D07,0,0,1
582,-31.64,1645110588.75,P12,D07,0,0,1
583,-31.08,1645110588.765625,P12,D07,0,0,1
584,-30.56,1645110588.78125,P12,D07,0,0,1
585,-30.06,1645110588.796875,P12,D07,0,0,1
586,-29.66,1645110588.8125,P12,D07,0,0,1
587,-29.43,1645110588.828125,P12,D07,0,0,1
588,-29.35,1645110588.84375,P12,D07,0,0,1
589,-29.17,1645110588.859375,P12,D07,0,0,1
590,-28.48,1645110588.875,P12,D07,0,0,1
591,-26.81,1645110588.890625,P12,D07,0,0,1
592,-23.9,1645110588.90625,P12,D07,0,0,1
593,-19.82,1645110588.921875,P12,D07,0,0,1
594,-15.02,1645110588.9375,P12,D07,0,0,1
595,-10.18,1645110588.953125,P12,D07,0,0,1
596,-5.94,1645110588.96875,P12,D07,0,0,1
597,-2.75,1645110588.984375,P12,D07,0,0,1
598,-0.71,1645110589.0,P12,D07,0,0,1
599,0.34,1645110589.015625,P12,D07,0,0,1
600,0.71,1645110589.03125,P12,D07,0,0,1
601,0.7,1645110589.046875,P12,D07,0,0,1
602,0.52,1645110589.0625,P12,D07,0,0,1
603,0.25,1645110589.078125,P12,D07,0,0,1
604,-0.15,1645110589.09375,P12,D07,0,0,1
605,-0.72,1645110589.109375,P12,D07,0,0,1
606,-1.49,1645110589.125,P12,D07,0,0,1
607,-2.41,1645110589.140625,P12,D07,0,0,1
608,-3.35,1645110589.15625,P12,D07,0,0,1
609,-4.13,1645110589.171875,P12,D07,0,0,1
610,-4.58,1645110589.1875,P12,D07,0,0,1
611,-4.53,1645110589.203125,P12,D07,0,0,1
612,-3.82,1645110589.21875,P12,D07,0,0,1
613,-2.31,1645110589.234375,P12,D07,0,0,1
614,0.07,1645110589.25,P12,D07,0,0,1
615,3.38,1645110589.265625,P12,D07,0,0,1
616,7.48,1645110589.28125,P12,D07,0,0,1
617,12.13,1645110589.296875,P12,D07,0,0,1
618,16.95,1645110589.3125,P12,D07,0,0,1
619,21.54,1645110589.328125,P12,D07,0,0,1
620,25.62,1645110589.34375,P12,D07,0,0,1
621,29.04,1645110589.359375,P12,D07,0,0,1
622,31.78,1645110589.375,P12,D07,0,0,1
623,33.9,1645110589.390625,P12,D07,0,0,1
624,35.39,1645110589.40625,P12,D07,0,0,1
625,36.2,1645110589.421875,P12,D07,0,0,1
626,36.29,1645110589.4375,P12,D07,0,0,1
627,35.75,1645110589.453125,P12,D07,0,0,1
628,34.76,1645110589.46875,P12,D07,0,0,1
629,33.61,1645110589.484375,P12,D07,0,0,1
630,32.54,1645110589.5,P12,D07,0,0,1
631,31.59,1645110589.515625,P12,D07,0,0,1
632,30.6,1645110589.53125,P12,D07,0,0,1
633,29.3,1645110589.546875,P12,D07,0,0,1
634,27.48,1645110589.5625,P12,D07,0,0,1
635,25.17,1645110589.578125,P12,D07,0,0,1
636,22.58,1645110589.59375,P12,D07,0,0,1
637,20.07,1645110589.609375,P12,D07,0,0,1
638,17.95,1645110589.625,P12,D07,0,0,1
639,16.27,1645110589.640625,P12,D07,0,0,1
640,14.87,1645110589.65625,P12,D07,0,0,1
641,13.41,1645110589.671875,P12,D07,0,0,1
642,11.56,1645110589.6875,P12,D07,0,0,1
643,9.13,1645110589.703125,P12,D07,0,0,1
644,6.11,1645110589.71875,P12,D07,0,0,1
645,2.64,1645110589.734375,P12,D07,0,0,1
646,-1.14,1645110589.75,P12,D07,0,0,1
647,-5.07,1645110589.765625,P12,D07,0,0,1
648,-9.03,1645110589.78125,P12,D07,0,0,1
649,-12.95,1645110589.796875,P12,D07,0,0,1
650,-16.69,1645110589.8125,P12,D07,0,0,1
651,-20.12,1645110589.828125,P12,D07,0,0,1
652,-23.06,1645110589.84375,P12,D07,0,0,1
653,-25.4,1645110589.859375,P12,D07,0,0,1
654,-27.08,1645110589.875,P12,D07,0,0,1
655,-28.11,1645110589.890625,P12,D07,0,0,1
656,-28.57,1645110589.90625,P12,D07,0,0,1
657,-28.56,1645110589.921875,P12,D07,0,0,1
658,-28.18,1645110589.9375,P12,D07,0,0,1
659,-27.45,1645110589.953125,P12,D07,0,0,1
660,-26.4,1645110589.96875,P12,D07,0,0,1
661,-25.04,1645110589.984375,P12,D07,0,0,1
662,-23.4,1645110590.0,P12,D07,0,0,1
663,-21.59,1645110590.015625,P12,D07,0,0,1
664,-19.8,1645110590.03125,P12,D07,0,0,1
665,-18.27,1645110590.046875,P12,D07,0,0,1
666,-17.18,1645110590.0625,P12,D07,0,0,1
667,-16.59,1645110590.078125,P12,D07,0,0,1
668,-16.34,1645110590.09375,P12,D07,0,0,1
669,-16.13,1645110590.109375,P12,D07,0,0,1
670,-15.6,1645110590.125,P12,D07,0,0,1
671,-14.51,1645110590.140625,P12,D07,0,0,1
672,-12.83,1645110590.15625,P12,D07,0,0,1
673,-10.82,1645110590.171875,P12,D07,0,0,1
674,-8.86,1645110590.1875,P12,D07,0,0,1
675,-7.3,1645110590.203125,P12,D07,0,0,1
676,-6.32,1645110590.21875,P12,D07,0,0,1
677,-5.83,1645110590.234375,P12,D07,0,0,1
678,-5.5,1645110590.25,P12,D07,0,0,1
679,-4.91,1645110590.265625,P12,D07,0,0,1
680,-3.7,1645110590.28125,P12,D07,0,0,1
681,-1.68,1645110590.296875,P12,D07,0,0,1
682,1.09,1645110590.3125,P12,D07,0,0,1
683,4.32,1645110590.328125,P12,D07,0,0,1
684,7.63,1645110590.34375,P12,D07,0,0,1
685,10.65,1645110590.359375,P12,D07,0,0,1
686,13.17,1645110590.375,P12,D07,0,0,1
687,15.25,1645110590.390625,P12,D07,0,0,1
688,17.16,1645110590.40625,P12,D07,0,0,1
689,19.36,1645110590.421875,P12,D07,0,0,1
690,22.22,1645110590.4375,P12,D07,0,0,1
691,25.92,1645110590.453125,P12,D07,0,0,1
692,30.3,1645110590.46875,P12,D07,0,0,1
693,34.9,1645110590.484375,P12,D07,0,0,1
694,39.11,1645110590.5,P12,D07,0,0,1
695,42.41,1645110590.515625,P12,D07,0,0,1
696,44.56,1645110590.53125,P12,D07,0,0,1
697,45.65,1645110590.546875,P12,D07,0,0,1
698,46.03,1645110590.5625,P12,D07,0,0,1
699,46.13,1645110590.578125,P12,D07,0,0,1
700,46.27,1645110590.59375,P12,D07,0,0,1
701,46.56,1645110590.609375,P12,D07,0,0,1
702,46.97,1645110590.625,P12,D07,0,0,1
703,47.4,1645110590.640625,P12,D07,0,0,1
704,47.73,1645110590.65625,P12,D07,0,0,1
705,47.78,1645110590.671875,P12,D07,0,0,1
706,47.2,1645110590.6875,P12,D07,0,0,1
707,45.52,1645110590.703125,P12,D07,0,0,1
708,42.32,1645110590.71875,P12,D07,0,0,1
709,37.42,1645110590.734375,P12,D07,0,0,1
710,31.04,1645110590.75,P12,D07,0,0,1
711,23.71,1645110590.765625,P12,D07,0,0,1
712,15.89,1645110590.78125,P12,D07,0,0,1
713,7.7,1645110590.796875,P12,D07,0,0,1
714,-1.15,1645110590.8125,P12,D07,0,0,1
715,-10.98,1645110590.828125,P12,D07,0,0,1
716,-21.7,1645110590.84375,P12,D07,0,0,1
717,-32.44,1645110590.859375,P12,D07,0,0,1
718,-41.8,1645110590.875,P12,D07,0,0,1
719,-48.33,1645110590.890625,P12,D07,0,0,1
720,-51.32,1645110590.90625,P12,D07,0,0,1
721,-51.13,1645110590.921875,P12,D07,0,0,1
722,-48.99,1645110590.9375,P12,D07,0,0,1
723,-46.34,1645110590.953125,P12,D07,0,0,1
724,-44.2,1645110590.96875,P12,D07,0,0,1
725,-42.82,1645110590.984375,P12,D07,0,0,1
726,-41.81,1645110591.0,P12,D07,0,0,1
727,-40.65,1645110591.015625,P12,D07,0,0,1
728,-39.07,1645110591.03125,P12,D07,0,0,1
729,-37.23,1645110591.046875,P12,D07,0,0,1
730,-35.47,1645110591.0625,P12,D07,0,0,1
731,-34.08,1645110591.078125,P12,D07,0,0,1
732,-33.08,1645110591.09375,P12,D07,0,0,1
733,-32.25,1645110591.109375,P12,D07,0,0,1
734,-31.33,1645110591.125,P12,D07,0,0,1
735,-30.18,1645110591.140625,P12,D07,0,0,1
736,-28.87,1645110591.15625,P12,D07,0,0,1
737,-27.6,1645110591.171875,P12,D07,0,0,1
738,-26.53,1645110591.1875,P12,D07,0,0,1
739,-25.64,1645110591.203125,P12,D07,0,0,1
740,-24.73,1645110591.21875,P12,D07,0,0,1
741,-23.55,1645110591.234375,P12,D07,0,0,1
742,-21.91,1645110591.25,P12,D07,0,0,1
743,-19.81,1645110591.265625,P12,D07,0,0,1
744,-17.43,1645110591.28125,P12,D07,0,0,1
745,-15.06,1645110591.296875,P12,D07,0,0,1
746,-12.93,1645110591.3125,P12,D07,0,0,1
747,-11.14,1645110591.328125,P12,D07,0,0,1
748,-9.64,1645110591.34375,P12,D07,0,0,1
749,-8.29,1645110591.359375,P12,D07,0,0,1
750,-6.94,1645110591.375,P12,D07,0,0,1
751,-5.55,1645110591.390625,P12,D07,0,0,1
752,-4.17,1645110591.40625,P12,D07,0,0,1
753,-2.95,1645110591.421875,P12,D07,0,0,1
754,-2.03,1645110591.4375,P12,D07,0,0,1
755,-1.52,1645110591.453125,P12,D07,0,0,1
756,-1.47,1645110591.46875,P12,D07,0,0,1
757,-1.87,1645110591.484375,P12,D07,0,0,1
758,-2.6,1645110591.5,P12,D07,0,0,1
759,-3.4,1645110591.515625,P12,D07,0,0,1
760,-3.91,1645110591.53125,P12,D07,0,0,1
761,-3.74,1645110591.546875,P12,D07,0,0,1
762,-2.6,1645110591.5625,P12,D07,0,0,1
763,-0.47,1645110591.578125,P12,D07,0,0,1
764,2.3,1645110591.59375,P12,D07,0,0,1
765,5.13,1645110591.609375,P12,D07,0,0,1
766,7.38,1645110591.625,P12,D07,0,0,1
767,8.64,1645110591.640625,P12,D07,0,0,1
768,8.95,1645110591.65625,P12,D07,0,0,1
769,8.69,1645110591.671875,P12,D07,0,0,1
770,8.37,1645110591.6875,P12,D07,0,0,1
771,8.36,1645110591.703125,P12,D07,0,0,1
772,8.7,1645110591.71875,P12,D07,0,0,1
773,9.12,1645110591.734375,P12,D07,0,0,1
774,9.25,1645110591.75,P12,D07,0,0,1
775,8.87,1645110591.765625,P12,D07,0,0,1
776,8.07,1645110591.78125,P12,D07,0,0,1
777,7.21,1645110591.796875,P12,D07,0,0,1
778,6.67,1645110591.8125,P12,D07,0,0,1
779,6.72,1645110591.828125,P12,D07,0,0,1
780,7.29,1645110591.84375,P12,D07,0,0,1
781,8.06,1645110591.859375,P12,D07,0,0,1
782,8.6,1645110591.875,P12,D07,0,0,1
783,8.55,1645110591.890625,P12,D07,0,0,1
784,7.8,1645110591.90625,P12,D07,0,0,1
785,6.44,1645110591.921875,P12,D07,0,0,1
786,4.7,1645110591.9375,P12,D07,0,0,1
787,2.87,1645110591.953125,P12,D07,0,0,1
788,1.24,1645110591.96875,P12,D07,0,0,1
789,-0.0,1645110591.984375,P12,D07,0,0,1
790,-0.73,1645110592.0,P12,D07,0,0,1
791,-0.9,1645110592.015625,P12,D07,0,0,1
792,-0.55,1645110592.03125,P12,D07,0,0,1
793,0.16,1645110592.046875,P12,D07,0,0,1
794,1.01,1645110592.0625,P12,D07,0,0,1
795,1.73,1645110592.078125,P12,D07,0,0,1
796,2.13,1645110592.09375,P12,D07,0,0,1
797,2.17,1645110592.109375,P12,D07,0,0,1
798,1.95,1645110592.125,P12,D07,0,0,1
799,1.72,1645110592.140625,P12,D07,0,0,1
800,1.75,1645110592.15625,P12,D07,0,0,1
801,2.2,1645110592.171875,P12,D07,0,0,1
802,3.09,1645110592.1875,P12,D07,0,0,1
803,4.31,1645110592.203125,P12,D07,0,0,1
804,5.68,1645110592.21875,P12,D07,0,0,1
805,7.0,1645110592.234375,P12,D07,0,0,1
806,8.04,1645110592.25,P12,D07,0,0,1
807,8.61,1645110592.265625,P12,D07,0,0,1
808,8.55,1645110592.28125,P12,D07,0,0,1
809,7.72,1645110592.296875,P12,D07,0,0,1
810,6.12,1645110592.3125,P12,D07,0,0,1
811,3.91,1645110592.328125,P12,D07,0,0,1
812,1.35,1645110592.34375,P12,D07,0,0,1
813,-1.18,1645110592.359375,P12,D07,0,0,1
814,-3.37,1645110592.375,P12,D07,0,0,1
815,-5.0,1645110592.390625,P12,D07,0,0,1
816,-5.99,1645110592.40625,P12,D07,0,0,1
817,-6.41,1645110592.421875,P12,D07,0,0,1
818,-6.42,1645110592.4375,P12,D07,0,0,1
819,-6.19,1645110592.453125,P12,D07,0,0,1
820,-5.9,1645110592.46875,P12,D07,0,0,1
821,-5.69,1645110592.484375,P12,D07,0,0,1
822,-5.63,1645110592.5,P12,D07,0,0,1
823,-5.73,1645110592.515625,P12,D07,0,0,1
824,-5.91,1645110592.53125,P12,D07,0,0,1
825,-6.05,1645110592.546875,P12,D07,0,0,1
826,-6.06,1645110592.5625,P12,D07,0,0,1
827,-5.92,1645110592.578125,P12,D07,0,0,1
828,-5.66,1645110592.59375,P12,D07,0,0,1
829,-5.35,1645110592.609375,P12,D07,0,0,1
830,-5.07,1645110592.625,P12,D07,0,0,1
831,-4.84,1645110592.640625,P12,D07,0,0,1
832,-4.62,1645110592.65625,P12,D07,0,0,1
833,-4.34,1645110592.671875,P12,D07,0,0,1
834,-3.96,1645110592.6875,P12,D07,0,0,1
835,-3.5,1645110592.703125,P12,D07,0,0,1
836,-3.01,1645110592.71875,P12,D07,0,0,1
837,-2.54,1645110592.734375,P12,D07,0,0,1
838,-2.17,1645110592.75,P12,D07,0,0,1
839,-1.87,1645110592.765625,P12,D07,0,0,1
840,-1.64,1645110592.78125,P12,D07,0,0,1
841,-1.42,1645110592.796875,P12,D07,0,0,1
842,-1.14,1645110592.8125,P12,D07,0,0,1
843,-0.77,1645110592.828125,P12,D07,0,0,1
844,-0.32,1645110592.84375,P12,D07,0,0,1
845,0.16,1645110592.859375,P12,D07,0,0,1
846,0.61,1645110592.875,P12,D07,0,0,1
847,0.96,1645110592.890625,P12,D07,0,0,1
848,1.17,1645110592.90625,P12,D07,0,0,1
849,1.25,1645110592.921875,P12,D07,0,0,1
850,1.23,1645110592.9375,P12,D07,0,0,1
851,1.17,1645110592.953125,P12,D07,0,0,1
852,1.07,1645110592.96875,P12,D07,0,0,1
853,0.93,1645110592.984375,P12,D07,0,0,1
854,0.74,1645110593.0,P12,D07,0,0,1
855,0.49,1645110593.015625,P12,D07,0,0,1
856,0.21,1645110593.03125,P12,D07,0,0,1
857,-0.01,1645110593.046875,P12,D07,0,0,1
858,-0.13,1645110593.0625,P12,D07,0,0,1
859,-0.11,1645110593.078125,P12,D07,0,0,1
860,0.03,1645110593.09375,P12,D07,0,0,1
861,0.23,1645110593.109375,P12,D07,0,0,1
862,0.43,1645110593.125,P12,D07,0,0,1
863,0.55,1645110593.140625,P12,D07,0,0,1
864,0.59,1645110593.15625,P12,D07,0,0,1
865,0.58,1645110593.171875,P12,D07,0,0,1
866,0.53,1645110593.1875,P12,D07,0,0,1
867,0.48,1645110593.203125,P12,D07,0,0,1
868,0.39,1645110593.21875,P12,D07,0,0,1
869,0.23,1645110593.234375,P12,D07,0,0,1
870,-0.04,1645110593.25,P12,D07,0,0,1
871,-0.4,1645110593.265625,P12,D07,0,0,1
872,-0.72,1645110593.28125,P12,D07,0,0,1
873,-0.86,1645110593.296875,P12,D07,0,0,1
874,-0.73,1645110593.3125,P12,D07,0,0,1
875,-0.32,1645110593.328125,P12,D07,0,0,1
876,0.23,1645110593.34375,P12,D07,0,0,1
877,0.72,1645110593.359375,P12,D07,0,0,1
878,1.0,1645110593.375,P12,D07,0,0,1
879,1.02,1645110593.390625,P12,D07,0,0,1
880,0.86,1645110593.40625,P12,D07,0,0,1
881,0.66,1645110593.421875,P12,D07,0,0,1
882,0.52,1645110593.4375,P12,D07,0,0,1
883,0.48,1645110593.453125,P12,D07,0,0,1
884,0.51,1645110593.46875,P12,D07,0,0,1
885,0.55,1645110593.484375,P12,D07,0,0,1
886,0.57,1645110593.5,P12,D07,0,0,1
887,0.59,1645110593.515625,P12,D07,0,0,1
888,0.64,1645110593.53125,P12,D07,0,0,1
889,0.72,1645110593.546875,P12,D07,0,0,1
890,0.81,1645110593.5625,P12,D07,0,0,1
891,0.87,1645110593.578125,P12,D07,0,0,1
892,0.88,1645110593.59375,P12,D07,0,0,1
893,0.84,1645110593.609375,P12,D07,0,0,1
894,0.78,1645110593.625,P12,D07,0,0,1
895,0.7,1645110593.640625,P12,D07,0,0,1
896,0.57,1645110593.65625,P12,D07,0,0,1
897,0.4,1645110593.671875,P12,D07,0,0,1
898,0.18,1645110593.6875,P12,D07,0,0,1
899,-0.06,1645110593.703125,P12,D07,0,0,1
900,-0.25,1645110593.71875,P12,D07,0,0,1
901,-0.34,1645110593.734375,P12,D07,0,0,1
902,-0.31,1645110593.75,P12,D07,0,0,1
903,-0.2,1645110593.765625,P12,D07,0,0,1
904,-0.06,1645110593.78125,P12,D07,0,0,1
905,0.04,1645110593.796875,P12,D07,0,0,1
906,0.06,1645110593.8125,P12,D07,0,0,1
907,0.03,1645110593.828125,P12,D07,0,0,1
908,0.0,1645110593.84375,P12,D07,0,0,1
909,0.02,1645110593.859375,P12,D07,0,0,1
910,0.13,1645110593.875,P12,D07,0,0,1
911,0.31,1645110593.890625,P12,D07,0,0,1
912,0.49,1645110593.90625,P12,D07,0,0,1
913,0.55,1645110593.921875,P12,D07,0,0,1
914,0.41,1645110593.9375,P12,D07,0,0,1
915,0.05,1645110593.953125,P12,D07,0,0,1
916,-0.45,1645110593.96875,P12,D07,0,0,1
917,-0.92,1645110593.984375,P12,D07,0,0,1
918,-1.22,1645110594.0,P12,D07,0,0,1
919,-1.24,1645110594.015625,P12,D07,0,0,1
920,-1.02,1645110594.03125,P12,D07,0,0,1
921,-0.68,1645110594.046875,P12,D07,0,0,1
922,-0.42,1645110594.0625,P12,D07,0,0,1
923,-0.35,1645110594.078125,P12,D07,0,0,1
924,-0.49,1645110594.09375,P12,D07,0,0,1
925,-0.72,1645110594.109375,P12,D07,0,0,1
926,-0.9,1645110594.125,P12,D07,0,0,1
927,-0.9,1645110594.140625,P12,D07,0,0,1
928,-0.69,1645110594.15625,P12,D07,0,0,1
929,-0.33,1645110594.171875,P12,D07,0,0,1
930,0.07,1645110594.1875,P12,D07,0,0,1
931,0.37,1645110594.203125,P12,D07,0,0,1
932,0.51,1645110594.21875,P12,D07,0,0,1
933,0.43,1645110594.234375,P12,D07,0,0,1
934,0.15,1645110594.25,P12,D07,0,0,1
935,-0.28,1645110594.265625,P12,D07,0,0,1
936,-0.75,1645110594.28125,P12,D07,0,0,1
937,-1.16,1645110594.296875,P12,D07,0,0,1
938,-1.42,1645110594.3125,P12,D07,0,0,1
939,-1.49,1645110594.328125,P12,D07,0,0,1
940,-1.42,1645110594.34375,P12,D07,0,0,1
941,-1.25,1645110594.359375,P12,D07,0,0,1
942,-1.03,1645110594.375,P12,D07,0,0,1
943,-0.8,1645110594.390625,P12,D07,0,0,1
944,-0.52,1645110594.40625,P12,D07,0,0,1
945,-0.19,1645110594.421875,P12,D07,0,0,1
946,0.19,1645110594.4375,P12,D07,0,0,1
947,0.58,1645110594.453125,P12,D07,0,0,1
948,0.91,1645110594.46875,P12,D07,0,0,1
949,1.13,1645110594.484375,P12,D07,0,0,1
950,1.2,1645110594.5,P12,D07,0,0,1
951,1.12,1645110594.515625,P12,D07,0,0,1
952,0.97,1645110594.53125,P12,D07,0,0,1
953,0.83,1645110594.546875,P12,D07,0,0,1
954,0.77,1645110594.5625,P12,D07,0,0,1
955,0.81,1645110594.578125,P12,D07,0,0,1
956,0.88,1645110594.59375,P12,D07,0,0,1
957,0.9,1645110594.609375,P12,D07,0,0,1
958,0.72,1645110594.625,P12,D07,0,0,1
959,0.34,1645110594.640625,P12,D07,0,0,1
960,-0.15,1645110594.65625,P12,D07,0,0,1
961,-0.54,1645110594.671875,P12,D07,0,0,1
962,-0.64,1645110594.6875,P12,D07,0,0,1
963,-0.37,1645110594.703125,P12,D07,0,0,1
964,0.17,1645110594.71875,P12,D07,0,0,1
965,0.79,1645110594.734375,P12,D07,0,0,1
966,1.26,1645110594.75,P12,D07,0,0,1
967,1.47,1645110594.765625,P12,D07,0,0,1
968,1.45,1645110594.78125,P12,D07,0,0,1
969,1.33,1645110594.796875,P12,D07,0,0,1
970,1.24,1645110594.8125,P12,D07,0,0,1
971,1.27,1645110594.828125,P12,D07,0,0,1
972,1.39,1645110594.84375,P12,D07,0,0,1
973,1.53,1645110594.859375,P12,D07,0,0,1
974,1.63,1645110594.875,P12,D07,0,0,1
975,1.67,1645110594.890625,P12,D07,0,0,1
976,1.66,1645110594.90625,P12,D07,0,0,1
977,1.62,1645110594.921875,P12,D07,0,0,1
978,1.54,1645110594.9375,P12,D07,0,0,1
979,1.41,1645110594.953125,P12,D07,0,0,1
980,1.17,1645110594.96875,P12,D07,0,0,1
981,0.82,1645110594.984375,P12,D07,0,0,1
982,0.37,1645110595.0,P12,D07,0,0,1
983,-0.15,1645110595.015625,P12,D07,0,0,1
984,-0.66,1645110595.03125,P12,D07,0,0,1
985,-1.07,1645110595.046875,P12,D07,0,0,1
986,-1.26,1645110595.0625,P12,D07,0,0,1
987,-1.21,1645110595.078125,P12,D07,0,0,1
988,-0.9,1645110595.09375,P12,D07,0,0,1
989,-0.45,1645110595.109375,P12,D07,0,0,1
990,-0.02,1645110595.125,P12,D07,0,0,1
991,0.26,1645110595.140625,P12,D07,0,0,1
992,0.31,1645110595.15625,P12,D07,0,0,1
993,0.17,1645110595.171875,P12,D07,0,0,1
994,-0.04,1645110595.1875,P12,D07,0,0,1
995,-0.2,1645110595.203125,P12,D07,0,0,1
996,-0.24,1645110595.21875,P12,D07,0,0,1
997,-0.18,1645110595.234375,P12,D07,0,0,1
998,-0.1,1645110595.25,P12,D07,0,0,1
999,-0.1,1645110595.265625,P12,D07,0,0,1
1000,-0.21,1645110595.28125,P12,D07,0,0,1
1001,-0.38,1645110595.296875,P12,D07,0,0,1
1002,-0.53,1645110595.3125,P12,D07,0,0,1
1003,-0.58,1645110595.328125,P12,D07,0,0,1
1004,-0.51,1645110595.34375,P12,D07,0,0,1
1005,-0.35,1645110595.359375,P12,D07,0,0,1
1006,-0.19,1645110595.375,P12,D07,0,0,1
1007,-0.1,1645110595.390625,P12,D07,0,0,1
1008,-0.1,1645110595.40625,P12,D07,0,0,1
1009,-0.16,1645110595.421875,P12,D07,0,0,1
1010,-0.24,1645110595.4375,P12,D07,0,0,1
1011,-0.3,1645110595.453125,P12,D07,0,0,1
1012,-0.31,1645110595.46875,P12,D07,0,0,1
1013,-0.28,1645110595.484375,P12,D07,0,0,1
1014,-0.22,1645110595.5,P12,D07,0,0,1
1015,-0.11,1645110595.515625,P12,D07,0,0,1
1016,0.02,1645110595.53125,P12,D07,0,0,1
1017,0.18,1645110595.546875,P12,D07,0,0,1
1018,0.3,1645110595.5625,P12,D07,0,0,1
1019,0.35,1645110595.578125,P12,D07,0,0,1
1020,0.31,1645110595.59375,P12,D07,0,0,1
1021,0.19,1645110595.609375,P12,D07,0,0,1
1022,0.05,1645110595.625,P12,D07,0,0,1
1023,-0.06,1645110595.640625,P12,D07,0,0,1
1024,-0.14,1645110595.65625,P12,D07,0,0,1
1025,-0.21,1645110595.671875,P12,D07,0,0,1
1026,-0.31,1645110595.6875,P12,D07,0,0,1
1027,-0.46,1645110595.703125,P12,D07,0,0,1
1028,-0.6,1645110595.71875,P12,D07,0,0,1
1029,-0.68,1645110595.734375,P12,D07,0,0,1
1030,-0.64,1645110595.75,P12,D07,0,0,1
1031,-0.48,1645110595.765625,P12,D07,0,0,1
1032,-0.25,1645110595.78125,P12,D07,0,0,1
1033,-0.02,1645110595.796875,P12,D07,0,0,1
1034,0.18,1645110595.8125,P12,D07,0,0,1
1035,0.33,1645110595.828125,P12,D07,0,0,1
1036,0.44,1645110595.84375,P12,D07,0,0,1
1037,0.51,1645110595.859375,P12,D07,0,0,1
1038,0.52,1645110595.875,P12,D07,0,0,1
1039,0.45,1645110595.890625,P12,D07,0,0,1
1040,0.34,1645110595.90625,P12,D07,0,0,1
1041,0.22,1645110595.921875,P12,D07,0,0,1
1042,0.16,1645110595.9375,P12,D07,0,0,1
1043,0.21,1645110595.953125,P12,D07,0,0,1
1044,0.33,1645110595.96875,P12,D07,0,0,1
1045,0.45,1645110595.984375,P12,D07,0,0,1
1046,0.48,1645110596.0,P12,D07,0,0,1
1047,0.4,1645110596.015625,P12,D07,0,0,1
1048,0.23,1645110596.03125,P12,D07,0,0,1
1049,0.08,1645110596.046875,P12,D07,0,0,1
1050,0.03,1645110596.0625,P12,D07,0,0,1
1051,0.13,1645110596.078125,P12,D07,0,0,1
1052,0.34,1645110596.09375,P12,D07,0,0,1
1053,0.54,1645110596.109375,P12,D07,0,0,1
1054,0.64,1645110596.125,P12,D07,0,0,1
1055,0.57,1645110596.140625,P12,D07,0,0,1
1056,0.36,1645110596.15625,P12,D07,0,0,1
1057,0.09,1645110596.171875,P12,D07,0,0,1
1058,-0.15,1645110596.1875,P12,D07,0,0,1
1059,-0.3,1645110596.203125,P12,D07,0,0,1
1060,-0.37,1645110596.21875,P12,D07,0,0,1
1061,-0.41,1645110596.234375,P12,D07,0,0,1
1062,-0.48,1645110596.25,P12,D07,0,0,1
1063,-0.57,1645110596.265625,P12,D07,0,0,1
1064,-0.64,1645110596.28125,P12,D07,0,0,1
1065,-0.59,1645110596.296875,P12,D07,0,0,1
1066,-0.4,1645110596.3125,P12,D07,0,0,1
1067,-0.08,1645110596.328125,P12,D07,0,0,1
1068,0.25,1645110596.34375,P12,D07,0,0,1
1069,0.47,1645110596.359375,P12,D07,0,0,1
1070,0.48,1645110596.375,P12,D07,0,0,1
1071,0.28,1645110596.390625,P12,D07,0,0,1
1072,-0.02,1645110596.40625,P12,D07,0,0,1
1073,-0.29,1645110596.421875,P12,D07,0,0,1
1074,-0.44,1645110596.4375,P12,D07,0,0,1
1075,-0.44,1645110596.453125,P12,D07,0,0,1
1076,-0.37,1645110596.46875,P12,D07,0,0,1
1077,-0.32,1645110596.484375,P12,D07,0,0,1
1078,-0.32,1645110596.5,P12,D07,0,0,1
1079,-0.36,1645110596.515625,P12,D07,0,0,1
1080,-0.36,1645110596.53125,P12,D07,0,0,1
1081,-0.26,1645110596.546875,P12,D07,0,0,1
1082,-0.05,1645110596.5625,P12,D07,0,0,1
1083,0.19,1645110596.578125,P12,D07,0,0,1
1084,0.33,1645110596.59375,P12,D07,0,0,1
1085,0.29,1645110596.609375,P12,D07,0,0,1
1086,0.12,1645110596.625,P12,D07,0,0,1
1087,-0.1,1645110596.640625,P12,D07,0,0,1
1088,-0.24,1645110596.65625,P12,D07,0,0,1
1089,-0.24,1645110596.671875,P12,D07,0,0,1
1090,-0.14,1645110596.6875,P12,D07,0,0,1
1091,-0.04,1645110596.703125,P12,D07,0,0,1
1092,-0.05,1645110596.71875,P12,D07,0,0,1
1093,-0.17,1645110596.734375,P12,D07,0,0,1
1094,-0.32,1645110596.75,P12,D07,0,0,1
1095,-0.41,1645110596.765625,P12,D07,0,0,1
1096,-0.36,1645110596.78125,P12,D07,0,0,1
1097,-0.21,1645110596.796875,P12,D07,0,0,1
1098,-0.07,1645110596.8125,P12,D07,0,0,1
1099,-0.05,1645110596.828125,P12,D07,0,0,1
1100,-0.17,1645110596.84375,P12,D07,0,0,1
1101,-0.37,1645110596.859375,P12,D07,0,0,1
1102,-0.54,1645110596.875,P12,D07,0,0,1
1103,-0.58,1645110596.890625,P12,D07,0,0,1
1104,-0.47,1645110596.90625,P12,D07,0,0,1
1105,-0.29,1645110596.921875,P12,D07,0,0,1
1106,-0.1,1645110596.9375,P12,D07,0,0,1
1107,0.05,1645110596.953125,P12,D07,0,0,1
1108,0.18,1645110596.96875,P12,D07,0,0,1
1109,0.35,1645110596.984375,P12,D07,0,0,1
1110,0.56,1645110597.0,P12,D07,0,0,1
1111,0.77,1645110597.015625,P12,D07,0,0,1
1112,0.89,1645110597.03125,P12,D07,0,0,1
1113,0.83,1645110597.046875,P12,D07,0,0,1
1114,0.61,1645110597.0625,P12,D07,0,0,1
1115,0.31,1645110597.078125,P12,D07,0,0,1
1116,0.09,1645110597.09375,P12,D07,0,0,1
1117,0.06,1645110597.109375,P12,D07,0,0,1
1118,0.24,1645110597.125,P12,D07,0,0,1
1119,0.53,1645110597.140625,P12,D07,0,0,1
1120,0.79,1645110597.15625,P12,D07,0,0,1
1121,0.88,1645110597.171875,P12,D07,0,0,1
1122,0.75,1645110597.1875,P12,D07,0,0,1
1123,0.42,1645110597.203125,P12,D07,0,0,1
1124,0.01,1645110597.21875,P12,D07,0,0,1
1125,-0.39,1645110597.234375,P12,D07,0,0,1
1126,-0.7,1645110597.25,P12,D07,0,0,1
1127,-0.9,1645110597.265625,P12,D07,0,0,1
1128,-0.99,1645110597.28125,P12,D07,0,0,1
1129,-0.99,1645110597.296875,P12,D07,0,0,1
1130,-0.89,1645110597.3125,P12,D07,0,0,1
1131,-0.71,1645110597.328125,P12,D07,0,0,1
1132,-0.46,1645110597.34375,P12,D07,0,0,1
1133,-0.18,1645110597.359375,P12,D07,0,0,1
1134,0.08,1645110597.375,P12,D07,0,0,1
1135,0.26,1645110597.390625,P12,D07,0,0,1
1136,0.34,1645110597.40625,P12,D07,0,0,1
1137,0.3,1645110597.421875,P12,D07,0,0,1
1138,0.16,1645110597.4375,P12,D07,0,0,1
1139,-0.04,1645110597.453125,P12,D07,0,0,1
1140,-0.27,1645110597.46875,P12,D07,0,0,1
1141,-0.47,1645110597.484375,P12,D07,0,0,1
1142,-0.57,1645110597.5,P12,D07,0,0,1
1143,-0.53,1645110597.515625,P12,D07,0,0,1
1144,-0.31,1645110597.53125,P12,D07,0,0,1
1145,0.06,1645110597.546875,P12,D07,0,0,1
1146,0.52,1645110597.5625,P12,D07,0,0,1
1147,0.97,1645110597.578125,P12,D07,0,0,1
1148,1.29,1645110597.59375,P12,D07,0,0,1
1149,1.43,1645110597.609375,P12,D07,0,0,1
1150,1.4,1645110597.625,P12,D07,0,0,1
1151,1.26,1645110597.640625,P12,D07,0,0,1
1152,1.08,1645110597.65625,P12,D07,0,0,1
1153,0.93,1645110597.671875,P12,D07,0,0,1
1154,0.82,1645110597.6875,P12,D07,0,0,1
1155,0.74,1645110597.703125,P12,D07,0,0,1
1156,0.63,1645110597.71875,P12,D07,0,0,1
1157,0.47,1645110597.734375,P12,D07,0,0,1
1158,0.22,1645110597.75,P12,D07,0,0,1
1159,-0.09,1645110597.765625,P12,D07,0,0,1
1160,-0.4,1645110597.78125,P12,D07,0,0,1
1161,-0.65,1645110597.796875,P12,D07,0,0,1
1162,-0.81,1645110597.8125,P12,D07,0,0,1
1163,-0.81,1645110597.828125,P12,D07,0,0,1
1164,-0.68,1645110597.84375,P12,D07,0,0,1
1165,-0.45,1645110597.859375,P12,D07,0,0,1
1166,-0.2,1645110597.875,P12,D07,0,0,1
1167,0.01,1645110597.890625,P12,D07,0,0,1
1168,0.14,1645110597.90625,P12,D07,0,0,1
1169,0.18,1645110597.921875,P12,D07,0,0,1
1170,0.14,1645110597.9375,P12,D07,0,0,1
1171,0.04,1645110597.953125,P12,D07,0,0,1
1172,-0.09,1645110597.96875,P12,D07,0,0,1
1173,-0.28,1645110597.984375,P12,D07,0,0,1
1174,-0.51,1645110598.0,P12,D07,0,0,1
1175,-0.78,1645110598.015625,P12,D07,0,0,1
1176,-1.02,1645110598.03125,P12,D07,0,0,1
1177,-1.14,1645110598.046875,P12,D07,0,0,1
1178,-1.09,1645110598.0625,P12,D07,0,0,1
1179,-0.83,1645110598.078125,P12,D07,0,0,1
1180,-0.43,1645110598.09375,P12,D07,0,0,1
1181,0.03,1645110598.109375,P12,D07,0,0,1
1182,0.44,1645110598.125,P12,D07,0,0,1
1183,0.73,1645110598.140625,P12,D07,0,0,1
1184,0.86,1645110598.15625,P12,D07,0,0,1
1185,0.87,1645110598.171875,P12,D07,0,0,1
1186,0.77,1645110598.1875,P12,D07,0,0,1
1187,0.62,1645110598.203125,P12,D07,0,0,1
1188,0.45,1645110598.21875,P12,D07,0,0,1
1189,0.26,1645110598.234375,P12,D07,0,0,1
1190,0.08,1645110598.25,P12,D07,0,0,1
1191,-0.08,1645110598.265625,P12,D07,0,0,1
1192,-0.2,1645110598.28125,P12,D07,0,0,1
1193,-0.25,1645110598.296875,P12,D07,0,0,1
1194,-0.25,1645110598.3125,P12,D07,0,0,1
1195,-0.21,1645110598.328125,P12,D07,0,0,1
1196,-0.18,1645110598.34375,P12,D07,0,0,1
1197,-0.21,1645110598.359375,P12,D07,0,0,1
1198,-0.35,1645110598.375,P12,D07,0,0,1
1199,-0.57,1645110598.390625,P12,D07,0,0,1
1200,-0.8,1645110598.40625,P12,D07,0,0,1
1201,-0.95,1645110598.421875,P12,D07,0,0,1
1202,-0.96,1645110598.4375,P12,D07,0,0,1
1203,-0.87,1645110598.453125,P12,D07,0,0,1
1204,-0.75,1645110598.46875,P12,D07,0,0,1
1205,-0.71,1645110598.484375,P12,D07,0,0,1
1206,-0.77,1645110598.5,P12,D07,0,0,1
1207,-0.86,1645110598.515625,P12,D07,0,0,1
1208,-0.85,1645110598.53125,P12,D07,0,0,1
1209,-0.65,1645110598.546875,P12,D07,0,0,1
1210,-0.29,1645110598.5625,P12,D07,0,0,1
1211,0.08,1645110598.578125,P12,D07,0,0,1
1212,0.27,1645110598.59375,P12,D07,0,0,1
1213,0.2,1645110598.609375,P12,D07,0,0,1
1214,-0.05,1645110598.625,P12,D07,0,0,1
1215,-0.28,1645110598.640625,P12,D07,0,0,1
1216,-0.27,1645110598.65625,P12,D07,0,0,1
1217,0.07,1645110598.671875,P12,D07,0,0,1
1218,0.65,1645110598.6875,P12,D07,0,0,1
1219,1.27,1645110598.703125,P12,D07,0,0,1
1220,1.72,1645110598.71875,P12,D07,0,0,1
1221,1.87,1645110598.734375,P12,D07,0,0,1
1222,1.74,1645110598.75,P12,D07,0,0,1
1223,1.41,1645110598.765625,P12,D07,0,0,1
1224,0.98,1645110598.78125,P12,D07,0,0,1
1225,0.55,1645110598.796875,P12,D07,0,0,1
1226,0.15,1645110598.8125,P12,D07,0,0,1
1227,-0.17,1645110598.828125,P12,D07,0,0,1
1228,-0.38,1645110598.84375,P12,D07,0,0,1
1229,-0.49,1645110598.859375,P12,D07,0,0,1
1230,-0.5,1645110598.875,P12,D07,0,0,1
1231,-0.46,1645110598.890625,P12,D07,0,0,1
1232,-0.44,1645110598.90625,P12,D07,0,0,1
1233,-0.48,1645110598.921875,P12,D07,0,0,1
1234,-0.57,1645110598.9375,P12,D07,0,0,1
1235,-0.65,1645110598.953125,P12,D07,0,0,1
1236,-0.67,1645110598.96875,P12,D07,0,0,1
1237,-0.58,1645110598.984375,P12,D07,0,0,1
1238,-0.39,1645110599.0,P12,D07,0,0,1
1239,-0.16,1645110599.015625,P12,D07,0,0,1
1240,0.03,1645110599.03125,P12,D07,0,0,1
1241,0.15,1645110599.046875,P12,D07,0,0,1
1242,0.17,1645110599.0625,P12,D07,0,0,1
1243,0.15,1645110599.078125,P12,D07,0,0,1
1244,0.14,1645110599.09375,P12,D07,0,0,1
1245,0.17,1645110599.109375,P12,D07,0,0,1
1246,0.28,1645110599.125,P12,D07,0,0,1
1247,0.48,1645110599.140625,P12,D07,0,0,1
1248,0.71,1645110599.15625,P12,D07,0,0,1
1249,0.91,1645110599.171875,P12,D07,0,0,1
1250,0.99,1645110599.1875,P12,D07,0,0,1
1251,0.88,1645110599.203125,P12,D07,0,0,1
1252,0.57,1645110599.21875,P12,D07,0,0,1
1253,0.11,1645110599.234375,P12,D07,0,0,1
1254,-0.39,1645110599.25,P12,D07,0,0,1
1255,-0.79,1645110599.265625,P12,D07,0,0,1
1256,-0.99,1645110599.28125,P12,D07,0,0,1
1257,-0.97,1645110599.296875,P12,D07,0,0,1
1258,-0.77,1645110599.3125,P12,D07,0,0,1
1259,-0.47,1645110599.328125,P12,D07,0,0,1
1260,-0.15,1645110599.34375,P12,D07,0,0,1
1261,0.1,1645110599.359375,P12,D07,0,0,1
1262,0.22,1645110599.375,P12,D07,0,0,1
1263,0.17,1645110599.390625,P12,D07,0,0,1
1264,-0.07,1645110599.40625,P12,D07,0,0,1
1265,-0.45,1645110599.421875,P12,D07,0,0,1
1266,-0.87,1645110599.4375,P12,D07,0,0,1
1267,-1.21,1645110599.453125,P12,D07,0,0,1
1268,-1.39,1645110599.46875,P12,D07,0,0,1
1269,-1.35,1645110599.484375,P12,D07,0,0,1
1270,-1.1,1645110599.5,P12,D07,0,0,1
1271,-0.69,1645110599.515625,P12,D07,0,0,1
1272,-0.19,1645110599.53125,P12,D07,0,0,1
1273,0.3,1645110599.546875,P12,D07,0,0,1
1274,0.69,1645110599.5625,P12,D07,0,0,1
1275,0.92,1645110599.578125,P12,D07,0,0,1
1276,0.95,1645110599.59375,P12,D07,0,0,1
1277,0.82,1645110599.609375,P12,D07,0,0,1
1278,0.61,1645110599.625,P12,D07,0,0,1
1279,0.41,1645110599.640625,P12,D07,0,0,1
1280,0.29,1645110599.65625,P12,D07,0,0,1
1281,0.23,1645110599.671875,P12,D07,0,0,1
1282,0.19,1645110599.6875,P12,D07,0,0,1
1283,0.11,1645110599.703125,P12,D07,0,0,1
1284,-0.04,1645110599.71875,P12,D07,0,0,1
1285,-0.2,1645110599.734375,P12,D07,0,0,1
1286,-0.31,1645110599.75,P12,D07,0,0,1
1287,-0.29,1645110599.765625,P12,D07,0,0,1
1288,-0.12,1645110599.78125,P12,D07,0,0,1
1289,0.18,1645110599.796875,P12,D07,0,0,1
1290,0.52,1645110599.8125,P12,D07,0,0,1
1291,0.79,1645110599.828125,P12,D07,0,0,1
1292,0.85,1645110599.84375,P12,D07,0,0,1
1293,0.66,1645110599.859375,P12,D07,0,0,1
1294,0.24,1645110599.875,P12,D07,0,0,1
1295,-0.26,1645110599.890625,P12,D07,0,0,1
1296,-0.67,1645110599.90625,P12,D07,0,0,1
1297,-0.81,1645110599.921875,P12,D07,0,0,1
1298,-0.63,1645110599.9375,P12,D07,0,0,1
1299,-0.2,1645110599.953125,P12,D07,0,0,1
1300,0.29,1645110599.96875,P12,D07,0,0,1
1301,0.66,1645110599.984375,P12,D07,0,0,1
1302,0.83,1645110600.0,P12,D07,0,0,1
1303,0.82,1645110600.015625,P12,D07,0,0,1
1304,0.74,1645110600.03125,P12,D07,0,0,1
1305,0.67,1645110600.046875,P12,D07,0,0,1
1306,0.62,1645110600.0625,P12,D07,0,0,1
1307,0.51,1645110600.078125,P12,D07,0,0,1
1308,0.28,1645110600.09375,P12,D07,0,0,1
1309,-0.08,1645110600.109375,P12,D07,0,0,1
1310,-0.49,1645110600.125,P12,D07,0,0,1
1311,-0.81,1645110600.140625,P12,D07,0,0,1
1312,-0.96,1645110600.15625,P12,D07,0,0,1
1313,-0.95,1645110600.171875,P12,D07,0,0,1
1314,-0.86,1645110600.1875,P12,D07,0,0,1
1315,-0.79,1645110600.203125,P12,D07,0,0,1
1316,-0.75,1645110600.21875,P12,D07,0,0,1
1317,-0.7,1645110600.234375,P12,D07,0,0,1
1318,-0.54,1645110600.25,P12,D07,0,0,1
1319,-0.26,1645110600.265625,P12,D07,0,0,1
1320,0.09,1645110600.28125,P12,D07,0,0,1
1321,0.38,1645110600.296875,P12,D07,0,0,1
1322,0.5,1645110600.3125,P12,D07,0,0,1
1323,0.44,1645110600.328125,P12,D07,0,0,1
1324,0.26,1645110600.34375,P12,D07,0,0,1
1325,0.06,1645110600.359375,P12,D07,0,0,1
1326,-0.07,1645110600.375,P12,D07,0,0,1
1327,-0.11,1645110600.390625,P12,D07,0,0,1
1328,-0.08,1645110600.40625,P12,D07,0,0,1
1329,-0.04,1645110600.421875,P12,D07,0,0,1
1330,0.04,1645110600.4375,P12,D07,0,0,1
1331,0.16,1645110600.453125,P12,D07,0,0,1
1332,0.36,1645110600.46875,P12,D07,0,0,1
1333,0.63,1645110600.484375,P12,D07,0,0,1
1334,0.93,1645110600.5,P12,D07,0,0,1
1335,1.18,1645110600.515625,P12,D07,0,0,1
1336,1.31,1645110600.53125,P12,D07,0,0,1
1337,1.29,1645110600.546875,P12,D07,0,0,1
1338,1.14,1645110600.5625,P12,D07,0,0,1
1339,0.92,1645110600.578125,P12,D07,0,0,1
1340,0.7,1645110600.59375,P12,D07,0,0,1
1341,0.52,1645110600.609375,P12,D07,0,0,1
1342,0.41,1645110600.625,P12,D07,0,0,1
1343,0.33,1645110600.640625,P12,D07,0,0,1
1344,0.24,1645110600.65625,P12,D07,0,0,1
1345,0.1,1645110600.671875,P12,D07,0,0,1
1346,-0.08,1645110600.6875,P12,D07,0,0,1
1347,-0.28,1645110600.703125,P12,D07,0,0,1
1348,-0.45,1645110600.71875,P12,D07,0,0,1
1349,-0.52,1645110600.734375,P12,D07,0,0,1
1350,-0.51,1645110600.75,P12,D07,0,0,1
1351,-0.43,1645110600.765625,P12,D07,0,0,1
1352,-0.36,1645110600.78125,P12,D07,0,0,1
1353,-0.37,1645110600.796875,P12,D07,0,0,1
1354,-0.46,1645110600.8125,P12,D07,0,0,1
1355,-0.59,1645110600.828125,P12,D07,0,0,1
1356,-0.7,1645110600.84375,P12,D07,0,0,1
1357,-0.73,1645110600.859375,P12,D07,0,0,1
1358,-0.64,1645110600.875,P12,D07,0,0,1
1359,-0.49,1645110600.890625,P12,D07,0,0,1
1360,-0.32,1645110600.90625,P12,D07,0,0,1
1361,-0.18,1645110600.921875,P12,D07,0,0,1
1362,-0.11,1645110600.9375,P12,D07,0,0,1
1363,-0.09,1645110600.953125,P12,D07,0,0,1
1364,-0.12,1645110600.96875,P12,D07,0,0,1
1365,-0.19,1645110600.984375,P12,D07,0,0,1
1366,-0.3,1645110601.0,P12,D07,0,0,1
1367,-0.45,1645110601.015625,P12,D07,0,0,1
1368,-0.59,1645110601.03125,P12,D07,0,0,1
1369,-0.66,1645110601.046875,P12,D07,0,0,1
1370,-0.59,1645110601.0625,P12,D07,0,0,1
1371,-0.39,1645110601.078125,P12,D07,0,0,1
1372,-0.1,1645110601.09375,P12,D07,0,0,1
1373,0.17,1645110601.109375,P12,D07,0,0,1
1374,0.35,1645110601.125,P12,D07,0,0,1
1375,0.42,1645110601.140625,P12,D07,0,0,1
1376,0.38,1645110601.15625,P12,D07,0,0,1
1377,0.29,1645110601.171875,P12,D07,0,0,1
1378,0.21,1645110601.1875,P12,D07,0,0,1
1379,0.16,1645110601.203125,P12,D07,0,0,1
1380,0.13,1645110601.21875,P12,D07,0,0,1
1381,0.13,1645110601.234375,P12,D07,0,0,1
1382,0.15,1645110601.25,P12,D07,0,0,1
1383,0.19,1645110601.265625,P12,D07,0,0,1
1384,0.26,1645110601.28125,P12,D07,0,0,1
1385,0.31,1645110601.296875,P12,D07,0,0,1
1386,0.33,1645110601.3125,P12,D07,0,0,1
1387,0.26,1645110601.328125,P12,D07,0,0,1
1388,0.09,1645110601.34375,P12,D07,0,0,1
1389,-0.19,1645110601.359375,P12,D07,0,0,1
1390,-0.51,1645110601.375,P12,D07,0,0,1
1391,-0.81,1645110601.390625,P12,D07,0,0,1
1392,-0.99,1645110601.40625,P12,D07,0,0,1
1393,-1.0,1645110601.421875,P12,D07,0,0,1
1394,-0.82,1645110601.4375,P12,D07,0,0,1
1395,-0.5,1645110601.453125,P12,D07,0,0,1
1396,-0.12,1645110601.46875,P12,D07,0,0,1
1397,0.2,1645110601.484375,P12,D07,0,0,1
1398,0.39,1645110601.5,P12,D07,0,0,1
1399,0.4,1645110601.515625,P12,D07,0,0,1
1400,0.25,1645110601.53125,P12,D07,0,0,1
1401,0.03,1645110601.546875,P12,D07,0,0,1
1402,-0.15,1645110601.5625,P12,D07,0,0,1
1403,-0.18,1645110601.578125,P12,D07,0,0,1
1404,-0.02,1645110601.59375,P12,D07,0,0,1
1405,0.26,1645110601.609375,P12,D07,0,0,1
1406,0.56,1645110601.625,P12,D07,0,0,1
1407,0.73,1645110601.640625,P12,D07,0,0,1
1408,0.71,1645110601.65625,P12,D07,0,0,1
1409,0.5,1645110601.671875,P12,D07,0,0,1
1410,0.16,1645110601.6875,P12,D07,0,0,1
1411,-0.18,1645110601.703125,P12,D07,0,0,1
1412,-0.43,1645110601.71875,P12,D07,0,0,1
1413,-0.56,1645110601.734375,P12,D07,0,0,1
1414,-0.55,1645110601.75,P12,D07,0,0,1
1415,-0.43,1645110601.765625,P12,D07,0,0,1
1416,-0.26,1645110601.78125,P12,D07,0,0,1
1417,-0.09,1645110601.796875,P12,D07,0,0,1
1418,0.03,1645110601.8125,P12,D07,0,0,1
1419,0.06,1645110601.828125,P12,D07,0,0,1
1420,-0.0,1645110601.84375,P12,D07,0,0,1
1421,-0.12,1645110601.859375,P12,D07,0,0,1
1422,-0.21,1645110601.875,P12,D07,0,0,1
1423,-0.22,1645110601.890625,P12,D07,0,0,1
1424,-0.13,1645110601.90625,P12,D07,0,0,1
1425,0.02,1645110601.921875,P12,D07,0,0,1
1426,0.17,1645110601.9375,P12,D07,0,0,1
1427,0.24,1645110601.953125,P12,D07,0,0,1
1428,0.18,1645110601.96875,P12,D07,0,0,1
1429,0.01,1645110601.984375,P12,D07,0,0,1
1430,-0.24,1645110602.0,P12,D07,0,0,1
1431,-0.47,1645110602.015625,P12,D07,0,0,1
1432,-0.61,1645110602.03125,P12,D07,0,0,1
1433,-0.58,1645110602.046875,P12,D07,0,0,1
1434,-0.38,1645110602.0625,P12,D07,0,0,1
1435,-0.04,1645110602.078125,P12,D07,0,0,1
1436,0.36,1645110602.09375,P12,D07,0,0,1
1437,0.73,1645110602.109375,P12,D07,0,0,1
1438,1.01,1645110602.125,P12,D07,0,0,1
1439,1.16,1645110602.140625,P12,D07,0,0,1
1440,1.15,1645110602.15625,P12,D07,0,0,1
1441,1.02,1645110602.171875,P12,D07,0,0,1
1442,0.76,1645110602.1875,P12,D07,0,0,1
1443,0.44,1645110602.203125,P12,D07,0,0,1
1444,0.11,1645110602.21875,P12,D07,0,0,1
1445,-0.16,1645110602.234375,P12,D07,0,0,1
1446,-0.32,1645110602.25,P12,D07,0,0,1
1447,-0.34,1645110602.265625,P12,D07,0,0,1
1448,-0.21,1645110602.28125,P12,D07,0,0,1
1449,0.04,1645110602.296875,P12,D07,0,0,1
1450,0.33,1645110602.3125,P12,D07,0,0,1
1451,0.59,1645110602.328125,P12,D07,0,0,1
1452,0.72,1645110602.34375,P12,D07,0,0,1
1453,0.7,1645110602.359375,P12,D07,0,0,1
1454,0.52,1645110602.375,P12,D07,0,0,1
1455,0.26,1645110602.390625,P12,D07,0,0,1
1456,0.03,1645110602.40625,P12,D07,0,0,1
1457,-0.1,1645110602.421875,P12,D07,0,0,1
1458,-0.1,1645110602.4375,P12,D07,0,0,1
1459,-0.03,1645110602.453125,P12,D07,0,0,1
1460,0.05,1645110602.46875,P12,D07,0,0,1
1461,0.09,1645110602.484375,P12,D07,0,0,1
1462,0.11,1645110602.5,P12,D07,0,0,1
1463,0.13,1645110602.515625,P12,D07,0,0,1
1464,0.18,1645110602.53125,P12,D07,0,0,1
1465,0.21,1645110602.546875,P12,D07,0,0,1
1466,0.16,1645110602.5625,P12,D07,0,0,1
1467,-0.02,1645110602.578125,P12,D07,0,0,1
1468,-0.32,1645110602.59375,P12,D07,0,0,1
1469,-0.63,1645110602.609375,P12,D07,0,0,1
1470,-0.82,1645110602.625,P12,D07,0,0,1
1471,-0.83,1645110602.640625,P12,D07,0,0,1
1472,-0.68,1645110602.65625,P12,D07,0,0,1
1473,-0.44,1645110602.671875,P12,D07,0,0,1
1474,-0.23,1645110602.6875,P12,D07,0,0,1
1475,-0.06,1645110602.703125,P12,D07,0,0,1
1476,0.07,1645110602.71875,P12,D07,0,0,1
1477,0.22,1645110602.734375,P12,D07,0,0,1
1478,0.41,1645110602.75,P12,D07,0,0,1
1479,0.57,1645110602.765625,P12,D07,0,0,1
1480,0.62,1645110602.78125,P12,D07,0,0,1
1481,0.5,1645110602.796875,P12,D07,0,0,1
1482,0.21,1645110602.8125,P12,D07,0,0,1
1483,-0.13,1645110602.828125,P12,D07,0,0,1
1484,-0.41,1645110602.84375,P12,D07,0,0,1
1485,-0.52,1645110602.859375,P12,D07,0,0,1
1486,-0.45,1645110602.875,P12,D07,0,0,1
1487,-0.26,1645110602.890625,P12,D07,0,0,1
1488,-0.06,1645110602.90625,P12,D07,0,0,1
1489,0.06,1645110602.921875,P12,D07,0,0,1
1490,0.06,1645110602.9375,P12,D07,0,0,1
1491,-0.03,1645110602.953125,P12,D07,0,0,1
1492,-0.16,1645110602.96875,P12,D07,0,0,1
1493,-0.27,1645110602.984375,P12,D07,0,0,1
1494,-0.32,1645110603.0,P12,D07,0,0,1
1495,-0.32,1645110603.015625,P12,D07,0,0,1
1496,-0.28,1645110603.03125,P12,D07,0,0,1
1497,-0.19,1645110603.046875,P12,D07,0,0,1
1498,-0.06,1645110603.0625,P12,D07,0,0,1
1499,0.11,1645110603.078125,P12,D07,0,0,1
1500,0.27,1645110603.09375,P12,D07,0,0,1
1501,0.38,1645110603.109375,P12,D07,0,0,1
1502,0.4,1645110603.125,P12,D07,0,0,1
1503,0.33,1645110603.140625,P12,D07,0,0,1
1504,0.23,1645110603.15625,P12,D07,0,0,1
1505,0.15,1645110603.171875,P12,D07,0,0,1
1506,0.15,1645110603.1875,P12,D07,0,0,1
1507,0.22,1645110603.203125,P12,D07,0,0,1
1508,0.27,1645110603.21875,P12,D07,0,0,1
1509,0.21,1645110603.234375,P12,D07,0,0,1
1510,0.01,1645110603.25,P12,D07,0,0,1
1511,-0.3,1645110603.265625,P12,D07,0,0,1
1512,-0.61,1645110603.28125,P12,D07,0,0,1
1513,-0.82,1645110603.296875,P12,D07,0,0,1
1514,-0.85,1645110603.3125,P12,D07,0,0,1
1515,-0.71,1645110603.328125,P12,D07,0,0,1
1516,-0.48,1645110603.34375,P12,D07,0,0,1
1517,-0.24,1645110603.359375,P12,D07,0,0,1
1518,-0.06,1645110603.375,P12,D07,0,0,1
1519,0.04,1645110603.390625,P12,D07,0,0,1
1520,0.05,1645110603.40625,P12,D07,0,0,1
1521,0.01,1645110603.421875,P12,D07,0,0,1
1522,-0.05,1645110603.4375,P12,D07,0,0,1
1523,-0.13,1645110603.453125,P12,D07,0,0,1
1524,-0.18,1645110603.46875,P12,D07,0,0,1
1525,-0.2,1645110603.484375,P12,D07,0,0,1
1526,-0.18,1645110603.5,P12,D07,0,0,1
1527,-0.15,1645110603.515625,P12,D07,0,0,1
1528,-0.12,1645110603.53125,P12,D07,0,0,1
1529,-0.13,1645110603.546875,P12,D07,0,0,1
1530,-0.15,1645110603.5625,P12,D07,0,0,1
1531,-0.17,1645110603.578125,P12,D07,0,0,1
1532,-0.12,1645110603.59375,P12,D07,0,0,1
1533,-0.01,1645110603.609375,P12,D07,0,0,1
1534,0.15,1645110603.625,P12,D07,0,0,1
1535,0.3,1645110603.640625,P12,D07,0,0,1
1536,0.4,1645110603.65625,P12,D07,0,0,1
1537,0.42,1645110603.671875,P12,D07,0,0,1
1538,0.4,1645110603.6875,P12,D07,0,0,1
1539,0.37,1645110603.703125,P12,D07,0,0,1
1540,0.38,1645110603.71875,P12,D07,0,0,1
1541,0.44,1645110603.734375,P12,D07,0,0,1
1542,0.5,1645110603.75,P12,D07,0,0,1
1543,0.51,1645110603.765625,P12,D07,0,0,1
1544,0.45,1645110603.78125,P12,D07,0,0,1
1545,0.33,1645110603.796875,P12,D07,0,0,1
1546,0.18,1645110603.8125,P12,D07,0,0,1
1547,0.04,1645110603.828125,P12,D07,0,0,1
1548,-0.05,1645110603.84375,P12,D07,0,0,1
1549,-0.09,1645110603.859375,P12,D07,0,0,1
1550,-0.09,1645110603.875,P12,D07,0,0,1
1551,-0.07,1645110603.890625,P12,D07,0,0,1
1552,-0.05,1645110603.90625,P12,D07,0,0,1
1553,-0.04,1645110603.921875,P12,D07,0,0,1
1554,-0.07,1645110603.9375,P12,D07,0,0,1
1555,-0.15,1645110603.953125,P12,D07,0,0,1
1556,-0.3,1645110603.96875,P12,D07,0,0,1
1557,-0.47,1645110603.984375,P12,D07,0,0,1
1558,-0.59,1645110604.0,P12,D07,0,0,1
1559,-0.6,1645110604.015625,P12,D07,0,0,1
1560,-0.44,1645110604.03125,P12,D07,0,0,1
1561,-0.17,1645110604.046875,P12,D07,0,0,1
1562,0.07,1645110604.0625,P12,D07,0,0,1
1563,0.16,1645110604.078125,P12,D07,0,0,1
1564,0.04,1645110604.09375,P12,D07,0,0,1
1565,-0.23,1645110604.109375,P12,D07,0,0,1
1566,-0.47,1645110604.125,P12,D07,0,0,1
1567,-0.56,1645110604.140625,P12,D07,0,0,1
1568,-0.44,1645110604.15625,P12,D07,0,0,1
1569,-0.21,1645110604.171875,P12,D07,0,0,1
1570,-0.02,1645110604.1875,P12,D07,0,0,1
1571,0.04,1645110604.203125,P12,D07,0,0,1
1572,-0.01,1645110604.21875,P12,D07,0,0,1
1573,-0.03,1645110604.234375,P12,D07,0,0,1
1574,0.12,1645110604.25,P12,D07,0,0,1
1575,0.5,1645110604.265625,P12,D07,0,0,1
1576,1.03,1645110604.28125,P12,D07,0,0,1
1577,1.51,1645110604.296875,P12,D07,0,0,1
1578,1.75,1645110604.3125,P12,D07,0,0,1
1579,1.69,1645110604.328125,P12,D07,0,0,1
1580,1.37,1645110604.34375,P12,D07,0,0,1
1581,0.94,1645110604.359375,P12,D07,0,0,1
1582,0.55,1645110604.375,P12,D07,0,0,1
1583,0.3,1645110604.390625,P12,D07,0,0,1
1584,0.22,1645110604.40625,P12,D07,0,0,1
1585,0.26,1645110604.421875,P12,D07,0,0,1
1586,0.36,1645110604.4375,P12,D07,0,0,1
1587,0.46,1645110604.453125,P12,D07,0,0,1
1588,0.51,1645110604.46875,P12,D07,0,0,1
1589,0.48,1645110604.484375,P12,D07,0,0,1
1590,0.35,1645110604.5,P12,D07,0,0,1
1591,0.09,1645110604.515625,P12,D07,0,0,1
1592,-0.26,1645110604.53125,P12,D07,0,0,1
1593,-0.66,1645110604.546875,P12,D07,0,0,1
1594,-1.04,1645110604.5625,P12,D07,0,0,1
1595,-1.32,1645110604.578125,P12,D07,0,0,1
1596,-1.41,1645110604.59375,P12,D07,0,0,1
1597,-1.29,1645110604.609375,P12,D07,0,0,1
1598,-0.98,1645110604.625,P12,D07,0,0,1
1599,-0.56,1645110604.640625,P12,D07,0,0,1
1600,-0.15,1645110604.65625,P12,D07,0,0,1
1601,0.14,1645110604.671875,P12,D07,0,0,1
1602,0.23,1645110604.6875,P12,D07,0,0,1
1603,0.11,1645110604.703125,P12,D07,0,0,1
1604,-0.16,1645110604.71875,P12,D07,0,0,1
1605,-0.46,1645110604.734375,P12,D07,0,0,1
1606,-0.7,1645110604.75,P12,D07,0,0,1
1607,-0.79,1645110604.765625,P12,D07,0,0,1
1608,-0.74,1645110604.78125,P12,D07,0,0,1
1609,-0.6,1645110604.796875,P12,D07,0,0,1
1610,-0.43,1645110604.8125,P12,D07,0,0,1
1611,-0.26,1645110604.828125,P12,D07,0,0,1
1612,-0.14,1645110604.84375,P12,D07,0,0,1
1613,-0.07,1645110604.859375,P12,D07,0,0,1
1614,-0.08,1645110604.875,P12,D07,0,0,1
1615,-0.17,1645110604.890625,P12,D07,0,0,1
1616,-0.31,1645110604.90625,P12,D07,0,0,1
1617,-0.45,1645110604.921875,P12,D07,0,0,1
1618,-0.5,1645110604.9375,P12,D07,0,0,1
1619,-0.41,1645110604.953125,P12,D07,0,0,1
1620,-0.18,1645110604.96875,P12,D07,0,0,1
1621,0.11,1645110604.984375,P12,D07,0,0,1
1622,0.37,1645110605.0,P12,D07,0,0,1
1623,0.51,1645110605.015625,P12,D07,0,0,1
1624,0.52,1645110605.03125,P12,D07,0,0,1
1625,0.45,1645110605.046875,P12,D07,0,0,1
1626,0.36,1645110605.0625,P12,D07,0,0,1
1627,0.32,1645110605.078125,P12,D07,0,0,1
1628,0.32,1645110605.09375,P12,D07,0,0,1
1629,0.33,1645110605.109375,P12,D07,0,0,1
1630,0.29,1645110605.125,P12,D07,0,0,1
1631,0.18,1645110605.140625,P12,D07,0,0,1
1632,0.01,1645110605.15625,P12,D07,0,0,1
1633,-0.15,1645110605.171875,P12,D07,0,0,1
1634,-0.25,1645110605.1875,P12,D07,0,0,1
1635,-0.23,1645110605.203125,P12,D07,0,0,1
1636,-0.11,1645110605.21875,P12,D07,0,0,1
1637,0.07,1645110605.234375,P12,D07,0,0,1
1638,0.23,1645110605.25,P12,D07,0,0,1
1639,0.32,1645110605.265625,P12,D07,0,0,1
1640,0.31,1645110605.28125,P12,D07,0,0,1
1641,0.2,1645110605.296875,P12,D07,0,0,1
1642,0.05,1645110605.3125,P12,D07,0,0,1
1643,-0.09,1645110605.328125,P12,D07,0,0,1
1644,-0.21,1645110605.34375,P12,D07,0,0,1
1645,-0.32,1645110605.359375,P12,D07,0,0,1
1646,-0.48,1645110605.375,P12,D07,0,0,1
1647,-0.69,1645110605.390625,P12,D07,0,0,1
1648,-0.94,1645110605.40625,P12,D07,0,0,1
1649,-1.18,1645110605.421875,P12,D07,0,0,1
1650,-1.31,1645110605.4375,P12,D07,0,0,1
1651,-1.25,1645110605.453125,P12,D07,0,0,1
1652,-0.96,1645110605.46875,P12,D07,0,0,1
1653,-0.45,1645110605.484375,P12,D07,0,0,1
1654,0.16,1645110605.5,P12,D07,0,0,1
1655,0.73,1645110605.515625,P12,D07,0,0,1
1656,1.1,1645110605.53125,P12,D07,0,0,1
1657,1.16,1645110605.546875,P12,D07,0,0,1
1658,0.92,1645110605.5625,P12,D07,0,0,1
1659,0.5,1645110605.578125,P12,D07,0,0,1
1660,0.09,1645110605.59375,P12,D07,0,0,1
1661,-0.14,1645110605.609375,P12,D07,0,0,1
1662,-0.14,1645110605.625,P12,D07,0,0,1
1663,0.03,1645110605.640625,P12,D07,0,0,1
1664,0.25,1645110605.65625,P12,D07,0,0,1
1665,0.37,1645110605.671875,P12,D07,0,0,1
1666,0.35,1645110605.6875,P12,D07,0,0,1
1667,0.23,1645110605.703125,P12,D07,0,0,1
1668,0.14,1645110605.71875,P12,D07,0,0,1
1669,0.17,1645110605.734375,P12,D07,0,0,1
1670,0.33,1645110605.75,P12,D07,0,0,1
1671,0.56,1645110605.765625,P12,D07,0,0,1
1672,0.75,1645110605.78125,P12,D07,0,0,1
1673,0.84,1645110605.796875,P12,D07,0,0,1
1674,0.8,1645110605.8125,P12,D07,0,0,1
1675,0.67,1645110605.828125,P12,D07,0,0,1
1676,0.5,1645110605.84375,P12,D07,0,0,1
1677,0.36,1645110605.859375,P12,D07,0,0,1
1678,0.26,1645110605.875,P12,D07,0,0,1
1679,0.21,1645110605.890625,P12,D07,0,0,1
1680,0.21,1645110605.90625,P12,D07,0,0,1
1681,0.24,1645110605.921875,P12,D07,0,0,1
1682,0.3,1645110605.9375,P12,D07,0,0,1
1683,0.36,1645110605.953125,P12,D07,0,0,1
1684,0.43,1645110605.96875,P12,D07,0,0,1
1685,0.51,1645110605.984375,P12,D07,0,0,1
1686,0.58,1645110606.0,P12,D07,0,0,1
1687,0.63,1645110606.015625,P12,D07,0,0,1
1688,0.62,1645110606.03125,P12,D07,0,0,1
1689,0.52,1645110606.046875,P12,D07,0,0,1
1690,0.33,1645110606.0625,P12,D07,0,0,1
1691,0.1,1645110606.078125,P12,D07,0,0,1
1692,-0.11,1645110606.09375,P12,D07,0,0,1
1693,-0.22,1645110606.109375,P12,D07,0,0,1
1694,-0.21,1645110606.125,P12,D07,0,0,1
1695,-0.1,1645110606.140625,P12,D07,0,0,1
1696,0.0,1645110606.15625,P12,D07,0,0,1
1697,-0.0,1645110606.171875,P12,D07,0,0,1
1698,-0.16,1645110606.1875,P12,D07,0,0,1
1699,-0.43,1645110606.203125,P12,D07,0,0,1
1700,-0.68,1645110606.21875,P12,D07,0,0,1
1701,-0.78,1645110606.234375,P12,D07,0,0,1
1702,-0.64,1645110606.25,P12,D07,0,0,1
1703,-0.3,1645110606.265625,P12,D07,0,0,1
1704,0.08,1645110606.28125,P12,D07,0,0,1
1705,0.33,1645110606.296875,P12,D07,0,0,1
1706,0.37,1645110606.3125,P12,D07,0,0,1
1707,0.19,1645110606.328125,P12,D07,0,0,1
1708,-0.07,1645110606.34375,P12,D07,0,0,1
1709,-0.29,1645110606.359375,P12,D07,0,0,1
1710,-0.4,1645110606.375,P12,D07,0,0,1
1711,-0.44,1645110606.390625,P12,D07,0,0,1
1712,-0.49,1645110606.40625,P12,D07,0,0,1
1713,-0.6,1645110606.421875,P12,D07,0,0,1
1714,-0.72,1645110606.4375,P12,D07,0,0,1
1715,-0.74,1645110606.453125,P12,D07,0,0,1
1716,-0.58,1645110606.46875,P12,D07,0,0,1
1717,-0.29,1645110606.484375,P12,D07,0,0,1
1718,-0.01,1645110606.5,P12,D07,0,0,1
1719,0.06,1645110606.515625,P12,D07,0,0,1
1720,-0.18,1645110606.53125,P12,D07,0,0,1
1721,-0.66,1645110606.546875,P12,D07,0,0,1
1722,-1.15,1645110606.5625,P12,D07,0,0,1
1723,-1.43,1645110606.578125,P12,D07,0,0,1
1724,-1.37,1645110606.59375,P12,D07,0,0,1
1725,-0.99,1645110606.609375,P12,D07,0,0,1
1726,-0.46,1645110606.625,P12,D07,0,0,1
1727,0.05,1645110606.640625,P12,D07,0,0,1
1728,0.4,1645110606.65625,P12,D07,0,0,1
1729,0.6,1645110606.671875,P12,D07,0,0,1
1730,0.68,1645110606.6875,P12,D07,0,0,1
1731,0.68,1645110606.703125,P12,D07,0,0,1
1732,0.62,1645110606.71875,P12,D07,0,0,1
1733,0.48,1645110606.734375,P12,D07,0,0,1
1734,0.28,1645110606.75,P12,D07,0,0,1
1735,0.08,1645110606.765625,P12,D07,0,0,1
1736,-0.04,1645110606.78125,P12,D07,0,0,1
1737,-0.01,1645110606.796875,P12,D07,0,0,1
1738,0.16,1645110606.8125,P12,D07,0,0,1
1739,0.37,1645110606.828125,P12,D07,0,0,1
1740,0.52,1645110606.84375,P12,D07,0,0,1
1741,0.53,1645110606.859375,P12,D07,0,0,1
1742,0.42,1645110606.875,P12,D07,0,0,1
1743,0.29,1645110606.890625,P12,D07,0,0,1
1744,0.2,1645110606.90625,P12,D07,0,0,1
1745,0.21,1645110606.921875,P12,D07,0,0,1
1746,0.26,1645110606.9375,P12,D07,0,0,1
1747,0.31,1645110606.953125,P12,D07,0,0,1
1748,0.27,1645110606.96875,P12,D07,0,0,1
1749,0.15,1645110606.984375,P12,D07,0,0,1
1750,-0.01,1645110607.0,P12,D07,0,0,1
1751,-0.12,1645110607.015625,P12,D07,0,0,1
1752,-0.13,1645110607.03125,P12,D07,0,0,1
1753,-0.01,1645110607.046875,P12,D07,0,0,1
1754,0.21,1645110607.0625,P12,D07,0,0,1
1755,0.48,1645110607.078125,P12,D07,0,0,1
1756,0.74,1645110607.09375,P12,D07,0,0,1
1757,0.94,1645110607.109375,P12,D07,0,0,1
1758,1.05,1645110607.125,P12,D07,0,0,1
1759,1.06,1645110607.140625,P12,D07,0,0,1
1760,1.01,1645110607.15625,P12,D07,0,0,1
1761,0.91,1645110607.171875,P12,D07,0,0,1
1762,0.79,1645110607.1875,P12,D07,0,0,1
1763,0.64,1645110607.203125,P12,D07,0,0,1
1764,0.43,1645110607.21875,P12,D07,0,0,1
1765,0.16,1645110607.234375,P12,D07,0,0,1
1766,-0.18,1645110607.25,P12,D07,0,0,1
1767,-0.54,1645110607.265625,P12,D07,0,0,1
1768,-0.85,1645110607.28125,P12,D07,0,0,1
1769,-1.1,1645110607.296875,P12,D07,0,0,1
1770,-1.27,1645110607.3125,P12,D07,0,0,1
1771,-1.42,1645110607.328125,P12,D07,0,0,1
1772,-1.56,1645110607.34375,P12,D07,0,0,1
1773,-1.71,1645110607.359375,P12,D07,0,0,1
1774,-1.81,1645110607.375,P12,D07,0,0,1
1775,-1.82,1645110607.390625,P12,D07,0,0,1
1776,-1.69,1645110607.40625,P12,D07,0,0,1
1777,-1.44,1645110607.421875,P12,D07,0,0,1
1778,-1.15,1645110607.4375,P12,D07,0,0,1
1779,-0.88,1645110607.453125,P12,D07,0,0,1
1780,-0.65,1645110607.46875,P12,D07,0,0,1
1781,-0.44,1645110607.484375,P12,D07,0,0,1
1782,-0.21,1645110607.5,P12,D07,0,0,1
1783,0.06,1645110607.515625,P12,D07,0,0,1
1784,0.33,1645110607.53125,P12,D07,0,0,1
1785,0.54,1645110607.546875,P12,D07,0,0,1
1786,0.63,1645110607.5625,P12,D07,0,0,1
1787,0.6,1645110607.578125,P12,D07,0,0,1
1788,0.46,1645110607.59375,P12,D07,0,0,1
1789,0.28,1645110607.609375,P12,D07,0,0,1
1790,0.08,1645110607.625,P12,D07,0,0,1
1791,-0.08,1645110607.640625,P12,D07,0,0,1
1792,-0.2,1645110607.65625,P12,D07,0,0,1
1793,-0.28,1645110607.671875,P12,D07,0,0,1
1794,-0.31,1645110607.6875,P12,D07,0,0,1
1795,-0.31,1645110607.703125,P12,D07,0,0,1
1796,-0.3,1645110607.71875,P12,D07,0,0,1
1797,-0.29,1645110607.734375,P12,D07,0,0,1
1798,-0.27,1645110607.75,P12,D07,0,0,1
1799,-0.22,1645110607.765625,P12,D07,0,0,1
1800,-0.12,1645110607.78125,P12,D07,0,0,1
1801,0.02,1645110607.796875,P12,D07,0,0,1
1802,0.16,1645110607.8125,P12,D07,0,0,1
1803,0.25,1645110607.828125,P12,D07,0,0,1
1804,0.25,1645110607.84375,P12,D07,0,0,1
1805,0.17,1645110607.859375,P12,D07,0,0,1
1806,0.08,1645110607.875,P12,D07,0,0,1
1807,0.09,1645110607.890625,P12,D07,0,0,1
1808,0.24,1645110607.90625,P12,D07,0,0,1
1809,0.52,1645110607.921875,P12,D07,0,0,1
1810,0.82,1645110607.9375,P12,D07,0,0,1
1811,1.05,1645110607.953125,P12,D07,0,0,1
1812,1.13,1645110607.96875,P12,D07,0,0,1
1813,1.12,1645110607.984375,P12,D07,0,0,1
1814,1.09,1645110608.0,P12,D07,0,0,1
1815,1.16,1645110608.015625,P12,D07,0,0,1
1816,1.35,1645110608.03125,P12,D07,0,0,1
1817,1.57,1645110608.046875,P12,D07,0,0,1
1818,1.65,1645110608.0625,P12,D07,0,0,1
1819,1.48,1645110608.078125,P12,D07,0,0,1
1820,1.03,1645110608.09375,P12,D07,0,0,1
1821,0.45,1645110608.109375,P12,D07,0,0,1
1822,-0.09,1645110608.125,P12,D07,0,0,1
1823,-0.4,1645110608.140625,P12,D07,0,0,1
1824,-0.43,1645110608.15625,P12,D07,0,0,1
1825,-0.26,1645110608.171875,P12,D07,0,0,1
1826,-0.05,1645110608.1875,P12,D07,0,0,1
1827,0.06,1645110608.203125,P12,D07,0,0,1
1828,-0.0,1645110608.21875,P12,D07,0,0,1
1829,-0.23,1645110608.234375,P12,D07,0,0,1
1830,-0.52,1645110608.25,P12,D07,0,0,1
1831,-0.79,1645110608.265625,P12,D07,0,0,1
1832,-0.95,1645110608.28125,P12,D07,0,0,1
1833,-0.98,1645110608.296875,P12,D07,0,0,1
1834,-0.9,1645110608.3125,P12,D07,0,0,1
1835,-0.78,1645110608.328125,P12,D07,0,0,1
1836,-0.72,1645110608.34375,P12,D07,0,0,1
1837,-0.73,1645110608.359375,P12,D07,0,0,1
1838,-0.81,1645110608.375,P12,D07,0,0,1
1839,-0.9,1645110608.390625,P12,D07,0,0,1
1840,-0.93,1645110608.40625,P12,D07,0,0,1
1841,-0.82,1645110608.421875,P12,D07,0,0,1
1842,-0.59,1645110608.4375,P12,D07,0,0,1
1843,-0.27,1645110608.453125,P12,D07,0,0,1
1844,0.09,1645110608.46875,P12,D07,0,0,1
1845,0.43,1645110608.484375,P12,D07,0,0,1
1846,0.74,1645110608.5,P12,D07,0,0,1
1847,1.01,1645110608.515625,P12,D07,0,0,1
1848,1.19,1645110608.53125,P12,D07,0,0,1
1849,1.28,1645110608.546875,P12,D07,0,0,1
1850,1.29,1645110608.5625,P12,D07,0,0,1
1851,1.24,1645110608.578125,P12,D07,0,0,1
1852,1.23,1645110608.59375,P12,D07,0,0,1
1853,1.29,1645110608.609375,P12,D07,0,0,1
1854,1.42,1645110608.625,P12,D07,0,0,1
1855,1.51,1645110608.640625,P12,D07,0,0,1
1856,1.46,1645110608.65625,P12,D07,0,0,1
1857,1.2,1645110608.671875,P12,D07,0,0,1
1858,0.75,1645110608.6875,P12,D07,0,0,1
1859,0.23,1645110608.703125,P12,D07,0,0,1
1860,-0.23,1645110608.71875,P12,D07,0,0,1
1861,-0.55,1645110608.734375,P12,D07,0,0,1
1862,-0.73,1645110608.75,P12,D07,0,0,1
1863,-0.84,1645110608.765625,P12,D07,0,0,1
1864,-0.92,1645110608.78125,P12,D07,0,0,1
1865,-0.98,1645110608.796875,P12,D07,0,0,1
1866,-0.96,1645110608.8125,P12,D07,0,0,1
1867,-0.83,1645110608.828125,P12,D07,0,0,1
1868,-0.58,1645110608.84375,P12,D07,0,0,1
1869,-0.31,1645110608.859375,P12,D07,0,0,1
1870,-0.14,1645110608.875,P12,D07,0,0,1
1871,-0.15,1645110608.890625,P12,D07,0,0,1
1872,-0.34,1645110608.90625,P12,D07,0,0,1
1873,-0.64,1645110608.921875,P12,D07,0,0,1
1874,-0.93,1645110608.9375,P12,D07,0,0,1
1875,-1.12,1645110608.953125,P12,D07,0,0,1
1876,-1.16,1645110608.96875,P12,D07,0,0,1
1877,-1.09,1645110608.984375,P12,D07,0,0,1
1878,-0.93,1645110609.0,P12,D07,0,0,1
1879,-0.73,1645110609.015625,P12,D07,0,0,1
1880,-0.53,1645110609.03125,P12,D07,0,0,1
1881,-0.35,1645110609.046875,P12,D07,0,0,1
1882,-0.18,1645110609.0625,P12,D07,0,0,1
1883,-0.06,1645110609.078125,P12,D07,0,0,1
1884,-0.0,1645110609.09375,P12,D07,0,0,1
1885,-0.03,1645110609.109375,P12,D07,0,0,1
1886,-0.14,1645110609.125,P12,D07,0,0,1
1887,-0.28,1645110609.140625,P12,D07,0,0,1
1888,-0.4,1645110609.15625,P12,D07,0,0,1
1889,-0.48,1645110609.171875,P12,D07,0,0,1
1890,-0.5,1645110609.1875,P12,D07,0,0,1
1891,-0.47,1645110609.203125,P12,D07,0,0,1
1892,-0.39,1645110609.21875,P12,D07,0,0,1
1893,-0.22,1645110609.234375,P12,D07,0,0,1
1894,0.05,1645110609.25,P12,D07,0,0,1
1895,0.41,1645110609.265625,P12,D07,0,0,1
1896,0.8,1645110609.28125,P12,D07,0,0,1
1897,1.12,1645110609.296875,P12,D07,0,0,1
1898,1.27,1645110609.3125,P12,D07,0,0,1
1899,1.21,1645110609.328125,P12,D07,0,0,1
1900,1.0,1645110609.34375,P12,D07,0,0,1
1901,0.75,1645110609.359375,P12,D07,0,0,1
1902,0.58,1645110609.375,P12,D07,0,0,1
1903,0.54,1645110609.390625,P12,D07,0,0,1
1904,0.58,1645110609.40625,P12,D07,0,0,1
1905,0.65,1645110609.421875,P12,D07,0,0,1
1906,0.65,1645110609.4375,P12,D07,0,0,1
1907,0.58,1645110609.453125,P12,D07,0,0,1
1908,0.46,1645110609.46875,P12,D07,0,0,1
1909,0.36,1645110609.484375,P12,D07,0,0,1
1910,0.32,1645110609.5,P12,D07,0,0,1
1911,0.36,1645110609.515625,P12,D07,0,0,1
1912,0.48,1645110609.53125,P12,D07,0,0,1
1913,0.61,1645110609.546875,P12,D07,0,0,1
1914,0.68,1645110609.5625,P12,D07,0,0,1
1915,0.6,1645110609.578125,P12,D07,0,0,1
1916,0.34,1645110609.59375,P12,D07,0,0,1
1917,-0.08,1645110609.609375,P12,D07,0,0,1
1918,-0.54,1645110609.625,P12,D07,0,0,1
1919,-0.89,1645110609.640625,P12,D07,0,0,1
1920,-1.01,1645110609.65625,P12,D07,0,0,1
1921,-0.89,1645110609.671875,P12,D07,0,0,1
1922,-0.61,1645110609.6875,P12,D07,0,0,1
1923,-0.32,1645110609.703125,P12,D07,0,0,1
1924,-0.15,1645110609.71875,P12,D07,0,0,1
1925,-0.11,1645110609.734375,P12,D07,0,0,1
1926,-0.15,1645110609.75,P12,D07,0,0,1
1927,-0.21,1645110609.765625,P12,D07,0,0,1
1928,-0.26,1645110609.78125,P12,D07,0,0,1
1929,-0.32,1645110609.796875,P12,D07,0,0,1
1930,-0.42,1645110609.8125,P12,D07,0,0,1
1931,-0.53,1645110609.828125,P12,D07,0,0,1
1932,-0.6,1645110609.84375,P12,D07,0,0,1
1933,-0.52,1645110609.859375,P12,D07,0,0,1
1934,-0.28,1645110609.875,P12,D07,0,0,1
1935,0.03,1645110609.890625,P12,D07,0,0,1
1936,0.28,1645110609.90625,P12,D07,0,0,1
1937,0.34,1645110609.921875,P12,D07,0,0,1
1938,0.18,1645110609.9375,P12,D07,0,0,1
1939,-0.14,1645110609.953125,P12,D07,0,0,1
1940,-0.5,1645110609.96875,P12,D07,0,0,1
1941,-0.81,1645110609.984375,P12,D07,0,0,1
1942,-1.0,1645110610.0,P12,D07,0,0,1
1943,-1.07,1645110610.015625,P12,D07,0,0,1
1944,-1.0,1645110610.03125,P12,D07,0,0,1
1945,-0.78,1645110610.046875,P12,D07,0,0,1
1946,-0.45,1645110610.0625,P12,D07,0,0,1
1947,-0.06,1645110610.078125,P12,D07,0,0,1
1948,0.27,1645110610.09375,P12,D07,0,0,1
1949,0.43,1645110610.109375,P12,D07,0,0,1
1950,0.39,1645110610.125,P12,D07,0,0,1
1951,0.24,1645110610.140625,P12,D07,0,0,1
1952,0.1,1645110610.15625,P12,D07,0,0,1
1953,0.06,1645110610.171875,P12,D07,0,0,1
1954,0.12,1645110610.1875,P12,D07,0,0,1
1955,0.22,1645110610.203125,P12,D07,0,0,1
1956,0.24,1645110610.21875,P12,D07,0,0,1
1957,0.17,1645110610.234375,P12,D07,0,0,1
1958,0.07,1645110610.25,P12,D07,0,0,1
1959,0.05,1645110610.265625,P12,D07,0,0,1
1960,0.17,1645110610.28125,P12,D07,0,0,1
1961,0.41,1645110610.296875,P12,D07,0,0,1
1962,0.67,1645110610.3125,P12,D07,0,0,1
1963,0.81,1645110610.328125,P12,D07,0,0,1
1964,0.78,1645110610.34375,P12,D07,0,0,1
1965,0.6,1645110610.359375,P12,D07,0,0,1
1966,0.39,1645110610.375,P12,D07,0,0,1
1967,0.27,1645110610.390625,P12,D07,0,0,1
1968,0.26,1645110610.40625,P12,D07,0,0,1
1969,0.35,1645110610.421875,P12,D07,0,0,1
1970,0.43,1645110610.4375,P12,D07,0,0,1
1971,0.42,1645110610.453125,P12,D07,0,0,1
1972,0.29,1645110610.46875,P12,D07,0,0,1
1973,0.1,1645110610.484375,P12,D07,0,0,1
1974,-0.05,1645110610.5,P12,D07,0,0,1
1975,-0.06,1645110610.515625,P12,D07,0,0,1
1976,0.12,1645110610.53125,P12,D07,0,0,1
1977,0.42,1645110610.546875,P12,D07,0,0,1
1978,0.75,1645110610.5625,P12,D07,0,0,1
1979,0.93,1645110610.578125,P12,D07,0,0,1
1980,0.89,1645110610.59375,P12,D07,0,0,1
1981,0.63,1645110610.609375,P12,D07,0,0,1
1982,0.23,1645110610.625,P12,D07,0,0,1
1983,-0.15,1645110610.640625,P12,D07,0,0,1
1984,-0.36,1645110610.65625,P12,D07,0,0,1
1985,-0.37,1645110610.671875,P12,D07,0,0,1
1986,-0.2,1645110610.6875,P12,D07,0,0,1
1987,0.05,1645110610.703125,P12,D07,0,0,1
1988,0.24,1645110610.71875,P12,D07,0,0,1
1989,0.29,1645110610.734375,P12,D07,0,0,1
1990,0.18,1645110610.75,P12,D07,0,0,1
1991,-0.06,1645110610.765625,P12,D07,0,0,1
1992,-0.35,1645110610.78125,P12,D07,0,0,1
1993,-0.59,1645110610.796875,P12,D07,0,0,1
1994,-0.69,1645110610.8125,P12,D07,0,0,1
1995,-0.64,1645110610.828125,P12,D07,0,0,1
1996,-0.46,1645110610.84375,P12,D07,0,0,1
1997,-0.24,1645110610.859375,P12,D07,0,0,1
1998,-0.05,1645110610.875,P12,D07,0,0,1
1999,0.03,1645110610.890625,P12,D07,0,0,1
2000,-0.02,1645110610.90625,P12,D07,0,0,1
2001,-0.2,1645110610.921875,P12,D07,0,0,1
2002,-0.45,1645110610.9375,P12,D07,0,0,1
2003,-0.72,1645110610.953125,P12,D07,0,0,1
2004,-0.93,1645110610.96875,P12,D07,0,0,1
2005,-1.03,1645110610.984375,P12,D07,0,0,1
2006,-0.98,1645110611.0,P12,D07,0,0,1
2007,-0.8,1645110611.015625,P12,D07,0,0,1
2008,-0.52,1645110611.03125,P12,D07,0,0,1
2009,-0.17,1645110611.046875,P12,D07,0,0,1
2010,0.21,1645110611.0625,P12,D07,0,0,1
2011,0.58,1645110611.078125,P12,D07,0,0,1
2012,0.9,1645110611.09375,P12,D07,0,0,1
2013,1.09,1645110611.109375,P12,D07,0,0,1
2014,1.07,1645110611.125,P12,D07,0,0,1
2015,0.83,1645110611.140625,P12,D07,0,0,1
2016,0.42,1645110611.15625,P12,D07,0,0,1
2017,-0.06,1645110611.171875,P12,D07,0,0,1
2018,-0.45,1645110611.1875,P12,D07,0,0,1
2019,-0.65,1645110611.203125,P12,D07,0,0,1
2020,-0.63,1645110611.21875,P12,D07,0,0,1
2021,-0.42,1645110611.234375,P12,D07,0,0,1
2022,-0.11,1645110611.25,P12,D07,0,0,1
2023,0.19,1645110611.265625,P12,D07,0,0,1
2024,0.41,1645110611.28125,P12,D07,0,0,1
2025,0.49,1645110611.296875,P12,D07,0,0,1
2026,0.45,1645110611.3125,P12,D07,0,0,1
2027,0.32,1645110611.328125,P12,D07,0,0,1
2028,0.16,1645110611.34375,P12,D07,0,0,1
2029,0.03,1645110611.359375,P12,D07,0,0,1
2030,-0.01,1645110611.375,P12,D07,0,0,1
2031,0.05,1645110611.390625,P12,D07,0,0,1
2032,0.16,1645110611.40625,P12,D07,0,0,1
2033,0.31,1645110611.421875,P12,D07,0,0,1
2034,0.46,1645110611.4375,P12,D07,0,0,1
2035,0.59,1645110611.453125,P12,D07,0,0,1
2036,0.72,1645110611.46875,P12,D07,0,0,1
2037,0.83,1645110611.484375,P12,D07,0,0,1
2038,0.89,1645110611.5,P12,D07,0,0,1
2039,0.84,1645110611.515625,P12,D07,0,0,1
2040,0.65,1645110611.53125,P12,D07,0,0,1
2041,0.34,1645110611.546875,P12,D07,0,0,1
2042,-0.02,1645110611.5625,P12,D07,0,0,1
2043,-0.35,1645110611.578125,P12,D07,0,0,1
2044,-0.56,1645110611.59375,P12,D07,0,0,1
2045,-0.63,1645110611.609375,P12,D07,0,0,1
2046,-0.59,1645110611.625,P12,D07,0,0,1
2047,-0.5,1645110611.640625,P12,D07,0,0,1
2048,-0.44,1645110611.65625,P12,D07,0,0,1
2049,-0.45,1645110611.671875,P12,D07,0,0,1
2050,-0.55,1645110611.6875,P12,D07,0,0,1
2051,-0.7,1645110611.703125,P12,D07,0,0,1
2052,-0.88,1645110611.71875,P12,D07,0,0,1
2053,-1.06,1645110611.734375,P12,D07,0,0,1
2054,-1.23,1645110611.75,P12,D07,0,0,1
2055,-1.36,1645110611.765625,P12,D07,0,0,1
2056,-1.41,1645110611.78125,P12,D07,0,0,1
2057,-1.37,1645110611.796875,P12,D07,0,0,1
2058,-1.22,1645110611.8125,P12,D07,0,0,1
2059,-1.0,1645110611.828125,P12,D07,0,0,1
2060,-0.72,1645110611.84375,P12,D07,0,0,1
2061,-0.45,1645110611.859375,P12,D07,0,0,1
2062,-0.21,1645110611.875,P12,D07,0,0,1
2063,-0.05,1645110611.890625,P12,D07,0,0,1
2064,0.01,1645110611.90625,P12,D07,0,0,1
2065,-0.06,1645110611.921875,P12,D07,0,0,1
2066,-0.23,1645110611.9375,P12,D07,0,0,1
2067,-0.46,1645110611.953125,P12,D07,0,0,1
2068,-0.65,1645110611.96875,P12,D07,0,0,1
2069,-0.69,1645110611.984375,P12,D07,0,0,1
2070,-0.54,1645110612.0,P12,D07,0,0,1
2071,-0.22,1645110612.015625,P12,D07,0,0,1
2072,0.15,1645110612.03125,P12,D07,0,0,1
2073,0.44,1645110612.046875,P12,D07,0,0,1
2074,0.54,1645110612.0625,P12,D07,0,0,1
2075,0.47,1645110612.078125,P12,D07,0,0,1
2076,0.35,1645110612.09375,P12,D07,0,0,1
2077,0.32,1645110612.109375,P12,D07,0,0,1
2078,0.47,1645110612.125,P12,D07,0,0,1
2079,0.79,1645110612.140625,P12,D07,0,0,1
2080,1.16,1645110612.15625,P12,D07,0,0,1
2081,1.45,1645110612.171875,P12,D07,0,0,1
2082,1.57,1645110612.1875,P12,D07,0,0,1
2083,1.51,1645110612.203125,P12,D07,0,0,1
2084,1.33,1645110612.21875,P12,D07,0,0,1
2085,1.14,1645110612.234375,P12,D07,0,0,1
2086,0.98,1645110612.25,P12,D07,0,0,1
2087,0.85,1645110612.265625,P12,D07,0,0,1
2088,0.7,1645110612.28125,P12,D07,0,0,1
2089,0.49,1645110612.296875,P12,D07,0,0,1
2090,0.18,1645110612.3125,P12,D07,0,0,1
2091,-0.2,1645110612.328125,P12,D07,0,0,1
2092,-0.56,1645110612.34375,P12,D07,0,0,1
2093,-0.83,1645110612.359375,P12,D07,0,0,1
2094,-0.93,1645110612.375,P12,D07,0,0,1
2095,-0.87,1645110612.390625,P12,D07,0,0,1
2096,-0.69,1645110612.40625,P12,D07,0,0,1
2097,-0.46,1645110612.421875,P12,D07,0,0,1
2098,-0.24,1645110612.4375,P12,D07,0,0,1
2099,-0.03,1645110612.453125,P12,D07,0,0,1
2100,0.19,1645110612.46875,P12,D07,0,0,1
2101,0.43,1645110612.484375,P12,D07,0,0,1
2102,0.69,1645110612.5,P12,D07,0,0,1
2103,0.87,1645110612.515625,P12,D07,0,0,1
2104,0.9,1645110612.53125,P12,D07,0,0,1
2105,0.72,1645110612.546875,P12,D07,0,0,1
2106,0.36,1645110612.5625,P12,D07,0,0,1
2107,-0.04,1645110612.578125,P12,D07,0,0,1
2108,-0.36,1645110612.59375,P12,D07,0,0,1
2109,-0.52,1645110612.609375,P12,D07,0,0,1
2110,-0.51,1645110612.625,P12,D07,0,0,1
2111,-0.41,1645110612.640625,P12,D07,0,0,1
2112,-0.26,1645110612.65625,P12,D07,0,0,1
2113,-0.12,1645110612.671875,P12,D07,0,0,1
2114,0.01,1645110612.6875,P12,D07,0,0,1
2115,0.11,1645110612.703125,P12,D07,0,0,1
2116,0.16,1645110612.71875,P12,D07,0,0,1
2117,0.11,1645110612.734375,P12,D07,0,0,1
2118,-0.05,1645110612.75,P12,D07,0,0,1
2119,-0.25,1645110612.765625,P12,D07,0,0,1
2120,-0.43,1645110612.78125,P12,D07,0,0,1
2121,-0.51,1645110612.796875,P12,D07,0,0,1
2122,-0.49,1645110612.8125,P12,D07,0,0,1
2123,-0.41,1645110612.828125,P12,D07,0,0,1
2124,-0.33,1645110612.84375,P12,D07,0,0,1
2125,-0.27,1645110612.859375,P12,D07,0,0,1
2126,-0.2,1645110612.875,P12,D07,0,0,1
2127,-0.05,1645110612.890625,P12,D07,0,0,1
2128,0.16,1645110612.90625,P12,D07,0,0,1
2129,0.38,1645110612.921875,P12,D07,0,0,1
2130,0.48,1645110612.9375,P12,D07,0,0,1
2131,0.39,1645110612.953125,P12,D07,0,0,1
2132,0.15,1645110612.96875,P12,D07,0,0,1
2133,-0.13,1645110612.984375,P12,D07,0,0,1
2134,-0.3,1645110613.0,P12,D07,0,0,1
2135,-0.28,1645110613.015625,P12,D07,0,0,1
2136,-0.12,1645110613.03125,P12,D07,0,0,1
2137,0.07,1645110613.046875,P12,D07,0,0,1
2138,0.14,1645110613.0625,P12,D07,0,0,1
2139,0.07,1645110613.078125,P12,D07,0,0,1
2140,-0.06,1645110613.09375,P12,D07,0,0,1
2141,-0.15,1645110613.109375,P12,D07,0,0,1
2142,-0.12,1645110613.125,P12,D07,0,0,1
2143,0.0,1645110613.140625,P12,D07,0,0,1
2144,0.12,1645110613.15625,P12,D07,0,0,1
2145,0.11,1645110613.171875,P12,D07,0,0,1
2146,-0.08,1645110613.1875,P12,D07,0,0,1
2147,-0.4,1645110613.203125,P12,D07,0,0,1
2148,-0.7,1645110613.21875,P12,D07,0,0,1
2149,-0.83,1645110613.234375,P12,D07,0,0,1
2150,-0.71,1645110613.25,P12,D07,0,0,1
2151,-0.38,1645110613.265625,P12,D07,0,0,1
2152,0.03,1645110613.28125,P12,D07,0,0,1
2153,0.34,1645110613.296875,P12,D07,0,0,1
2154,0.46,1645110613.3125,P12,D07,0,0,1
2155,0.37,1645110613.328125,P12,D07,0,0,1
2156,0.17,1645110613.34375,P12,D07,0,0,1
2157,-0.02,1645110613.359375,P12,D07,0,0,1
2158,-0.13,1645110613.375,P12,D07,0,0,1
2159,-0.16,1645110613.390625,P12,D07,0,0,1
2160,-0.19,1645110613.40625,P12,D07,0,0,1
2161,-0.29,1645110613.421875,P12,D07,0,0,1
2162,-0.46,1645110613.4375,P12,D07,0,0,1
2163,-0.65,1645110613.453125,P12,D07,0,0,1
2164,-0.77,1645110613.46875,P12,D07,0,0,1
2165,-0.82,1645110613.484375,P12,D07,0,0,1
2166,-0.82,1645110613.5,P12,D07,0,0,1
2167,-0.85,1645110613.515625,P12,D07,0,0,1
2168,-0.92,1645110613.53125,P12,D07,0,0,1
2169,-0.99,1645110613.546875,P12,D07,0,0,1
2170,-0.95,1645110613.5625,P12,D07,0,0,1
2171,-0.72,1645110613.578125,P12,D07,0,0,1
2172,-0.28,1645110613.59375,P12,D07,0,0,1
2173,0.25,1645110613.609375,P12,D07,0,0,1
2174,0.75,1645110613.625,P12,D07,0,0,1
2175,1.09,1645110613.640625,P12,D07,0,0,1
2176,1.22,1645110613.65625,P12,D07,0,0,1
2177,1.15,1645110613.671875,P12,D07,0,0,1
2178,0.93,1645110613.6875,P12,D07,0,0,1
2179,0.62,1645110613.703125,P12,D07,0,0,1
2180,0.28,1645110613.71875,P12,D07,0,0,1
2181,-0.02,1645110613.734375,P12,D07,0,0,1
2182,-0.21,1645110613.75,P12,D07,0,0,1
2183,-0.24,1645110613.765625,P12,D07,0,0,1
2184,-0.08,1645110613.78125,P12,D07,0,0,1
2185,0.22,1645110613.796875,P12,D07,0,0,1
2186,0.58,1645110613.8125,P12,D07,0,0,1
2187,0.91,1645110613.828125,P12,D07,0,0,1
2188,1.15,1645110613.84375,P12,D07,0,0,1
2189,1.3,1645110613.859375,P12,D07,0,0,1
2190,1.34,1645110613.875,P12,D07,0,0,1
2191,1.3,1645110613.890625,P12,D07,0,0,1
2192,1.16,1645110613.90625,P12,D07,0,0,1
2193,0.95,1645110613.921875,P12,D07,0,0,1
2194,0.69,1645110613.9375,P12,D07,0,0,1
2195,0.42,1645110613.953125,P12,D07,0,0,1
2196,0.19,1645110613.96875,P12,D07,0,0,1
2197,0.04,1645110613.984375,P12,D07,0,0,1
2198,-0.02,1645110614.0,P12,D07,0,0,1
2199,-0.02,1645110614.015625,P12,D07,0,0,1
2200,0.04,1645110614.03125,P12,D07,0,0,1
2201,0.15,1645110614.046875,P12,D07,0,0,1
2202,0.29,1645110614.0625,P12,D07,0,0,1
2203,0.43,1645110614.078125,P12,D07,0,0,1
2204,0.52,1645110614.09375,P12,D07,0,0,1
2205,0.51,1645110614.109375,P12,D07,0,0,1
2206,0.38,1645110614.125,P12,D07,0,0,1
2207,0.17,1645110614.140625,P12,D07,0,0,1
2208,-0.03,1645110614.15625,P12,D07,0,0,1
2209,-0.12,1645110614.171875,P12,D07,0,0,1
2210,-0.05,1645110614.1875,P12,D07,0,0,1
2211,0.14,1645110614.203125,P12,D07,0,0,1
2212,0.38,1645110614.21875,P12,D07,0,0,1
2213,0.57,1645110614.234375,P12,D07,0,0,1
2214,0.65,1645110614.25,P12,D07,0,0,1
2215,0.61,1645110614.265625,P12,D07,0,0,1
2216,0.48,1645110614.28125,P12,D07,0,0,1
2217,0.29,1645110614.296875,P12,D07,0,0,1
2218,0.08,1645110614.3125,P12,D07,0,0,1
2219,-0.13,1645110614.328125,P12,D07,0,0,1
2220,-0.3,1645110614.34375,P12,D07,0,0,1
2221,-0.4,1645110614.359375,P12,D07,0,0,1
2222,-0.41,1645110614.375,P12,D07,0,0,1
2223,-0.33,1645110614.390625,P12,D07,0,0,1
2224,-0.2,1645110614.40625,P12,D07,0,0,1
2225,-0.08,1645110614.421875,P12,D07,0,0,1
2226,-0.01,1645110614.4375,P12,D07,0,0,1
2227,-0.01,1645110614.453125,P12,D07,0,0,1
2228,-0.05,1645110614.46875,P12,D07,0,0,1
2229,-0.1,1645110614.484375,P12,D07,0,0,1
2230,-0.12,1645110614.5,P12,D07,0,0,1
2231,-0.12,1645110614.515625,P12,D07,0,0,1
2232,-0.13,1645110614.53125,P12,D07,0,0,1
2233,-0.18,1645110614.546875,P12,D07,0,0,1
2234,-0.31,1645110614.5625,P12,D07,0,0,1
2235,-0.5,1645110614.578125,P12,D07,0,0,1
2236,-0.73,1645110614.59375,P12,D07,0,0,1
2237,-0.96,1645110614.609375,P12,D07,0,0,1
2238,-1.11,1645110614.625,P12,D07,0,0,1
2239,-1.13,1645110614.640625,P12,D07,0,0,1
2240,-0.97,1645110614.65625,P12,D07,0,0,1
2241,-0.66,1645110614.671875,P12,D07,0,0,1
2242,-0.25,1645110614.6875,P12,D07,0,0,1
2243,0.14,1645110614.703125,P12,D07,0,0,1
2244,0.4,1645110614.71875,P12,D07,0,0,1
2245,0.46,1645110614.734375,P12,D07,0,0,1
2246,0.33,1645110614.75,P12,D07,0,0,1
2247,0.1,1645110614.765625,P12,D07,0,0,1
2248,-0.13,1645110614.78125,P12,D07,0,0,1
2249,-0.27,1645110614.796875,P12,D07,0,0,1
2250,-0.3,1645110614.8125,P12,D07,0,0,1
2251,-0.28,1645110614.828125,P12,D07,0,0,1
2252,-0.27,1645110614.84375,P12,D07,0,0,1
2253,-0.34,1645110614.859375,P12,D07,0,0,1
2254,-0.47,1645110614.875,P12,D07,0,0,1
2255,-0.57,1645110614.890625,P12,D07,0,0,1
2256,-0.58,1645110614.90625,P12,D07,0,0,1
2257,-0.44,1645110614.921875,P12,D07,0,0,1
2258,-0.16,1645110614.9375,P12,D07,0,0,1
2259,0.15,1645110614.953125,P12,D07,0,0,1
2260,0.4,1645110614.96875,P12,D07,0,0,1
2261,0.48,1645110614.984375,P12,D07,0,0,1
2262,0.38,1645110615.0,P12,D07,0,0,1
2263,0.16,1645110615.015625,P12,D07,0,0,1
2264,-0.1,1645110615.03125,P12,D07,0,0,1
2265,-0.27,1645110615.046875,P12,D07,0,0,1
2266,-0.31,1645110615.0625,P12,D07,0,0,1
2267,-0.2,1645110615.078125,P12,D07,0,0,1
2268,0.02,1645110615.09375,P12,D07,0,0,1
2269,0.27,1645110615.109375,P12,D07,0,0,1
2270,0.47,1645110615.125,P12,D07,0,0,1
2271,0.56,1645110615.140625,P12,D07,0,0,1
2272,0.52,1645110615.15625,P12,D07,0,0,1
2273,0.36,1645110615.171875,P12,D07,0,0,1
2274,0.12,1645110615.1875,P12,D07,0,0,1
2275,-0.11,1645110615.203125,P12,D07,0,0,1
2276,-0.28,1645110615.21875,P12,D07,0,0,1
2277,-0.32,1645110615.234375,P12,D07,0,0,1
2278,-0.24,1645110615.25,P12,D07,0,0,1
2279,-0.06,1645110615.265625,P12,D07,0,0,1
2280,0.13,1645110615.28125,P12,D07,0,0,1
2281,0.28,1645110615.296875,P12,D07,0,0,1
2282,0.34,1645110615.3125,P12,D07,0,0,1
2283,0.3,1645110615.328125,P12,D07,0,0,1
2284,0.16,1645110615.34375,P12,D07,0,0,1
2285,-0.02,1645110615.359375,P12,D07,0,0,1
2286,-0.23,1645110615.375,P12,D07,0,0,1
2287,-0.42,1645110615.390625,P12,D07,0,0,1
2288,-0.56,1645110615.40625,P12,D07,0,0,1
2289,-0.63,1645110615.421875,P12,D07,0,0,1
2290,-0.62,1645110615.4375,P12,D07,0,0,1
2291,-0.54,1645110615.453125,P12,D07,0,0,1
2292,-0.39,1645110615.46875,P12,D07,0,0,1
2293,-0.18,1645110615.484375,P12,D07,0,0,1
2294,0.1,1645110615.5,P12,D07,0,0,1
2295,0.43,1645110615.515625,P12,D07,0,0,1
2296,0.76,1645110615.53125,P12,D07,0,0,1
2297,1.04,1645110615.546875,P12,D07,0,0,1
2298,1.18,1645110615.5625,P12,D07,0,0,1
2299,1.1,1645110615.578125,P12,D07,0,0,1
2300,0.8,1645110615.59375,P12,D07,0,0,1
2301,0.37,1645110615.609375,P12,D07,0,0,1
2302,-0.09,1645110615.625,P12,D07,0,0,1
2303,-0.42,1645110615.640625,P12,D07,0,0,1
2304,-0.58,1645110615.65625,P12,D07,0,0,1
2305,-0.56,1645110615.671875,P12,D07,0,0,1
2306,-0.47,1645110615.6875,P12,D07,0,0,1
2307,-0.38,1645110615.703125,P12,D07,0,0,1
2308,-0.35,1645110615.71875,P12,D07,0,0,1
2309,-0.36,1645110615.734375,P12,D07,0,0,1
2310,-0.36,1645110615.75,P12,D07,0,0,1
2311,-0.33,1645110615.765625,P12,D07,0,0,1
2312,-0.28,1645110615.78125,P12,D07,0,0,1
2313,-0.24,1645110615.796875,P12,D07,0,0,1
2314,-0.24,1645110615.8125,P12,D07,0,0,1
2315,-0.28,1645110615.828125,P12,D07,0,0,1
2316,-0.29,1645110615.84375,P12,D07,0,0,1
2317,-0.21,1645110615.859375,P12,D07,0,0,1
2318,-0.04,1645110615.875,P12,D07,0,0,1
2319,0.17,1645110615.890625,P12,D07,0,0,1
2320,0.31,1645110615.90625,P12,D07,0,0,1
2321,0.27,1645110615.921875,P12,D07,0,0,1
2322,0.04,1645110615.9375,P12,D07,0,0,1
2323,-0.31,1645110615.953125,P12,D07,0,0,1
2324,-0.65,1645110615.96875,P12,D07,0,0,1
2325,-0.85,1645110615.984375,P12,D07,0,0,1
2326,-0.83,1645110616.0,P12,D07,0,0,1
2327,-0.6,1645110616.015625,P12,D07,0,0,1
2328,-0.23,1645110616.03125,P12,D07,0,0,1
2329,0.18,1645110616.046875,P12,D07,0,0,1
2330,0.52,1645110616.0625,P12,D07,0,0,1
2331,0.71,1645110616.078125,P12,D07,0,0,1
2332,0.73,1645110616.09375,P12,D07,0,0,1
2333,0.59,1645110616.109375,P12,D07,0,0,1
2334,0.37,1645110616.125,P12,D07,0,0,1
2335,0.14,1645110616.140625,P12,D07,0,0,1
2336,-0.03,1645110616.15625,P12,D07,0,0,1
2337,-0.1,1645110616.171875,P12,D07,0,0,1
2338,-0.07,1645110616.1875,P12,D07,0,0,1
2339,0.02,1645110616.203125,P12,D07,0,0,1
2340,0.14,1645110616.21875,P12,D07,0,0,1
2341,0.26,1645110616.234375,P12,D07,0,0,1
2342,0.34,1645110616.25,P12,D07,0,0,1
2343,0.39,1645110616.265625,P12,D07,0,0,1
2344,0.39,1645110616.28125,P12,D07,0,0,1
2345,0.34,1645110616.296875,P12,D07,0,0,1
2346,0.25,1645110616.3125,P12,D07,0,0,1
2347,0.14,1645110616.328125,P12,D07,0,0,1
2348,0.04,1645110616.34375,P12,D07,0,0,1
2349,-0.05,1645110616.359375,P12,D07,0,0,1
2350,-0.13,1645110616.375,P12,D07,0,0,1
2351,-0.24,1645110616.390625,P12,D07,0,0,1
2352,-0.38,1645110616.40625,P12,D07,0,0,1
2353,-0.55,1645110616.421875,P12,D07,0,0,1
2354,-0.7,1645110616.4375,P12,D07,0,0,1
2355,-0.79,1645110616.453125,P12,D07,0,0,1
2356,-0.76,1645110616.46875,P12,D07,0,0,1
2357,-0.6,1645110616.484375,P12,D07,0,0,1
2358,-0.31,1645110616.5,P12,D07,0,0,1
2359,0.09,1645110616.515625,P12,D07,0,0,1
2360,0.56,1645110616.53125,P12,D07,0,0,1
2361,1.06,1645110616.546875,P12,D07,0,0,1
2362,1.48,1645110616.5625,P12,D07,0,0,1
2363,1.72,1645110616.578125,P12,D07,0,0,1
2364,1.7,1645110616.59375,P12,D07,0,0,1
2365,1.4,1645110616.609375,P12,D07,0,0,1
2366,0.86,1645110616.625,P12,D07,0,0,1
2367,0.23,1645110616.640625,P12,D07,0,0,1
2368,-0.35,1645110616.65625,P12,D07,0,0,1
2369,-0.75,1645110616.671875,P12,D07,0,0,1
2370,-0.91,1645110616.6875,P12,D07,0,0,1
2371,-0.84,1645110616.703125,P12,D07,0,0,1
2372,-0.57,1645110616.71875,P12,D07,0,0,1
2373,-0.19,1645110616.734375,P12,D07,0,0,1
2374,0.22,1645110616.75,P12,D07,0,0,1
2375,0.56,1645110616.765625,P12,D07,0,0,1
2376,0.76,1645110616.78125,P12,D07,0,0,1
2377,0.76,1645110616.796875,P12,D07,0,0,1
2378,0.59,1645110616.8125,P12,D07,0,0,1
2379,0.34,1645110616.828125,P12,D07,0,0,1
2380,0.11,1645110616.84375,P12,D07,0,0,1
2381,-0.01,1645110616.859375,P12,D07,0,0,1
2382,-0.03,1645110616.875,P12,D07,0,0,1
2383,-0.01,1645110616.890625,P12,D07,0,0,1
2384,-0.04,1645110616.90625,P12,D07,0,0,1
2385,-0.14,1645110616.921875,P12,D07,0,0,1
2386,-0.3,1645110616.9375,P12,D07,0,0,1
2387,-0.44,1645110616.953125,P12,D07,0,0,1
2388,-0.53,1645110616.96875,P12,D07,0,0,1
2389,-0.57,1645110616.984375,P12,D07,0,0,1
2390,-0.59,1645110617.0,P12,D07,0,0,1
2391,-0.63,1645110617.015625,P12,D07,0,0,1
2392,-0.71,1645110617.03125,P12,D07,0,0,1
2393,-0.76,1645110617.046875,P12,D07,0,0,1
2394,-0.75,1645110617.0625,P12,D07,0,0,1
2395,-0.65,1645110617.078125,P12,D07,0,0,1
2396,-0.49,1645110617.09375,P12,D07,0,0,1
2397,-0.33,1645110617.109375,P12,D07,0,0,1
2398,-0.21,1645110617.125,P12,D07,0,0,1
2399,-0.15,1645110617.140625,P12,D07,0,0,1
2400,-0.14,1645110617.15625,P12,D07,0,0,1
2401,-0.17,1645110617.171875,P12,D07,0,0,1
2402,-0.23,1645110617.1875,P12,D07,0,0,1
2403,-0.32,1645110617.203125,P12,D07,0,0,1
2404,-0.4,1645110617.21875,P12,D07,0,0,1
2405,-0.42,1645110617.234375,P12,D07,0,0,1
2406,-0.3,1645110617.25,P12,D07,0,0,1
2407,-0.03,1645110617.265625,P12,D07,0,0,1
2408,0.32,1645110617.28125,P12,D07,0,0,1
2409,0.64,1645110617.296875,P12,D07,0,0,1
2410,0.79,1645110617.3125,P12,D07,0,0,1
2411,0.73,1645110617.328125,P12,D07,0,0,1
2412,0.5,1645110617.34375,P12,D07,0,0,1
2413,0.21,1645110617.359375,P12,D07,0,0,1
2414,-0.04,1645110617.375,P12,D07,0,0,1
2415,-0.19,1645110617.390625,P12,D07,0,0,1
2416,-0.24,1645110617.40625,P12,D07,0,0,1
2417,-0.22,1645110617.421875,P12,D07,0,0,1
2418,-0.16,1645110617.4375,P12,D07,0,0,1
2419,-0.06,1645110617.453125,P12,D07,0,0,1
2420,0.11,1645110617.46875,P12,D07,0,0,1
2421,0.3,1645110617.484375,P12,D07,0,0,1
2422,0.45,1645110617.5,P12,D07,0,0,1
2423,0.52,1645110617.515625,P12,D07,0,0,1
2424,0.46,1645110617.53125,P12,D07,0,0,1
2425,0.31,1645110617.546875,P12,D07,0,0,1
2426,0.16,1645110617.5625,P12,D07,0,0,1
2427,0.1,1645110617.578125,P12,D07,0,0,1
2428,0.19,1645110617.59375,P12,D07,0,0,1
2429,0.38,1645110617.609375,P12,D07,0,0,1
2430,0.58,1645110617.625,P12,D07,0,0,1
2431,0.69,1645110617.640625,P12,D07,0,0,1
2432,0.67,1645110617.65625,P12,D07,0,0,1
2433,0.53,1645110617.671875,P12,D07,0,0,1
2434,0.35,1645110617.6875,P12,D07,0,0,1
2435,0.19,1645110617.703125,P12,D07,0,0,1
2436,0.08,1645110617.71875,P12,D07,0,0,1
2437,0.01,1645110617.734375,P12,D07,0,0,1
2438,-0.05,1645110617.75,P12,D07,0,0,1
2439,-0.12,1645110617.765625,P12,D07,0,0,1
2440,-0.2,1645110617.78125,P12,D07,0,0,1
2441,-0.26,1645110617.796875,P12,D07,0,0,1
2442,-0.26,1645110617.8125,P12,D07,0,0,1
2443,-0.2,1645110617.828125,P12,D07,0,0,1
2444,-0.1,1645110617.84375,P12,D07,0,0,1
2445,0.02,1645110617.859375,P12,D07,0,0,1
2446,0.12,1645110617.875,P12,D07,0,0,1
2447,0.17,1645110617.890625,P12,D07,0,0,1
2448,0.17,1645110617.90625,P12,D07,0,0,1
2449,0.1,1645110617.921875,P12,D07,0,0,1
2450,-0.03,1645110617.9375,P12,D07,0,0,1
2451,-0.21,1645110617.953125,P12,D07,0,0,1
2452,-0.4,1645110617.96875,P12,D07,0,0,1
2453,-0.52,1645110617.984375,P12,D07,0,0,1
2454,-0.53,1645110618.0,P12,D07,0,0,1
2455,-0.42,1645110618.015625,P12,D07,0,0,1
2456,-0.22,1645110618.03125,P12,D07,0,0,1
2457,-0.01,1645110618.046875,P12,D07,0,0,1
2458,0.15,1645110618.0625,P12,D07,0,0,1
2459,0.23,1645110618.078125,P12,D07,0,0,1
2460,0.27,1645110618.09375,P12,D07,0,0,1
2461,0.3,1645110618.109375,P12,D07,0,0,1
2462,0.35,1645110618.125,P12,D07,0,0,1
2463,0.4,1645110618.140625,P12,D07,0,0,1
2464,0.38,1645110618.15625,P12,D07,0,0,1
2465,0.29,1645110618.171875,P12,D07,0,0,1
2466,0.14,1645110618.1875,P12,D07,0,0,1
2467,-0.03,1645110618.203125,P12,D07,0,0,1
2468,-0.12,1645110618.21875,P12,D07,0,0,1
2469,-0.12,1645110618.234375,P12,D07,0,0,1
2470,-0.04,1645110618.25,P12,D07,0,0,1
2471,0.06,1645110618.265625,P12,D07,0,0,1
2472,0.13,1645110618.28125,P12,D07,0,0,1
2473,0.14,1645110618.296875,P12,D07,0,0,1
2474,0.1,1645110618.3125,P12,D07,0,0,1
2475,0.02,1645110618.328125,P12,D07,0,0,1
2476,-0.07,1645110618.34375,P12,D07,0,0,1
2477,-0.17,1645110618.359375,P12,D07,0,0,1
2478,-0.3,1645110618.375,P12,D07,0,0,1
2479,-0.47,1645110618.390625,P12,D07,0,0,1
2480,-0.69,1645110618.40625,P12,D07,0,0,1
2481,-0.92,1645110618.421875,P12,D07,0,0,1
2482,-1.09,1645110618.4375,P12,D07,0,0,1
2483,-1.13,1645110618.453125,P12,D07,0,0,1
2484,-0.97,1645110618.46875,P12,D07,0,0,1
2485,-0.63,1645110618.484375,P12,D07,0,0,1
2486,-0.18,1645110618.5,P12,D07,0,0,1
2487,0.27,1645110618.515625,P12,D07,0,0,1
2488,0.6,1645110618.53125,P12,D07,0,0,1
2489,0.72,1645110618.546875,P12,D07,0,0,1
2490,0.64,1645110618.5625,P12,D07,0,0,1
2491,0.42,1645110618.578125,P12,D07,0,0,1
2492,0.15,1645110618.59375,P12,D07,0,0,1
2493,-0.07,1645110618.609375,P12,D07,0,0,1
2494,-0.17,1645110618.625,P12,D07,0,0,1
2495,-0.12,1645110618.640625,P12,D07,0,0,1
2496,0.04,1645110618.65625,P12,D07,0,0,1
2497,0.26,1645110618.671875,P12,D07,0,0,1
2498,0.44,1645110618.6875,P12,D07,0,0,1
2499,0.5,1645110618.703125,P12,D07,0,0,1
2500,0.4,1645110618.71875,P12,D07,0,0,1
2501,0.19,1645110618.734375,P12,D07,0,0,1
2502,-0.01,1645110618.75,P12,D07,0,0,1
2503,-0.08,1645110618.765625,P12,D07,0,0,1
2504,0.04,1645110618.78125,P12,D07,0,0,1
2505,0.31,1645110618.796875,P12,D07,0,0,1
2506,0.57,1645110618.8125,P12,D07,0,0,1
2507,0.72,1645110618.828125,P12,D07,0,0,1
2508,0.67,1645110618.84375,P12,D07,0,0,1
2509,0.46,1645110618.859375,P12,D07,0,0,1
2510,0.2,1645110618.875,P12,D07,0,0,1
2511,0.01,1645110618.890625,P12,D07,0,0,1
2512,-0.08,1645110618.90625,P12,D07,0,0,1
2513,-0.08,1645110618.921875,P12,D07,0,0,1
2514,-0.06,1645110618.9375,P12,D07,0,0,1
2515,-0.09,1645110618.953125,P12,D07,0,0,1
2516,-0.18,1645110618.96875,P12,D07,0,0,1
2517,-0.31,1645110618.984375,P12,D07,0,0,1
2518,-0.39,1645110619.0,P12,D07,0,0,1
2519,-0.39,1645110619.015625,P12,D07,0,0,1
2520,-0.31,1645110619.03125,P12,D07,0,0,1
2521,-0.19,1645110619.046875,P12,D07,0,0,1
2522,-0.13,1645110619.0625,P12,D07,0,0,1
2523,-0.17,1645110619.078125,P12,D07,0,0,1
2524,-0.36,1645110619.09375,P12,D07,0,0,1
2525,-0.63,1645110619.109375,P12,D07,0,0,1
2526,-0.89,1645110619.125,P12,D07,0,0,1
2527,-1.03,1645110619.140625,P12,D07,0,0,1
2528,-0.96,1645110619.15625,P12,D07,0,0,1
2529,-0.7,1645110619.171875,P12,D07,0,0,1
2530,-0.34,1645110619.1875,P12,D07,0,0,1
2531,-0.01,1645110619.203125,P12,D07,0,0,1
2532,0.18,1645110619.21875,P12,D07,0,0,1
2533,0.22,1645110619.234375,P12,D07,0,0,1
2534,0.15,1645110619.25,P12,D07,0,0,1
2535,0.07,1645110619.265625,P12,D07,0,0,1
2536,0.03,1645110619.28125,P12,D07,0,0,1
2537,0.05,1645110619.296875,P12,D07,0,0,1
2538,0.1,1645110619.3125,P12,D07,0,0,1
2539,0.18,1645110619.328125,P12,D07,0,0,1
2540,0.27,1645110619.34375,P12,D07,0,0,1
2541,0.39,1645110619.359375,P12,D07,0,0,1
2542,0.55,1645110619.375,P12,D07,0,0,1
2543,0.7,1645110619.390625,P12,D07,0,0,1
2544,0.75,1645110619.40625,P12,D07,0,0,1
2545,0.65,1645110619.421875,P12,D07,0,0,1
2546,0.41,1645110619.4375,P12,D07,0,0,1
2547,0.09,1645110619.453125,P12,D07,0,0,1
2548,-0.2,1645110619.46875,P12,D07,0,0,1
2549,-0.42,1645110619.484375,P12,D07,0,0,1
2550,-0.55,1645110619.5,P12,D07,0,0,1
2551,-0.61,1645110619.515625,P12,D07,0,0,1
2552,-0.65,1645110619.53125,P12,D07,0,0,1
2553,-0.65,1645110619.546875,P12,D07,0,0,1
2554,-0.61,1645110619.5625,P12,D07,0,0,1
2555,-0.55,1645110619.578125,P12,D07,0,0,1
2556,-0.48,1645110619.59375,P12,D07,0,0,1
2557,-0.46,1645110619.609375,P12,D07,0,0,1
2558,-0.47,1645110619.625,P12,D07,0,0,1
2559,-0.46,1645110619.640625,P12,D07,0,0,1
2560,-0.37,1645110619.65625,P12,D07,0,0,1
2561,-0.13,1645110619.671875,P12,D07,0,0,1
2562,0.22,1645110619.6875,P12,D07,0,0,1
2563,0.57,1645110619.703125,P12,D07,0,0,1
2564,0.79,1645110619.71875,P12,D07,0,0,1
2565,0.84,1645110619.734375,P12,D07,0,0,1
2566,0.75,1645110619.75,P12,D07,0,0,1
2567,0.63,1645110619.765625,P12,D07,0,0,1
2568,0.57,1645110619.78125,P12,D07,0,0,1
2569,0.58,1645110619.796875,P12,D07,0,0,1
2570,0.61,1645110619.8125,P12,D07,0,0,1
2571,0.56,1645110619.828125,P12,D07,0,0,1
2572,0.36,1645110619.84375,P12,D07,0,0,1
2573,0.06,1645110619.859375,P12,D07,0,0,1
2574,-0.24,1645110619.875,P12,D07,0,0,1
2575,-0.43,1645110619.890625,P12,D07,0,0,1
2576,-0.42,1645110619.90625,P12,D07,0,0,1
2577,-0.23,1645110619.921875,P12,D07,0,0,1
2578,0.04,1645110619.9375,P12,D07,0,0,1
2579,0.3,1645110619.953125,P12,D07,0,0,1
2580,0.47,1645110619.96875,P12,D07,0,0,1
2581,0.51,1645110619.984375,P12,D07,0,0,1
2582,0.41,1645110620.0,P12,D07,0,0,1
2583,0.19,1645110620.015625,P12,D07,0,0,1
2584,-0.13,1645110620.03125,P12,D07,0,0,1
2585,-0.49,1645110620.046875,P12,D07,0,0,1
2586,-0.83,1645110620.0625,P12,D07,0,0,1
2587,-1.04,1645110620.078125,P12,D07,0,0,1
2588,-1.05,1645110620.09375,P12,D07,0,0,1
2589,-0.82,1645110620.109375,P12,D07,0,0,1
2590,-0.42,1645110620.125,P12,D07,0,0,1
2591,0.03,1645110620.140625,P12,D07,0,0,1
2592,0.41,1645110620.15625,P12,D07,0,0,1
2593,0.61,1645110620.171875,P12,D07,0,0,1
2594,0.61,1645110620.1875,P12,D07,0,0,1
2595,0.44,1645110620.203125,P12,D07,0,0,1
2596,0.16,1645110620.21875,P12,D07,0,0,1
2597,-0.15,1645110620.234375,P12,D07,0,0,1
2598,-0.44,1645110620.25,P12,D07,0,0,1
2599,-0.68,1645110620.265625,P12,D07,0,0,1
2600,-0.82,1645110620.28125,P12,D07,0,0,1
2601,-0.85,1645110620.296875,P12,D07,0,0,1
2602,-0.74,1645110620.3125,P12,D07,0,0,1
2603,-0.55,1645110620.328125,P12,D07,0,0,1
2604,-0.32,1645110620.34375,P12,D07,0,0,1
2605,-0.12,1645110620.359375,P12,D07,0,0,1
2606,-0.0,1645110620.375,P12,D07,0,0,1
2607,0.05,1645110620.390625,P12,D07,0,0,1
2608,0.07,1645110620.40625,P12,D07,0,0,1
2609,0.1,1645110620.421875,P12,D07,0,0,1
2610,0.15,1645110620.4375,P12,D07,0,0,1
2611,0.19,1645110620.453125,P12,D07,0,0,1
2612,0.21,1645110620.46875,P12,D07,0,0,1
2613,0.19,1645110620.484375,P12,D07,0,0,1
2614,0.17,1645110620.5,P12,D07,0,0,1
2615,0.2,1645110620.515625,P12,D07,0,0,1
2616,0.29,1645110620.53125,P12,D07,0,0,1
2617,0.44,1645110620.546875,P12,D07,0,0,1
2618,0.56,1645110620.5625,P12,D07,0,0,1
2619,0.57,1645110620.578125,P12,D07,0,0,1
2620,0.42,1645110620.59375,P12,D07,0,0,1
2621,0.14,1645110620.609375,P12,D07,0,0,1
2622,-0.19,1645110620.625,P12,D07,0,0,1
2623,-0.41,1645110620.640625,P12,D07,0,0,1
2624,-0.44,1645110620.65625,P12,D07,0,0,1
2625,-0.28,1645110620.671875,P12,D07,0,0,1
2626,-0.02,1645110620.6875,P12,D07,0,0,1
2627,0.22,1645110620.703125,P12,D07,0,0,1
2628,0.33,1645110620.71875,P12,D07,0,0,1
2629,0.29,1645110620.734375,P12,D07,0,0,1
2630,0.15,1645110620.75,P12,D07,0,0,1
2631,0.02,1645110620.765625,P12,D07,0,0,1
2632,0.02,1645110620.78125,P12,D07,0,0,1
2633,0.16,1645110620.796875,P12,D07,0,0,1
2634,0.42,1645110620.8125,P12,D07,0,0,1
2635,0.72,1645110620.828125,P12,D07,0,0,1
2636,0.97,1645110620.84375,P12,D07,0,0,1
2637,1.12,1645110620.859375,P12,D07,0,0,1
2638,1.15,1645110620.875,P12,D07,0,0,1
2639,1.07,1645110620.890625,P12,D07,0,0,1
2640,0.87,1645110620.90625,P12,D07,0,0,1
2641,0.55,1645110620.921875,P12,D07,0,0,1
2642,0.16,1645110620.9375,P12,D07,0,0,1
2643,-0.21,1645110620.953125,P12,D07,0,0,1
2644,-0.43,1645110620.96875,P12,D07,0,0,1
2645,-0.41,1645110620.984375,P12,D07,0,0,1
2646,-0.18,1645110621.0,P12,D07,0,0,1
2647,0.15,1645110621.015625,P12,D07,0,0,1
2648,0.36,1645110621.03125,P12,D07,0,0,1
2649,0.33,1645110621.046875,P12,D07,0,0,1
2650,0.06,1645110621.0625,P12,D07,0,0,1
2651,-0.32,1645110621.078125,P12,D07,0,0,1
2652,-0.6,1645110621.09375,P12,D07,0,0,1
2653,-0.66,1645110621.109375,P12,D07,0,0,1
2654,-0.51,1645110621.125,P12,D07,0,0,1
2655,-0.32,1645110621.140625,P12,D07,0,0,1
2656,-0.23,1645110621.15625,P12,D07,0,0,1
2657,-0.31,1645110621.171875,P12,D07,0,0,1
2658,-0.5,1645110621.1875,P12,D07,0,0,1
2659,-0.66,1645110621.203125,P12,D07,0,0,1
2660,-0.68,1645110621.21875,P12,D07,0,0,1
2661,-0.51,1645110621.234375,P12,D07,0,0,1
2662,-0.16,1645110621.25,P12,D07,0,0,1
2663,0.27,1645110621.265625,P12,D07,0,0,1
2664,0.71,1645110621.28125,P12,D07,0,0,1
2665,1.12,1645110621.296875,P12,D07,0,0,1
2666,1.44,1645110621.3125,P12,D07,0,0,1
2667,1.62,1645110621.328125,P12,D07,0,0,1
2668,1.59,1645110621.34375,P12,D07,0,0,1
2669,1.27,1645110621.359375,P12,D07,0,0,1
2670,0.68,1645110621.375,P12,D07,0,0,1
2671,-0.1,1645110621.390625,P12,D07,0,0,1
2672,-0.86,1645110621.40625,P12,D07,0,0,1
2673,-1.39,1645110621.421875,P12,D07,0,0,1
2674,-1.52,1645110621.4375,P12,D07,0,0,1
2675,-1.21,1645110621.453125,P12,D07,0,0,1
2676,-0.6,1645110621.46875,P12,D07,0,0,1
2677,0.06,1645110621.484375,P12,D07,0,0,1
2678,0.52,1645110621.5,P12,D07,0,0,1
2679,0.63,1645110621.515625,P12,D07,0,0,1
2680,0.45,1645110621.53125,P12,D07,0,0,1
2681,0.15,1645110621.546875,P12,D07,0,0,1
2682,-0.08,1645110621.5625,P12,D07,0,0,1
2683,-0.14,1645110621.578125,P12,D07,0,0,1
2684,-0.07,1645110621.59375,P12,D07,0,0,1
2685,-0.01,1645110621.609375,P12,D07,0,0,1
2686,-0.07,1645110621.625,P12,D07,0,0,1
2687,-0.27,1645110621.640625,P12,D07,0,0,1
2688,-0.49,1645110621.65625,P12,D07,0,0,1
2689,-0.61,1645110621.671875,P12,D07,0,0,1
2690,-0.54,1645110621.6875,P12,D07,0,0,1
2691,-0.33,1645110621.703125,P12,D07,0,0,1
2692,-0.09,1645110621.71875,P12,D07,0,0,1
2693,0.11,1645110621.734375,P12,D07,0,0,1
2694,0.24,1645110621.75,P12,D07,0,0,1
2695,0.35,1645110621.765625,P12,D07,0,0,1
2696,0.5,1645110621.78125,P12,D07,0,0,1
2697,0.67,1645110621.796875,P12,D07,0,0,1
2698,0.77,1645110621.8125,P12,D07,0,0,1
2699,0.7,1645110621.828125,P12,D07,0,0,1
2700,0.43,1645110621.84375,P12,D07,0,0,1
2701,0.05,1645110621.859375,P12,D07,0,0,1
2702,-0.27,1645110621.875,P12,D07,0,0,1
2703,-0.39,1645110621.890625,P12,D07,0,0,1
2704,-0.27,1645110621.90625,P12,D07,0,0,1
2705,-0.02,1645110621.921875,P12,D07,0,0,1
2706,0.23,1645110621.9375,P12,D07,0,0,1
2707,0.34,1645110621.953125,P12,D07,0,0,1
2708,0.28,1645110621.96875,P12,D07,0,0,1
2709,0.11,1645110621.984375,P12,D07,0,0,1
2710,-0.08,1645110622.0,P12,D07,0,0,1
2711,-0.21,1645110622.015625,P12,D07,0,0,1
2712,-0.25,1645110622.03125,P12,D07,0,0,1
2713,-0.24,1645110622.046875,P12,D07,0,0,1
2714,-0.22,1645110622.0625,P12,D07,0,0,1
2715,-0.23,1645110622.078125,P12,D07,0,0,1
2716,-0.29,1645110622.09375,P12,D07,0,0,1
2717,-0.42,1645110622.109375,P12,D07,0,0,1
2718,-0.6,1645110622.125,P12,D07,0,0,1
2719,-0.77,1645110622.140625,P12,D07,0,0,1
2720,-0.9,1645110622.15625,P12,D07,0,0,1
2721,-0.9,1645110622.171875,P12,D07,0,0,1
2722,-0.77,1645110622.1875,P12,D07,0,0,1
2723,-0.52,1645110622.203125,P12,D07,0,0,1
2724,-0.22,1645110622.21875,P12,D07,0,0,1
2725,0.04,1645110622.234375,P12,D07,0,0,1
2726,0.2,1645110622.25,P12,D07,0,0,1
2727,0.24,1645110622.265625,P12,D07,0,0,1
2728,0.17,1645110622.28125,P12,D07,0,0,1
2729,0.06,1645110622.296875,P12,D07,0,0,1
2730,-0.05,1645110622.3125,P12,D07,0,0,1
2731,-0.1,1645110622.328125,P12,D07,0,0,1
2732,-0.1,1645110622.34375,P12,D07,0,0,1
2733,-0.05,1645110622.359375,P12,D07,0,0,1
2734,0.02,1645110622.375,P12,D07,0,0,1
2735,0.08,1645110622.390625,P12,D07,0,0,1
2736,0.13,1645110622.40625,P12,D07,0,0,1
2737,0.14,1645110622.421875,P12,D07,0,0,1
2738,0.1,1645110622.4375,P12,D07,0,0,1
2739,-0.02,1645110622.453125,P12,D07,0,0,1
2740,-0.2,1645110622.46875,P12,D07,0,0,1
2741,-0.41,1645110622.484375,P12,D07,0,0,1
2742,-0.63,1645110622.5,P12,D07,0,0,1
2743,-0.81,1645110622.515625,P12,D07,0,0,1
2744,-0.89,1645110622.53125,P12,D07,0,0,1
2745,-0.87,1645110622.546875,P12,D07,0,0,1
2746,-0.71,1645110622.5625,P12,D07,0,0,1
2747,-0.44,1645110622.578125,P12,D07,0,0,1
2748,-0.09,1645110622.59375,P12,D07,0,0,1
2749,0.26,1645110622.609375,P12,D07,0,0,1
2750,0.58,1645110622.625,P12,D07,0,0,1
2751,0.82,1645110622.640625,P12,D07,0,0,1
2752,0.99,1645110622.65625,P12,D07,0,0,1
2753,1.11,1645110622.671875,P12,D07,0,0,1
2754,1.21,1645110622.6875,P12,D07,0,0,1
2755,1.27,1645110622.703125,P12,D07,0,0,1
2756,1.25,1645110622.71875,P12,D07,0,0,1
2757,1.1,1645110622.734375,P12,D07,0,0,1
2758,0.8,1645110622.75,P12,D07,0,0,1
2759,0.4,1645110622.765625,P12,D07,0,0,1
2760,-0.01,1645110622.78125,P12,D07,0,0,1
2761,-0.34,1645110622.796875,P12,D07,0,0,1
2762,-0.53,1645110622.8125,P12,D07,0,0,1
2763,-0.61,1645110622.828125,P12,D07,0,0,1
2764,-0.62,1645110622.84375,P12,D07,0,0,1
2765,-0.63,1645110622.859375,P12,D07,0,0,1
2766,-0.65,1645110622.875,P12,D07,0,0,1
2767,-0.67,1645110622.890625,P12,D07,0,0,1
2768,-0.66,1645110622.90625,P12,D07,0,0,1
2769,-0.64,1645110622.921875,P12,D07,0,0,1
2770,-0.64,1645110622.9375,P12,D07,0,0,1
2771,-0.68,1645110622.953125,P12,D07,0,0,1
2772,-0.78,1645110622.96875,P12,D07,0,0,1
2773,-0.9,1645110622.984375,P12,D07,0,0,1
2774,-0.98,1645110623.0,P12,D07,0,0,1
2775,-0.95,1645110623.015625,P12,D07,0,0,1
2776,-0.8,1645110623.03125,P12,D07,0,0,1
2777,-0.57,1645110623.046875,P12,D07,0,0,1
2778,-0.32,1645110623.0625,P12,D07,0,0,1
2779,-0.13,1645110623.078125,P12,D07,0,0,1
2780,-0.01,1645110623.09375,P12,D07,0,0,1
2781,0.04,1645110623.109375,P12,D07,0,0,1
2782,0.08,1645110623.125,P12,D07,0,0,1
2783,0.15,1645110623.140625,P12,D07,0,0,1
2784,0.24,1645110623.15625,P12,D07,0,0,1
2785,0.34,1645110623.171875,P12,D07,0,0,1
2786,0.4,1645110623.1875,P12,D07,0,0,1
2787,0.4,1645110623.203125,P12,D07,0,0,1
2788,0.36,1645110623.21875,P12,D07,0,0,1
2789,0.33,1645110623.234375,P12,D07,0,0,1
2790,0.37,1645110623.25,P12,D07,0,0,1
2791,0.52,1645110623.265625,P12,D07,0,0,1
2792,0.77,1645110623.28125,P12,D07,0,0,1
2793,1.05,1645110623.296875,P12,D07,0,0,1
2794,1.27,1645110623.3125,P12,D07,0,0,1
2795,1.34,1645110623.328125,P12,D07,0,0,1
2796,1.26,1645110623.34375,P12,D07,0,0,1
2797,1.02,1645110623.359375,P12,D07,0,0,1
2798,0.7,1645110623.375,P12,D07,0,0,1
2799,0.39,1645110623.390625,P12,D07,0,0,1
2800,0.14,1645110623.40625,P12,D07,0,0,1
2801,-0.0,1645110623.421875,P12,D07,0,0,1
2802,-0.05,1645110623.4375,P12,D07,0,0,1
2803,-0.04,1645110623.453125,P12,D07,0,0,1
2804,0.0,1645110623.46875,P12,D07,0,0,1
2805,0.05,1645110623.484375,P12,D07,0,0,1
2806,0.08,1645110623.5,P12,D07,0,0,1
2807,0.09,1645110623.515625,P12,D07,0,0,1
2808,0.04,1645110623.53125,P12,D07,0,0,1
2809,-0.07,1645110623.546875,P12,D07,0,0,1
2810,-0.25,1645110623.5625,P12,D07,0,0,1
2811,-0.44,1645110623.578125,P12,D07,0,0,1
2812,-0.57,1645110623.59375,P12,D07,0,0,1
2813,-0.56,1645110623.609375,P12,D07,0,0,1
2814,-0.38,1645110623.625,P12,D07,0,0,1
2815,-0.07,1645110623.640625,P12,D07,0,0,1
2816,0.26,1645110623.65625,P12,D07,0,0,1
2817,0.5,1645110623.671875,P12,D07,0,0,1
2818,0.51,1645110623.6875,P12,D07,0,0,1
2819,0.26,1645110623.703125,P12,D07,0,0,1
2820,-0.2,1645110623.71875,P12,D07,0,0,1
2821,-0.74,1645110623.734375,P12,D07,0,0,1
2822,-1.2,1645110623.75,P12,D07,0,0,1
2823,-1.47,1645110623.765625,P12,D07,0,0,1
2824,-1.52,1645110623.78125,P12,D07,0,0,1
2825,-1.42,1645110623.796875,P12,D07,0,0,1
2826,-1.25,1645110623.8125,P12,D07,0,0,1
2827,-1.06,1645110623.828125,P12,D07,0,0,1
2828,-0.85,1645110623.84375,P12,D07,0,0,1
2829,-0.57,1645110623.859375,P12,D07,0,0,1
2830,-0.21,1645110623.875,P12,D07,0,0,1
2831,0.2,1645110623.890625,P12,D07,0,0,1
2832,0.55,1645110623.90625,P12,D07,0,0,1
2833,0.73,1645110623.921875,P12,D07,0,0,1
2834,0.7,1645110623.9375,P12,D07,0,0,1
2835,0.53,1645110623.953125,P12,D07,0,0,1
2836,0.38,1645110623.96875,P12,D07,0,0,1
2837,0.38,1645110623.984375,P12,D07,0,0,1
2838,0.57,1645110624.0,P12,D07,0,0,1
2839,0.88,1645110624.015625,P12,D07,0,0,1
2840,1.15,1645110624.03125,P12,D07,0,0,1
2841,1.24,1645110624.046875,P12,D07,0,0,1
2842,1.09,1645110624.0625,P12,D07,0,0,1
2843,0.75,1645110624.078125,P12,D07,0,0,1
2844,0.31,1645110624.09375,P12,D07,0,0,1
2845,-0.08,1645110624.109375,P12,D07,0,0,1
2846,-0.3,1645110624.125,P12,D07,0,0,1
2847,-0.3,1645110624.140625,P12,D07,0,0,1
2848,-0.14,1645110624.15625,P12,D07,0,0,1
2849,0.1,1645110624.171875,P12,D07,0,0,1
2850,0.28,1645110624.1875,P12,D07,0,0,1
2851,0.28,1645110624.203125,P12,D07,0,0,1
2852,0.11,1645110624.21875,P12,D07,0,0,1
2853,-0.18,1645110624.234375,P12,D07,0,0,1
2854,-0.43,1645110624.25,P12,D07,0,0,1
2855,-0.51,1645110624.265625,P12,D07,0,0,1
2856,-0.37,1645110624.28125,P12,D07,0,0,1
2857,-0.07,1645110624.296875,P12,D07,0,0,1
2858,0.25,1645110624.3125,P12,D07,0,0,1
2859,0.44,1645110624.328125,P12,D07,0,0,1
2860,0.42,1645110624.34375,P12,D07,0,0,1
2861,0.21,1645110624.359375,P12,D07,0,0,1
2862,-0.09,1645110624.375,P12,D07,0,0,1
2863,-0.36,1645110624.390625,P12,D07,0,0,1
2864,-0.5,1645110624.40625,P12,D07,0,0,1
2865,-0.5,1645110624.421875,P12,D07,0,0,1
2866,-0.37,1645110624.4375,P12,D07,0,0,1
2867,-0.16,1645110624.453125,P12,D07,0,0,1
2868,0.05,1645110624.46875,P12,D07,0,0,1
2869,0.21,1645110624.484375,P12,D07,0,0,1
2870,0.28,1645110624.5,P12,D07,0,0,1
2871,0.27,1645110624.515625,P12,D07,0,0,1
2872,0.24,1645110624.53125,P12,D07,0,0,1
2873,0.22,1645110624.546875,P12,D07,0,0,1
2874,0.23,1645110624.5625,P12,D07,0,0,1
2875,0.24,1645110624.578125,P12,D07,0,0,1
2876,0.19,1645110624.59375,P12,D07,0,0,1
2877,0.06,1645110624.609375,P12,D07,0,0,1
2878,-0.11,1645110624.625,P12,D07,0,0,1
2879,-0.26,1645110624.640625,P12,D07,0,0,1
2880,-0.3,1645110624.65625,P12,D07,0,0,1
2881,-0.21,1645110624.671875,P12,D07,0,0,1
2882,-0.06,1645110624.6875,P12,D07,0,0,1
2883,0.05,1645110624.703125,P12,D07,0,0,1
2884,0.05,1645110624.71875,P12,D07,0,0,1
2885,-0.07,1645110624.734375,P12,D07,0,0,1
2886,-0.23,1645110624.75,P12,D07,0,0,1
2887,-0.34,1645110624.765625,P12,D07,0,0,1
2888,-0.36,1645110624.78125,P12,D07,0,0,1
2889,-0.28,1645110624.796875,P12,D07,0,0,1
2890,-0.15,1645110624.8125,P12,D07,0,0,1
2891,-0.04,1645110624.828125,P12,D07,0,0,1
2892,0.0,1645110624.84375,P12,D07,0,0,1
2893,-0.02,1645110624.859375,P12,D07,0,0,1
2894,-0.08,1645110624.875,P12,D07,0,0,1
2895,-0.12,1645110624.890625,P12,D07,0,0,1
2896,-0.07,1645110624.90625,P12,D07,0,0,1
2897,0.11,1645110624.921875,P12,D07,0,0,1
2898,0.44,1645110624.9375,P12,D07,0,0,1
2899,0.85,1645110624.953125,P12,D07,0,0,1
2900,1.25,1645110624.96875,P12,D07,0,0,1
2901,1.54,1645110624.984375,P12,D07,0,0,1
2902,1.63,1645110625.0,P12,D07,0,0,1
2903,1.49,1645110625.015625,P12,D07,0,0,1
2904,1.17,1645110625.03125,P12,D07,0,0,1
2905,0.71,1645110625.046875,P12,D07,0,0,1
2906,0.2,1645110625.0625,P12,D07,0,0,1
2907,-0.27,1645110625.078125,P12,D07,0,0,1
2908,-0.6,1645110625.09375,P12,D07,0,0,1
2909,-0.73,1645110625.109375,P12,D07,0,0,1
2910,-0.63,1645110625.125,P12,D07,0,0,1
2911,-0.37,1645110625.140625,P12,D07,0,0,1
2912,-0.11,1645110625.15625,P12,D07,0,0,1
2913,-0.01,1645110625.171875,P12,D07,0,0,1
2914,-0.14,1645110625.1875,P12,D07,0,0,1
