,data,timestamp,participant,document,val,arou,eng
0,6.39,1645108621.9375,P12,D01,0,0,0
1,5.25,1645108621.953125,P12,D01,0,0,0
2,4.21,1645108621.96875,P12,D01,0,0,0
3,3.47,1645108621.984375,P12,D01,0,0,0
4,3.07,1645108622.0,P12,D01,0,0,0
5,2.87,1645108622.015625,P12,D01,0,0,0
6,2.71,1645108622.03125,P12,D01,0,0,0
7,2.45,1645108622.046875,P12,D01,0,0,0
8,2.08,1645108622.0625,P12,D01,0,0,0
9,1.68,1645108622.078125,P12,D01,0,0,0
10,1.36,1645108622.09375,P12,D01,0,0,0
11,1.16,1645108622.109375,P12,D01,0,0,0
12,1.06,1645108622.125,P12,D01,0,0,0
13,0.95,1645108622.140625,P12,D01,0,0,0
14,0.73,1645108622.15625,P12,D01,0,0,0
15,0.36,1645108622.171875,P12,D01,0,0,0
16,-0.06,1645108622.1875,P12,D01,0,0,0
17,-0.39,1645108622.203125,P12,D01,0,0,0
18,-0.51,1645108622.21875,P12,D01,0,0,0
19,-0.41,1645108622.234375,P12,D01,0,0,0
20,-0.19,1645108622.25,P12,D01,0,0,0
21,-0.08,1645108622.265625,P12,D01,0,0,0
22,-0.22,1645108622.28125,P12,D01,0,0,0
23,-0.64,1645108622.296875,P12,D01,0,0,0
24,-1.21,1645108622.3125,P12,D01,0,0,0
25,-1.72,1645108622.328125,P12,D01,0,0,0
26,-2.02,1645108622.34375,P12,D01,0,0,0
27,-2.1,1645108622.359375,P12,D01,0,0,0
28,-2.03,1645108622.375,P12,D01,0,0,0
29,-1.97,1645108622.390625,P12,D01,0,0,0
30,-1.98,1645108622.40625,P12,D01,0,0,0
31,-2.03,1645108622.421875,P12,D01,0,0,0
32,-2.06,1645108622.4375,P12,D01,0,0,0
33,-1.97,1645108622.453125,P12,D01,0,0,0
34,-1.75,1645108622.46875,P12,D01,0,0,0
35,-1.47,1645108622.484375,P12,D01,0,0,0
36,-1.26,1645108622.5,P12,D01,0,0,0
37,-1.19,1645108622.515625,P12,D01,0,0,0
38,-1.25,1645108622.53125,P12,D01,0,0,0
39,-1.35,1645108622.546875,P12,D01,0,0,0
40,-1.4,1645108622.5625,P12,D01,0,0,0
41,-1.32,1645108622.578125,P12,D01,0,0,0
42,-1.09,1645108622.59375,P12,D01,0,0,0
43,-0.77,1645108622.609375,P12,D01,0,0,0
44,-0.42,1645108622.625,P12,D01,0,0,0
45,-0.11,1645108622.640625,P12,D01,0,0,0
46,0.1,1645108622.65625,P12,D01,0,0,0
47,0.21,1645108622.671875,P12,D01,0,0,0
48,0.22,1645108622.6875,P12,D01,0,0,0
49,0.14,1645108622.703125,P12,D01,0,0,0
50,0.01,1645108622.71875,P12,D01,0,0,0
51,-0.14,1645108622.734375,P12,D01,0,0,0
52,-0.25,1645108622.75,P12,D01,0,0,0
53,-0.28,1645108622.765625,P12,D01,0,0,0
54,-0.16,1645108622.78125,P12,D01,0,0,0
55,0.11,1645108622.796875,P12,D01,0,0,0
56,0.5,1645108622.8125,P12,D01,0,0,0
57,0.94,1645108622.828125,P12,D01,0,0,0
58,1.33,1645108622.84375,P12,D01,0,0,0
59,1.57,1645108622.859375,P12,D01,0,0,0
60,1.61,1645108622.875,P12,D01,0,0,0
61,1.43,1645108622.890625,P12,D01,0,0,0
62,1.08,1645108622.90625,P12,D01,0,0,0
63,0.63,1645108622.921875,P12,D01,0,0,0
64,0.18,1645108622.9375,P12,D01,0,0,0
65,-0.16,1645108622.953125,P12,D01,0,0,0
66,-0.3,1645108622.96875,P12,D01,0,0,0
67,-0.21,1645108622.984375,P12,D01,0,0,0
68,0.07,1645108623.0,P12,D01,0,0,0
69,0.44,1645108623.015625,P12,D01,0,0,0
70,0.76,1645108623.03125,P12,D01,0,0,0
71,0.89,1645108623.046875,P12,D01,0,0,0
72,0.79,1645108623.0625,P12,D01,0,0,0
73,0.49,1645108623.078125,P12,D01,0,0,0
74,0.15,1645108623.09375,P12,D01,0,0,0
75,-0.08,1645108623.109375,P12,D01,0,0,0
76,-0.09,1645108623.125,P12,D01,0,0,0
77,0.11,1645108623.140625,P12,D01,0,0,0
78,0.42,1645108623.15625,P12,D01,0,0,0
79,0.71,1645108623.171875,P12,D01,0,0,0
80,0.83,1645108623.1875,P12,D01,0,0,0
81,0.75,1645108623.203125,P12,D01,0,0,0
82,0.51,1645108623.21875,P12,D01,0,0,0
83,0.2,1645108623.234375,P12,D01,0,0,0
84,-0.11,1645108623.25,P12,D01,0,0,0
85,-0.37,1645108623.265625,P12,D01,0,0,0
86,-0.59,1645108623.28125,P12,D01,0,0,0
87,-0.8,1645108623.296875,P12,D01,0,0,0
88,-0.98,1645108623.3125,P12,D01,0,0,0
89,-1.08,1645108623.328125,P12,D01,0,0,0
90,-1.04,1645108623.34375,P12,D01,0,0,0
91,-0.82,1645108623.359375,P12,D01,0,0,0
92,-0.45,1645108623.375,P12,D01,0,0,0
93,-0.02,1645108623.390625,P12,D01,0,0,0
94,0.33,1645108623.40625,P12,D01,0,0,0
95,0.48,1645108623.421875,P12,D01,0,0,0
96,0.42,1645108623.4375,P12,D01,0,0,0
97,0.21,1645108623.453125,P12,D01,0,0,0
98,-0.0,1645108623.46875,P12,D01,0,0,0
99,-0.11,1645108623.484375,P12,D01,0,0,0
100,-0.03,1645108623.5,P12,D01,0,0,0
101,0.21,1645108623.515625,P12,D01,0,0,0
102,0.56,1645108623.53125,P12,D01,0,0,0
103,0.91,1645108623.546875,P12,D01,0,0,0
104,1.16,1645108623.5625,P12,D01,0,0,0
105,1.29,1645108623.578125,P12,D01,0,0,0
106,1.31,1645108623.59375,P12,D01,0,0,0
107,1.28,1645108623.609375,P12,D01,0,0,0
108,1.26,1645108623.625,P12,D01,0,0,0
109,1.24,1645108623.640625,P12,D01,0,0,0
110,1.19,1645108623.65625,P12,D01,0,0,0
111,1.05,1645108623.671875,P12,D01,0,0,0
112,0.83,1645108623.6875,P12,D01,0,0,0
113,0.61,1645108623.703125,P12,D01,0,0,0
114,0.52,1645108623.71875,P12,D01,0,0,0
115,0.65,1645108623.734375,P12,D01,0,0,0
116,1.0,1645108623.75,P12,D01,0,0,0
117,1.42,1645108623.765625,P12,D01,0,0,0
118,1.73,1645108623.78125,P12,D01,0,0,0
119,1.77,1645108623.796875,P12,D01,0,0,0
120,1.53,1645108623.8125,P12,D01,0,0,0
121,1.08,1645108623.828125,P12,D01,0,0,0
122,0.57,1645108623.84375,P12,D01,0,0,0
123,0.12,1645108623.859375,P12,D01,0,0,0
124,-0.21,1645108623.875,P12,D01,0,0,0
125,-0.46,1645108623.890625,P12,D01,0,0,0
126,-0.67,1645108623.90625,P12,D01,0,0,0
127,-0.89,1645108623.921875,P12,D01,0,0,0
128,-1.15,1645108623.9375,P12,D01,0,0,0
129,-1.44,1645108623.953125,P12,D01,0,0,0
130,-1.72,1645108623.96875,P12,D01,0,0,0
131,-1.96,1645108623.984375,P12,D01,0,0,0
132,-2.13,1645108624.0,P12,D01,0,0,0
133,-2.19,1645108624.015625,P12,D01,0,0,0
134,-2.13,1645108624.03125,P12,D01,0,0,0
135,-1.97,1645108624.046875,P12,D01,0,0,0
136,-1.73,1645108624.0625,P12,D01,0,0,0
137,-1.44,1645108624.078125,P12,D01,0,0,0
138,-1.15,1645108624.09375,P12,D01,0,0,0
139,-0.92,1645108624.109375,P12,D01,0,0,0
140,-0.78,1645108624.125,P12,D01,0,0,0
141,-0.77,1645108624.140625,P12,D01,0,0,0
142,-0.86,1645108624.15625,P12,D01,0,0,0
143,-1.01,1645108624.171875,P12,D01,0,0,0
144,-1.12,1645108624.1875,P12,D01,0,0,0
145,-1.13,1645108624.203125,P12,D01,0,0,0
146,-1.02,1645108624.21875,P12,D01,0,0,0
147,-0.83,1645108624.234375,P12,D01,0,0,0
148,-0.62,1645108624.25,P12,D01,0,0,0
149,-0.47,1645108624.265625,P12,D01,0,0,0
150,-0.41,1645108624.28125,P12,D01,0,0,0
151,-0.4,1645108624.296875,P12,D01,0,0,0
152,-0.4,1645108624.3125,P12,D01,0,0,0
153,-0.38,1645108624.328125,P12,D01,0,0,0
154,-0.32,1645108624.34375,P12,D01,0,0,0
155,-0.26,1645108624.359375,P12,D01,0,0,0
156,-0.22,1645108624.375,P12,D01,0,0,0
157,-0.22,1645108624.390625,P12,D01,0,0,0
158,-0.28,1645108624.40625,P12,D01,0,0,0
159,-0.34,1645108624.421875,P12,D01,0,0,0
160,-0.35,1645108624.4375,P12,D01,0,0,0
161,-0.3,1645108624.453125,P12,D01,0,0,0
162,-0.19,1645108624.46875,P12,D01,0,0,0
163,-0.05,1645108624.484375,P12,D01,0,0,0
164,0.04,1645108624.5,P12,D01,0,0,0
165,0.04,1645108624.515625,P12,D01,0,0,0
166,-0.03,1645108624.53125,P12,D01,0,0,0
167,-0.12,1645108624.546875,P12,D01,0,0,0
168,-0.18,1645108624.5625,P12,D01,0,0,0
169,-0.17,1645108624.578125,P12,D01,0,0,0
170,-0.09,1645108624.59375,P12,D01,0,0,0
171,0.01,1645108624.609375,P12,D01,0,0,0
172,0.08,1645108624.625,P12,D01,0,0,0
173,0.1,1645108624.640625,P12,D01,0,0,0
174,0.08,1645108624.65625,P12,D01,0,0,0
175,0.04,1645108624.671875,P12,D01,0,0,0
176,0.0,1645108624.6875,P12,D01,0,0,0
177,-0.03,1645108624.703125,P12,D01,0,0,0
178,-0.04,1645108624.71875,P12,D01,0,0,0
179,-0.02,1645108624.734375,P12,D01,0,0,0
180,0.07,1645108624.75,P12,D01,0,0,0
181,0.24,1645108624.765625,P12,D01,0,0,0
182,0.44,1645108624.78125,P12,D01,0,0,0
183,0.59,1645108624.796875,P12,D01,0,0,0
184,0.57,1645108624.8125,P12,D01,0,0,0
185,0.35,1645108624.828125,P12,D01,0,0,0
186,-0.03,1645108624.84375,P12,D01,0,0,0
187,-0.44,1645108624.859375,P12,D01,0,0,0
188,-0.72,1645108624.875,P12,D01,0,0,0
189,-0.76,1645108624.890625,P12,D01,0,0,0
190,-0.52,1645108624.90625,P12,D01,0,0,0
191,-0.06,1645108624.921875,P12,D01,0,0,0
192,0.47,1645108624.9375,P12,D01,0,0,0
193,0.95,1645108624.953125,P12,D01,0,0,0
194,1.24,1645108624.96875,P12,D01,0,0,0
195,1.27,1645108624.984375,P12,D01,0,0,0
196,1.06,1645108625.0,P12,D01,0,0,0
197,0.67,1645108625.015625,P12,D01,0,0,0
198,0.22,1645108625.03125,P12,D01,0,0,0
199,-0.18,1645108625.046875,P12,D01,0,0,0
200,-0.45,1645108625.0625,P12,D01,0,0,0
201,-0.56,1645108625.078125,P12,D01,0,0,0
202,-0.51,1645108625.09375,P12,D01,0,0,0
203,-0.36,1645108625.109375,P12,D01,0,0,0
204,-0.17,1645108625.125,P12,D01,0,0,0
205,0.01,1645108625.140625,P12,D01,0,0,0
206,0.14,1645108625.15625,P12,D01,0,0,0
207,0.2,1645108625.171875,P12,D01,0,0,0
208,0.23,1645108625.1875,P12,D01,0,0,0
209,0.24,1645108625.203125,P12,D01,0,0,0
210,0.25,1645108625.21875,P12,D01,0,0,0
211,0.25,1645108625.234375,P12,D01,0,0,0
212,0.2,1645108625.25,P12,D01,0,0,0
213,0.05,1645108625.265625,P12,D01,0,0,0
214,-0.2,1645108625.28125,P12,D01,0,0,0
215,-0.54,1645108625.296875,P12,D01,0,0,0
216,-0.9,1645108625.3125,P12,D01,0,0,0
217,-1.22,1645108625.328125,P12,D01,0,0,0
218,-1.43,1645108625.34375,P12,D01,0,0,0
219,-1.48,1645108625.359375,P12,D01,0,0,0
220,-1.34,1645108625.375,P12,D01,0,0,0
221,-1.01,1645108625.390625,P12,D01,0,0,0
222,-0.53,1645108625.40625,P12,D01,0,0,0
223,-0.01,1645108625.421875,P12,D01,0,0,0
224,0.42,1645108625.4375,P12,D01,0,0,0
225,0.63,1645108625.453125,P12,D01,0,0,0
226,0.59,1645108625.46875,P12,D01,0,0,0
227,0.34,1645108625.484375,P12,D01,0,0,0
228,0.03,1645108625.5,P12,D01,0,0,0
229,-0.17,1645108625.515625,P12,D01,0,0,0
230,-0.17,1645108625.53125,P12,D01,0,0,0
231,0.03,1645108625.546875,P12,D01,0,0,0
232,0.33,1645108625.5625,P12,D01,0,0,0
233,0.61,1645108625.578125,P12,D01,0,0,0
234,0.76,1645108625.59375,P12,D01,0,0,0
235,0.73,1645108625.609375,P12,D01,0,0,0
236,0.58,1645108625.625,P12,D01,0,0,0
237,0.36,1645108625.640625,P12,D01,0,0,0
238,0.16,1645108625.65625,P12,D01,0,0,0
239,0.03,1645108625.671875,P12,D01,0,0,0
240,-0.02,1645108625.6875,P12,D01,0,0,0
241,-0.02,1645108625.703125,P12,D01,0,0,0
242,-0.01,1645108625.71875,P12,D01,0,0,0
243,-0.03,1645108625.734375,P12,D01,0,0,0
244,-0.1,1645108625.75,P12,D01,0,0,0
245,-0.19,1645108625.765625,P12,D01,0,0,0
246,-0.25,1645108625.78125,P12,D01,0,0,0
247,-0.19,1645108625.796875,P12,D01,0,0,0
248,-0.03,1645108625.8125,P12,D01,0,0,0
249,0.18,1645108625.828125,P12,D01,0,0,0
250,0.35,1645108625.84375,P12,D01,0,0,0
251,0.38,1645108625.859375,P12,D01,0,0,0
252,0.28,1645108625.875,P12,D01,0,0,0
253,0.14,1645108625.890625,P12,D01,0,0,0
254,0.06,1645108625.90625,P12,D01,0,0,0
255,0.13,1645108625.921875,P12,D01,0,0,0
256,0.32,1645108625.9375,P12,D01,0,0,0
257,0.53,1645108625.953125,P12,D01,0,0,0
258,0.64,1645108625.96875,P12,D01,0,0,0
259,0.58,1645108625.984375,P12,D01,0,0,0
260,0.37,1645108626.0,P12,D01,0,0,0
261,0.1,1645108626.015625,P12,D01,0,0,0
262,-0.14,1645108626.03125,P12,D01,0,0,0
263,-0.36,1645108626.046875,P12,D01,0,0,0
264,-0.54,1645108626.0625,P12,D01,0,0,0
265,-0.71,1645108626.078125,P12,D01,0,0,0
266,-0.82,1645108626.09375,P12,D01,0,0,0
267,-0.82,1645108626.109375,P12,D01,0,0,0
268,-0.67,1645108626.125,P12,D01,0,0,0
269,-0.39,1645108626.140625,P12,D01,0,0,0
270,-0.09,1645108626.15625,P12,D01,0,0,0
271,0.13,1645108626.171875,P12,D01,0,0,0
272,0.23,1645108626.1875,P12,D01,0,0,0
273,0.23,1645108626.203125,P12,D01,0,0,0
274,0.19,1645108626.21875,P12,D01,0,0,0
275,0.18,1645108626.234375,P12,D01,0,0,0
276,0.21,1645108626.25,P12,D01,0,0,0
277,0.26,1645108626.265625,P12,D01,0,0,0
278,0.27,1645108626.28125,P12,D01,0,0,0
279,0.2,1645108626.296875,P12,D01,0,0,0
280,0.09,1645108626.3125,P12,D01,0,0,0
281,-0.03,1645108626.328125,P12,D01,0,0,0
282,-0.11,1645108626.34375,P12,D01,0,0,0
283,-0.13,1645108626.359375,P12,D01,0,0,0
284,-0.11,1645108626.375,P12,D01,0,0,0
285,-0.06,1645108626.390625,P12,D01,0,0,0
286,-0.02,1645108626.40625,P12,D01,0,0,0
287,-0.01,1645108626.421875,P12,D01,0,0,0
288,-0.06,1645108626.4375,P12,D01,0,0,0
289,-0.16,1645108626.453125,P12,D01,0,0,0
290,-0.27,1645108626.46875,P12,D01,0,0,0
291,-0.34,1645108626.484375,P12,D01,0,0,0
292,-0.28,1645108626.5,P12,D01,0,0,0
293,-0.09,1645108626.515625,P12,D01,0,0,0
294,0.21,1645108626.53125,P12,D01,0,0,0
295,0.5,1645108626.546875,P12,D01,0,0,0
296,0.68,1645108626.5625,P12,D01,0,0,0
297,0.66,1645108626.578125,P12,D01,0,0,0
298,0.46,1645108626.59375,P12,D01,0,0,0
299,0.13,1645108626.609375,P12,D01,0,0,0
300,-0.19,1645108626.625,P12,D01,0,0,0
301,-0.43,1645108626.640625,P12,D01,0,0,0
302,-0.53,1645108626.65625,P12,D01,0,0,0
303,-0.52,1645108626.671875,P12,D01,0,0,0
304,-0.45,1645108626.6875,P12,D01,0,0,0
305,-0.41,1645108626.703125,P12,D01,0,0,0
306,-0.43,1645108626.71875,P12,D01,0,0,0
307,-0.52,1645108626.734375,P12,D01,0,0,0
308,-0.61,1645108626.75,P12,D01,0,0,0
309,-0.64,1645108626.765625,P12,D01,0,0,0
310,-0.54,1645108626.78125,P12,D01,0,0,0
311,-0.3,1645108626.796875,P12,D01,0,0,0
312,0.05,1645108626.8125,P12,D01,0,0,0
313,0.41,1645108626.828125,P12,D01,0,0,0
314,0.65,1645108626.84375,P12,D01,0,0,0
315,0.72,1645108626.859375,P12,D01,0,0,0
316,0.63,1645108626.875,P12,D01,0,0,0
317,0.48,1645108626.890625,P12,D01,0,0,0
318,0.37,1645108626.90625,P12,D01,0,0,0
319,0.37,1645108626.921875,P12,D01,0,0,0
320,0.47,1645108626.9375,P12,D01,0,0,0
321,0.58,1645108626.953125,P12,D01,0,0,0
322,0.58,1645108626.96875,P12,D01,0,0,0
323,0.44,1645108626.984375,P12,D01,0,0,0
324,0.2,1645108627.0,P12,D01,0,0,0
325,-0.04,1645108627.015625,P12,D01,0,0,0
326,-0.18,1645108627.03125,P12,D01,0,0,0
327,-0.16,1645108627.046875,P12,D01,0,0,0
328,-0.03,1645108627.0625,P12,D01,0,0,0
329,0.12,1645108627.078125,P12,D01,0,0,0
330,0.21,1645108627.09375,P12,D01,0,0,0
331,0.19,1645108627.109375,P12,D01,0,0,0
332,0.08,1645108627.125,P12,D01,0,0,0
333,-0.09,1645108627.140625,P12,D01,0,0,0
334,-0.31,1645108627.15625,P12,D01,0,0,0
335,-0.53,1645108627.171875,P12,D01,0,0,0
336,-0.7,1645108627.1875,P12,D01,0,0,0
337,-0.77,1645108627.203125,P12,D01,0,0,0
338,-0.69,1645108627.21875,P12,D01,0,0,0
339,-0.47,1645108627.234375,P12,D01,0,0,0
340,-0.17,1645108627.25,P12,D01,0,0,0
341,0.1,1645108627.265625,P12,D01,0,0,0
342,0.27,1645108627.28125,P12,D01,0,0,0
343,0.3,1645108627.296875,P12,D01,0,0,0
344,0.24,1645108627.3125,P12,D01,0,0,0
345,0.14,1645108627.328125,P12,D01,0,0,0
346,0.03,1645108627.34375,P12,D01,0,0,0
347,-0.11,1645108627.359375,P12,D01,0,0,0
348,-0.31,1645108627.375,P12,D01,0,0,0
349,-0.57,1645108627.390625,P12,D01,0,0,0
350,-0.83,1645108627.40625,P12,D01,0,0,0
351,-0.96,1645108627.421875,P12,D01,0,0,0
352,-0.87,1645108627.4375,P12,D01,0,0,0
353,-0.53,1645108627.453125,P12,D01,0,0,0
354,-0.0,1645108627.46875,P12,D01,0,0,0
355,0.57,1645108627.484375,P12,D01,0,0,0
356,1.06,1645108627.5,P12,D01,0,0,0
357,1.37,1645108627.515625,P12,D01,0,0,0
358,1.46,1645108627.53125,P12,D01,0,0,0
359,1.36,1645108627.546875,P12,D01,0,0,0
360,1.12,1645108627.5625,P12,D01,0,0,0
361,0.82,1645108627.578125,P12,D01,0,0,0
362,0.55,1645108627.59375,P12,D01,0,0,0
363,0.39,1645108627.609375,P12,D01,0,0,0
364,0.35,1645108627.625,P12,D01,0,0,0
365,0.41,1645108627.640625,P12,D01,0,0,0
366,0.48,1645108627.65625,P12,D01,0,0,0
367,0.41,1645108627.671875,P12,D01,0,0,0
368,0.12,1645108627.6875,P12,D01,0,0,0
369,-0.41,1645108627.703125,P12,D01,0,0,0
370,-1.05,1645108627.71875,P12,D01,0,0,0
371,-1.59,1645108627.734375,P12,D01,0,0,0
372,-1.81,1645108627.75,P12,D01,0,0,0
373,-1.58,1645108627.765625,P12,D01,0,0,0
374,-0.95,1645108627.78125,P12,D01,0,0,0
375,-0.1,1645108627.796875,P12,D01,0,0,0
376,0.72,1645108627.8125,P12,D01,0,0,0
377,1.25,1645108627.828125,P12,D01,0,0,0
378,1.35,1645108627.84375,P12,D01,0,0,0
379,1.07,1645108627.859375,P12,D01,0,0,0
380,0.54,1645108627.875,P12,D01,0,0,0
381,-0.02,1645108627.890625,P12,D01,0,0,0
382,-0.45,1645108627.90625,P12,D01,0,0,0
383,-0.72,1645108627.921875,P12,D01,0,0,0
384,-0.82,1645108627.9375,P12,D01,0,0,0
385,-0.83,1645108627.953125,P12,D01,0,0,0
386,-0.75,1645108627.96875,P12,D01,0,0,0
387,-0.6,1645108627.984375,P12,D01,0,0,0
388,-0.35,1645108628.0,P12,D01,0,0,0
389,-0.04,1645108628.015625,P12,D01,0,0,0
390,0.26,1645108628.03125,P12,D01,0,0,0
391,0.43,1645108628.046875,P12,D01,0,0,0
392,0.42,1645108628.0625,P12,D01,0,0,0
393,0.24,1645108628.078125,P12,D01,0,0,0
394,-0.01,1645108628.09375,P12,D01,0,0,0
395,-0.2,1645108628.109375,P12,D01,0,0,0
396,-0.26,1645108628.125,P12,D01,0,0,0
397,-0.21,1645108628.140625,P12,D01,0,0,0
398,-0.13,1645108628.15625,P12,D01,0,0,0
399,-0.12,1645108628.171875,P12,D01,0,0,0
400,-0.22,1645108628.1875,P12,D01,0,0,0
401,-0.35,1645108628.203125,P12,D01,0,0,0
402,-0.46,1645108628.21875,P12,D01,0,0,0
403,-0.46,1645108628.234375,P12,D01,0,0,0
404,-0.39,1645108628.25,P12,D01,0,0,0
405,-0.28,1645108628.265625,P12,D01,0,0,0
406,-0.15,1645108628.28125,P12,D01,0,0,0
407,0.0,1645108628.296875,P12,D01,0,0,0
408,0.21,1645108628.3125,P12,D01,0,0,0
409,0.48,1645108628.328125,P12,D01,0,0,0
410,0.73,1645108628.34375,P12,D01,0,0,0
411,0.86,1645108628.359375,P12,D01,0,0,0
412,0.76,1645108628.375,P12,D01,0,0,0
413,0.44,1645108628.390625,P12,D01,0,0,0
414,0.0,1645108628.40625,P12,D01,0,0,0
415,-0.4,1645108628.421875,P12,D01,0,0,0
416,-0.61,1645108628.4375,P12,D01,0,0,0
417,-0.6,1645108628.453125,P12,D01,0,0,0
418,-0.4,1645108628.46875,P12,D01,0,0,0
419,-0.15,1645108628.484375,P12,D01,0,0,0
420,0.04,1645108628.5,P12,D01,0,0,0
421,0.1,1645108628.515625,P12,D01,0,0,0
422,0.07,1645108628.53125,P12,D01,0,0,0
423,-0.01,1645108628.546875,P12,D01,0,0,0
424,-0.05,1645108628.5625,P12,D01,0,0,0
425,-0.02,1645108628.578125,P12,D01,0,0,0
426,0.06,1645108628.59375,P12,D01,0,0,0
427,0.14,1645108628.609375,P12,D01,0,0,0
428,0.15,1645108628.625,P12,D01,0,0,0
429,0.09,1645108628.640625,P12,D01,0,0,0
430,-0.03,1645108628.65625,P12,D01,0,0,0
431,-0.16,1645108628.671875,P12,D01,0,0,0
432,-0.24,1645108628.6875,P12,D01,0,0,0
433,-0.25,1645108628.703125,P12,D01,0,0,0
434,-0.2,1645108628.71875,P12,D01,0,0,0
435,-0.12,1645108628.734375,P12,D01,0,0,0
436,-0.03,1645108628.75,P12,D01,0,0,0
437,0.05,1645108628.765625,P12,D01,0,0,0
438,0.13,1645108628.78125,P12,D01,0,0,0
439,0.19,1645108628.796875,P12,D01,0,0,0
440,0.19,1645108628.8125,P12,D01,0,0,0
441,0.11,1645108628.828125,P12,D01,0,0,0
442,-0.04,1645108628.84375,P12,D01,0,0,0
443,-0.23,1645108628.859375,P12,D01,0,0,0
444,-0.39,1645108628.875,P12,D01,0,0,0
445,-0.44,1645108628.890625,P12,D01,0,0,0
446,-0.36,1645108628.90625,P12,D01,0,0,0
447,-0.19,1645108628.921875,P12,D01,0,0,0
448,0.02,1645108628.9375,P12,D01,0,0,0
449,0.17,1645108628.953125,P12,D01,0,0,0
450,0.23,1645108628.96875,P12,D01,0,0,0
451,0.18,1645108628.984375,P12,D01,0,0,0
452,0.11,1645108629.0,P12,D01,0,0,0
453,0.07,1645108629.015625,P12,D01,0,0,0
454,0.13,1645108629.03125,P12,D01,0,0,0
455,0.25,1645108629.046875,P12,D01,0,0,0
456,0.36,1645108629.0625,P12,D01,0,0,0
457,0.37,1645108629.078125,P12,D01,0,0,0
458,0.25,1645108629.09375,P12,D01,0,0,0
459,0.04,1645108629.109375,P12,D01,0,0,0
460,-0.15,1645108629.125,P12,D01,0,0,0
461,-0.23,1645108629.140625,P12,D01,0,0,0
462,-0.17,1645108629.15625,P12,D01,0,0,0
463,-0.04,1645108629.171875,P12,D01,0,0,0
464,0.03,1645108629.1875,P12,D01,0,0,0
465,-0.04,1645108629.203125,P12,D01,0,0,0
466,-0.24,1645108629.21875,P12,D01,0,0,0
467,-0.46,1645108629.234375,P12,D01,0,0,0
468,-0.56,1645108629.25,P12,D01,0,0,0
469,-0.44,1645108629.265625,P12,D01,0,0,0
470,-0.14,1645108629.28125,P12,D01,0,0,0
471,0.23,1645108629.296875,P12,D01,0,0,0
472,0.53,1645108629.3125,P12,D01,0,0,0
473,0.69,1645108629.328125,P12,D01,0,0,0
474,0.73,1645108629.34375,P12,D01,0,0,0
475,0.72,1645108629.359375,P12,D01,0,0,0
476,0.7,1645108629.375,P12,D01,0,0,0
477,0.66,1645108629.390625,P12,D01,0,0,0
478,0.54,1645108629.40625,P12,D01,0,0,0
479,0.3,1645108629.421875,P12,D01,0,0,0
480,-0.05,1645108629.4375,P12,D01,0,0,0
481,-0.4,1645108629.453125,P12,D01,0,0,0
482,-0.64,1645108629.46875,P12,D01,0,0,0
483,-0.7,1645108629.484375,P12,D01,0,0,0
484,-0.62,1645108629.5,P12,D01,0,0,0
485,-0.48,1645108629.515625,P12,D01,0,0,0
486,-0.41,1645108629.53125,P12,D01,0,0,0
487,-0.41,1645108629.546875,P12,D01,0,0,0
488,-0.47,1645108629.5625,P12,D01,0,0,0
489,-0.49,1645108629.578125,P12,D01,0,0,0
490,-0.39,1645108629.59375,P12,D01,0,0,0
491,-0.16,1645108629.609375,P12,D01,0,0,0
492,0.13,1645108629.625,P12,D01,0,0,0
493,0.39,1645108629.640625,P12,D01,0,0,0
494,0.55,1645108629.65625,P12,D01,0,0,0
495,0.61,1645108629.671875,P12,D01,0,0,0
496,0.62,1645108629.6875,P12,D01,0,0,0
497,0.64,1645108629.703125,P12,D01,0,0,0
498,0.72,1645108629.71875,P12,D01,0,0,0
499,0.81,1645108629.734375,P12,D01,0,0,0
500,0.83,1645108629.75,P12,D01,0,0,0
501,0.7,1645108629.765625,P12,D01,0,0,0
502,0.39,1645108629.78125,P12,D01,0,0,0
503,-0.0,1645108629.796875,P12,D01,0,0,0
504,-0.31,1645108629.8125,P12,D01,0,0,0
505,-0.37,1645108629.828125,P12,D01,0,0,0
506,-0.13,1645108629.84375,P12,D01,0,0,0
507,0.33,1645108629.859375,P12,D01,0,0,0
508,0.8,1645108629.875,P12,D01,0,0,0
509,1.04,1645108629.890625,P12,D01,0,0,0
510,0.97,1645108629.90625,P12,D01,0,0,0
511,0.64,1645108629.921875,P12,D01,0,0,0
512,0.23,1645108629.9375,P12,D01,0,0,0
513,-0.04,1645108629.953125,P12,D01,0,0,0
514,-0.09,1645108629.96875,P12,D01,0,0,0
515,0.01,1645108629.984375,P12,D01,0,0,0
516,0.12,1645108630.0,P12,D01,0,0,0
517,0.08,1645108630.015625,P12,D01,0,0,0
518,-0.15,1645108630.03125,P12,D01,0,0,0
519,-0.49,1645108630.046875,P12,D01,0,0,0
520,-0.78,1645108630.0625,P12,D01,0,0,0
521,-0.9,1645108630.078125,P12,D01,0,0,0
522,-0.84,1645108630.09375,P12,D01,0,0,0
523,-0.66,1645108630.109375,P12,D01,0,0,0
524,-0.46,1645108630.125,P12,D01,0,0,0
525,-0.3,1645108630.140625,P12,D01,0,0,0
526,-0.17,1645108630.15625,P12,D01,0,0,0
527,0.01,1645108630.171875,P12,D01,0,0,0
528,0.28,1645108630.1875,P12,D01,0,0,0
529,0.64,1645108630.203125,P12,D01,0,0,0
530,0.96,1645108630.21875,P12,D01,0,0,0
531,1.11,1645108630.234375,P12,D01,0,0,0
532,1.01,1645108630.25,P12,D01,0,0,0
533,0.68,1645108630.265625,P12,D01,0,0,0
534,0.25,1645108630.28125,P12,D01,0,0,0
535,-0.11,1645108630.296875,P12,D01,0,0,0
536,-0.28,1645108630.3125,P12,D01,0,0,0
537,-0.26,1645108630.328125,P12,D01,0,0,0
538,-0.14,1645108630.34375,P12,D01,0,0,0
539,-0.04,1645108630.359375,P12,D01,0,0,0
540,-0.04,1645108630.375,P12,D01,0,0,0
541,-0.15,1645108630.390625,P12,D01,0,0,0
542,-0.29,1645108630.40625,P12,D01,0,0,0
543,-0.4,1645108630.421875,P12,D01,0,0,0
544,-0.46,1645108630.4375,P12,D01,0,0,0
545,-0.5,1645108630.453125,P12,D01,0,0,0
546,-0.55,1645108630.46875,P12,D01,0,0,0
547,-0.64,1645108630.484375,P12,D01,0,0,0
548,-0.71,1645108630.5,P12,D01,0,0,0
549,-0.67,1645108630.515625,P12,D01,0,0,0
550,-0.48,1645108630.53125,P12,D01,0,0,0
551,-0.18,1645108630.546875,P12,D01,0,0,0
552,0.14,1645108630.5625,P12,D01,0,0,0
553,0.33,1645108630.578125,P12,D01,0,0,0
554,0.29,1645108630.59375,P12,D01,0,0,0
555,0.03,1645108630.609375,P12,D01,0,0,0
556,-0.35,1645108630.625,P12,D01,0,0,0
557,-0.7,1645108630.640625,P12,D01,0,0,0
558,-0.88,1645108630.65625,P12,D01,0,0,0
559,-0.85,1645108630.671875,P12,D01,0,0,0
560,-0.64,1645108630.6875,P12,D01,0,0,0
561,-0.34,1645108630.703125,P12,D01,0,0,0
562,-0.08,1645108630.71875,P12,D01,0,0,0
563,0.08,1645108630.734375,P12,D01,0,0,0
564,0.16,1645108630.75,P12,D01,0,0,0
565,0.23,1645108630.765625,P12,D01,0,0,0
566,0.37,1645108630.78125,P12,D01,0,0,0
567,0.61,1645108630.796875,P12,D01,0,0,0
568,0.91,1645108630.8125,P12,D01,0,0,0
569,1.13,1645108630.828125,P12,D01,0,0,0
570,1.14,1645108630.84375,P12,D01,0,0,0
571,0.91,1645108630.859375,P12,D01,0,0,0
572,0.5,1645108630.875,P12,D01,0,0,0
573,0.09,1645108630.890625,P12,D01,0,0,0
574,-0.15,1645108630.90625,P12,D01,0,0,0
575,-0.15,1645108630.921875,P12,D01,0,0,0
576,0.01,1645108630.9375,P12,D01,0,0,0
577,0.13,1645108630.953125,P12,D01,0,0,0
578,0.08,1645108630.96875,P12,D01,0,0,0
579,-0.21,1645108630.984375,P12,D01,0,0,0
580,-0.61,1645108631.0,P12,D01,0,0,0
581,-0.93,1645108631.015625,P12,D01,0,0,0
582,-1.01,1645108631.03125,P12,D01,0,0,0
583,-0.84,1645108631.046875,P12,D01,0,0,0
584,-0.51,1645108631.0625,P12,D01,0,0,0
585,-0.2,1645108631.078125,P12,D01,0,0,0
586,-0.03,1645108631.09375,P12,D01,0,0,0
587,0.01,1645108631.109375,P12,D01,0,0,0
588,-0.01,1645108631.125,P12,D01,0,0,0
589,0.04,1645108631.140625,P12,D01,0,0,0
590,0.22,1645108631.15625,P12,D01,0,0,0
591,0.5,1645108631.171875,P12,D01,0,0,0
592,0.77,1645108631.1875,P12,D01,0,0,0
593,0.94,1645108631.203125,P12,D01,0,0,0
594,0.95,1645108631.21875,P12,D01,0,0,0
595,0.8,1645108631.234375,P12,D01,0,0,0
596,0.52,1645108631.25,P12,D01,0,0,0
597,0.18,1645108631.265625,P12,D01,0,0,0
598,-0.16,1645108631.28125,P12,D01,0,0,0
599,-0.45,1645108631.296875,P12,D01,0,0,0
600,-0.61,1645108631.3125,P12,D01,0,0,0
601,-0.59,1645108631.328125,P12,D01,0,0,0
602,-0.38,1645108631.34375,P12,D01,0,0,0
603,-0.03,1645108631.359375,P12,D01,0,0,0
604,0.31,1645108631.375,P12,D01,0,0,0
605,0.52,1645108631.390625,P12,D01,0,0,0
606,0.52,1645108631.40625,P12,D01,0,0,0
607,0.34,1645108631.421875,P12,D01,0,0,0
608,0.12,1645108631.4375,P12,D01,0,0,0
609,-0.0,1645108631.453125,P12,D01,0,0,0
610,0.05,1645108631.46875,P12,D01,0,0,0
611,0.23,1645108631.484375,P12,D01,0,0,0
612,0.4,1645108631.5,P12,D01,0,0,0
613,0.4,1645108631.515625,P12,D01,0,0,0
614,0.19,1645108631.53125,P12,D01,0,0,0
615,-0.16,1645108631.546875,P12,D01,0,0,0
616,-0.5,1645108631.5625,P12,D01,0,0,0
617,-0.66,1645108631.578125,P12,D01,0,0,0
618,-0.57,1645108631.59375,P12,D01,0,0,0
619,-0.28,1645108631.609375,P12,D01,0,0,0
620,0.1,1645108631.625,P12,D01,0,0,0
621,0.44,1645108631.640625,P12,D01,0,0,0
622,0.66,1645108631.65625,P12,D01,0,0,0
623,0.73,1645108631.671875,P12,D01,0,0,0
624,0.65,1645108631.6875,P12,D01,0,0,0
625,0.47,1645108631.703125,P12,D01,0,0,0
626,0.23,1645108631.71875,P12,D01,0,0,0
627,-0.0,1645108631.734375,P12,D01,0,0,0
628,-0.17,1645108631.75,P12,D01,0,0,0
629,-0.25,1645108631.765625,P12,D01,0,0,0
630,-0.24,1645108631.78125,P12,D01,0,0,0
631,-0.18,1645108631.796875,P12,D01,0,0,0
632,-0.14,1645108631.8125,P12,D01,0,0,0
633,-0.16,1645108631.828125,P12,D01,0,0,0
634,-0.23,1645108631.84375,P12,D01,0,0,0
635,-0.28,1645108631.859375,P12,D01,0,0,0
636,-0.25,1645108631.875,P12,D01,0,0,0
637,-0.1,1645108631.890625,P12,D01,0,0,0
638,0.09,1645108631.90625,P12,D01,0,0,0
639,0.23,1645108631.921875,P12,D01,0,0,0
640,0.21,1645108631.9375,P12,D01,0,0,0
641,0.04,1645108631.953125,P12,D01,0,0,0
642,-0.17,1645108631.96875,P12,D01,0,0,0
643,-0.31,1645108631.984375,P12,D01,0,0,0
644,-0.29,1645108632.0,P12,D01,0,0,0
645,-0.15,1645108632.015625,P12,D01,0,0,0
646,-0.02,1645108632.03125,P12,D01,0,0,0
647,-0.02,1645108632.046875,P12,D01,0,0,0
648,-0.19,1645108632.0625,P12,D01,0,0,0
649,-0.48,1645108632.078125,P12,D01,0,0,0
650,-0.73,1645108632.09375,P12,D01,0,0,0
651,-0.87,1645108632.109375,P12,D01,0,0,0
652,-0.84,1645108632.125,P12,D01,0,0,0
653,-0.73,1645108632.140625,P12,D01,0,0,0
654,-0.61,1645108632.15625,P12,D01,0,0,0
655,-0.52,1645108632.171875,P12,D01,0,0,0
656,-0.41,1645108632.1875,P12,D01,0,0,0
657,-0.21,1645108632.203125,P12,D01,0,0,0
658,0.12,1645108632.21875,P12,D01,0,0,0
659,0.56,1645108632.234375,P12,D01,0,0,0
660,0.98,1645108632.25,P12,D01,0,0,0
661,1.25,1645108632.265625,P12,D01,0,0,0
662,1.28,1645108632.28125,P12,D01,0,0,0
663,1.07,1645108632.296875,P12,D01,0,0,0
664,0.72,1645108632.3125,P12,D01,0,0,0
665,0.37,1645108632.328125,P12,D01,0,0,0
666,0.12,1645108632.34375,P12,D01,0,0,0
667,-0.0,1645108632.359375,P12,D01,0,0,0
668,-0.06,1645108632.375,P12,D01,0,0,0
669,-0.13,1645108632.390625,P12,D01,0,0,0
670,-0.24,1645108632.40625,P12,D01,0,0,0
671,-0.33,1645108632.421875,P12,D01,0,0,0
672,-0.33,1645108632.4375,P12,D01,0,0,0
673,-0.17,1645108632.453125,P12,D01,0,0,0
674,0.12,1645108632.46875,P12,D01,0,0,0
675,0.41,1645108632.484375,P12,D01,0,0,0
676,0.55,1645108632.5,P12,D01,0,0,0
677,0.47,1645108632.515625,P12,D01,0,0,0
678,0.2,1645108632.53125,P12,D01,0,0,0
679,-0.15,1645108632.546875,P12,D01,0,0,0
680,-0.44,1645108632.5625,P12,D01,0,0,0
681,-0.59,1645108632.578125,P12,D01,0,0,0
682,-0.63,1645108632.59375,P12,D01,0,0,0
683,-0.64,1645108632.609375,P12,D01,0,0,0
684,-0.7,1645108632.625,P12,D01,0,0,0
685,-0.84,1645108632.640625,P12,D01,0,0,0
686,-1.03,1645108632.65625,P12,D01,0,0,0
687,-1.17,1645108632.671875,P12,D01,0,0,0
688,-1.17,1645108632.6875,P12,D01,0,0,0
689,-1.01,1645108632.703125,P12,D01,0,0,0
690,-0.7,1645108632.71875,P12,D01,0,0,0
691,-0.31,1645108632.734375,P12,D01,0,0,0
692,0.07,1645108632.75,P12,D01,0,0,0
693,0.41,1645108632.765625,P12,D01,0,0,0
694,0.72,1645108632.78125,P12,D01,0,0,0
695,1.01,1645108632.796875,P12,D01,0,0,0
696,1.29,1645108632.8125,P12,D01,0,0,0
697,1.5,1645108632.828125,P12,D01,0,0,0
698,1.57,1645108632.84375,P12,D01,0,0,0
699,1.45,1645108632.859375,P12,D01,0,0,0
700,1.17,1645108632.875,P12,D01,0,0,0
701,0.82,1645108632.890625,P12,D01,0,0,0
702,0.49,1645108632.90625,P12,D01,0,0,0
703,0.25,1645108632.921875,P12,D01,0,0,0
704,0.12,1645108632.9375,P12,D01,0,0,0
705,0.07,1645108632.953125,P12,D01,0,0,0
706,0.05,1645108632.96875,P12,D01,0,0,0
707,0.09,1645108632.984375,P12,D01,0,0,0
708,0.21,1645108633.0,P12,D01,0,0,0
709,0.41,1645108633.015625,P12,D01,0,0,0
710,0.66,1645108633.03125,P12,D01,0,0,0
711,0.86,1645108633.046875,P12,D01,0,0,0
712,0.91,1645108633.0625,P12,D01,0,0,0
713,0.74,1645108633.078125,P12,D01,0,0,0
714,0.38,1645108633.09375,P12,D01,0,0,0
715,-0.07,1645108633.109375,P12,D01,0,0,0
716,-0.51,1645108633.125,P12,D01,0,0,0
717,-0.85,1645108633.140625,P12,D01,0,0,0
718,-1.04,1645108633.15625,P12,D01,0,0,0
719,-1.03,1645108633.171875,P12,D01,0,0,0
720,-0.83,1645108633.1875,P12,D01,0,0,0
721,-0.49,1645108633.203125,P12,D01,0,0,0
722,-0.09,1645108633.21875,P12,D01,0,0,0
723,0.24,1645108633.234375,P12,D01,0,0,0
724,0.37,1645108633.25,P12,D01,0,0,0
725,0.26,1645108633.265625,P12,D01,0,0,0
726,-0.06,1645108633.28125,P12,D01,0,0,0
727,-0.46,1645108633.296875,P12,D01,0,0,0
728,-0.79,1645108633.3125,P12,D01,0,0,0
729,-0.93,1645108633.328125,P12,D01,0,0,0
730,-0.83,1645108633.34375,P12,D01,0,0,0
731,-0.57,1645108633.359375,P12,D01,0,0,0
732,-0.26,1645108633.375,P12,D01,0,0,0
733,-0.06,1645108633.390625,P12,D01,0,0,0
734,-0.06,1645108633.40625,P12,D01,0,0,0
735,-0.27,1645108633.421875,P12,D01,0,0,0
736,-0.61,1645108633.4375,P12,D01,0,0,0
737,-0.94,1645108633.453125,P12,D01,0,0,0
738,-1.12,1645108633.46875,P12,D01,0,0,0
739,-1.11,1645108633.484375,P12,D01,0,0,0
740,-0.91,1645108633.5,P12,D01,0,0,0
741,-0.61,1645108633.515625,P12,D01,0,0,0
742,-0.32,1645108633.53125,P12,D01,0,0,0
743,-0.08,1645108633.546875,P12,D01,0,0,0
744,0.08,1645108633.5625,P12,D01,0,0,0
745,0.17,1645108633.578125,P12,D01,0,0,0
746,0.2,1645108633.59375,P12,D01,0,0,0
747,0.16,1645108633.609375,P12,D01,0,0,0
748,0.03,1645108633.625,P12,D01,0,0,0
749,-0.17,1645108633.640625,P12,D01,0,0,0
750,-0.4,1645108633.65625,P12,D01,0,0,0
751,-0.57,1645108633.671875,P12,D01,0,0,0
752,-0.62,1645108633.6875,P12,D01,0,0,0
753,-0.54,1645108633.703125,P12,D01,0,0,0
754,-0.35,1645108633.71875,P12,D01,0,0,0
755,-0.11,1645108633.734375,P12,D01,0,0,0
756,0.11,1645108633.75,P12,D01,0,0,0
757,0.29,1645108633.765625,P12,D01,0,0,0
758,0.41,1645108633.78125,P12,D01,0,0,0
759,0.48,1645108633.796875,P12,D01,0,0,0
760,0.5,1645108633.8125,P12,D01,0,0,0
761,0.49,1645108633.828125,P12,D01,0,0,0
762,0.44,1645108633.84375,P12,D01,0,0,0
763,0.35,1645108633.859375,P12,D01,0,0,0
764,0.21,1645108633.875,P12,D01,0,0,0
765,0.01,1645108633.890625,P12,D01,0,0,0
766,-0.21,1645108633.90625,P12,D01,0,0,0
767,-0.44,1645108633.921875,P12,D01,0,0,0
768,-0.6,1645108633.9375,P12,D01,0,0,0
769,-0.65,1645108633.953125,P12,D01,0,0,0
770,-0.57,1645108633.96875,P12,D01,0,0,0
771,-0.35,1645108633.984375,P12,D01,0,0,0
772,-0.06,1645108634.0,P12,D01,0,0,0
773,0.24,1645108634.015625,P12,D01,0,0,0
774,0.46,1645108634.03125,P12,D01,0,0,0
775,0.56,1645108634.046875,P12,D01,0,0,0
776,0.49,1645108634.0625,P12,D01,0,0,0
777,0.3,1645108634.078125,P12,D01,0,0,0
778,0.01,1645108634.09375,P12,D01,0,0,0
779,-0.29,1645108634.109375,P12,D01,0,0,0
780,-0.52,1645108634.125,P12,D01,0,0,0
781,-0.63,1645108634.140625,P12,D01,0,0,0
782,-0.63,1645108634.15625,P12,D01,0,0,0
783,-0.54,1645108634.171875,P12,D01,0,0,0
784,-0.43,1645108634.1875,P12,D01,0,0,0
785,-0.36,1645108634.203125,P12,D01,0,0,0
786,-0.34,1645108634.21875,P12,D01,0,0,0
787,-0.35,1645108634.234375,P12,D01,0,0,0
788,-0.36,1645108634.25,P12,D01,0,0,0
789,-0.32,1645108634.265625,P12,D01,0,0,0
790,-0.23,1645108634.28125,P12,D01,0,0,0
791,-0.1,1645108634.296875,P12,D01,0,0,0
792,0.05,1645108634.3125,P12,D01,0,0,0
793,0.19,1645108634.328125,P12,D01,0,0,0
794,0.29,1645108634.34375,P12,D01,0,0,0
795,0.37,1645108634.359375,P12,D01,0,0,0
796,0.47,1645108634.375,P12,D01,0,0,0
797,0.61,1645108634.390625,P12,D01,0,0,0
798,0.8,1645108634.40625,P12,D01,0,0,0
799,1.01,1645108634.421875,P12,D01,0,0,0
800,1.18,1645108634.4375,P12,D01,0,0,0
801,1.25,1645108634.453125,P12,D01,0,0,0
802,1.2,1645108634.46875,P12,D01,0,0,0
803,1.06,1645108634.484375,P12,D01,0,0,0
804,0.87,1645108634.5,P12,D01,0,0,0
805,0.72,1645108634.515625,P12,D01,0,0,0
806,0.61,1645108634.53125,P12,D01,0,0,0
807,0.54,1645108634.546875,P12,D01,0,0,0
808,0.47,1645108634.5625,P12,D01,0,0,0
809,0.38,1645108634.578125,P12,D01,0,0,0
810,0.29,1645108634.59375,P12,D01,0,0,0
811,0.24,1645108634.609375,P12,D01,0,0,0
812,0.25,1645108634.625,P12,D01,0,0,0
813,0.28,1645108634.640625,P12,D01,0,0,0
814,0.26,1645108634.65625,P12,D01,0,0,0
815,0.12,1645108634.671875,P12,D01,0,0,0
816,-0.12,1645108634.6875,P12,D01,0,0,0
817,-0.39,1645108634.703125,P12,D01,0,0,0
818,-0.56,1645108634.71875,P12,D01,0,0,0
819,-0.56,1645108634.734375,P12,D01,0,0,0
820,-0.37,1645108634.75,P12,D01,0,0,0
821,-0.09,1645108634.765625,P12,D01,0,0,0
822,0.14,1645108634.78125,P12,D01,0,0,0
823,0.18,1645108634.796875,P12,D01,0,0,0
824,0.01,1645108634.8125,P12,D01,0,0,0
825,-0.27,1645108634.828125,P12,D01,0,0,0
826,-0.5,1645108634.84375,P12,D01,0,0,0
827,-0.51,1645108634.859375,P12,D01,0,0,0
828,-0.26,1645108634.875,P12,D01,0,0,0
829,0.17,1645108634.890625,P12,D01,0,0,0
830,0.61,1645108634.90625,P12,D01,0,0,0
831,0.87,1645108634.921875,P12,D01,0,0,0
832,0.87,1645108634.9375,P12,D01,0,0,0
833,0.64,1645108634.953125,P12,D01,0,0,0
834,0.32,1645108634.96875,P12,D01,0,0,0
835,0.04,1645108634.984375,P12,D01,0,0,0
836,-0.12,1645108635.0,P12,D01,0,0,0
837,-0.2,1645108635.015625,P12,D01,0,0,0
838,-0.3,1645108635.03125,P12,D01,0,0,0
839,-0.49,1645108635.046875,P12,D01,0,0,0
840,-0.73,1645108635.0625,P12,D01,0,0,0
841,-0.92,1645108635.078125,P12,D01,0,0,0
842,-0.93,1645108635.09375,P12,D01,0,0,0
843,-0.71,1645108635.109375,P12,D01,0,0,0
844,-0.32,1645108635.125,P12,D01,0,0,0
845,0.07,1645108635.140625,P12,D01,0,0,0
846,0.33,1645108635.15625,P12,D01,0,0,0
847,0.39,1645108635.171875,P12,D01,0,0,0
848,0.31,1645108635.1875,P12,D01,0,0,0
849,0.22,1645108635.203125,P12,D01,0,0,0
850,0.21,1645108635.21875,P12,D01,0,0,0
851,0.3,1645108635.234375,P12,D01,0,0,0
852,0.41,1645108635.25,P12,D01,0,0,0
853,0.44,1645108635.265625,P12,D01,0,0,0
854,0.33,1645108635.28125,P12,D01,0,0,0
855,0.13,1645108635.296875,P12,D01,0,0,0
856,-0.05,1645108635.3125,P12,D01,0,0,0
857,-0.13,1645108635.328125,P12,D01,0,0,0
858,-0.07,1645108635.34375,P12,D01,0,0,0
859,0.03,1645108635.359375,P12,D01,0,0,0
860,0.08,1645108635.375,P12,D01,0,0,0
861,-0.01,1645108635.390625,P12,D01,0,0,0
862,-0.19,1645108635.40625,P12,D01,0,0,0
863,-0.36,1645108635.421875,P12,D01,0,0,0
864,-0.42,1645108635.4375,P12,D01,0,0,0
865,-0.29,1645108635.453125,P12,D01,0,0,0
866,-0.04,1645108635.46875,P12,D01,0,0,0
867,0.25,1645108635.484375,P12,D01,0,0,0
868,0.47,1645108635.5,P12,D01,0,0,0
869,0.57,1645108635.515625,P12,D01,0,0,0
870,0.57,1645108635.53125,P12,D01,0,0,0
871,0.48,1645108635.546875,P12,D01,0,0,0
872,0.34,1645108635.5625,P12,D01,0,0,0
873,0.14,1645108635.578125,P12,D01,0,0,0
874,-0.11,1645108635.59375,P12,D01,0,0,0
875,-0.41,1645108635.609375,P12,D01,0,0,0
876,-0.66,1645108635.625,P12,D01,0,0,0
877,-0.79,1645108635.640625,P12,D01,0,0,0
878,-0.77,1645108635.65625,P12,D01,0,0,0
879,-0.64,1645108635.671875,P12,D01,0,0,0
880,-0.46,1645108635.6875,P12,D01,0,0,0
881,-0.31,1645108635.703125,P12,D01,0,0,0
882,-0.17,1645108635.71875,P12,D01,0,0,0
883,0.0,1645108635.734375,P12,D01,0,0,0
884,0.28,1645108635.75,P12,D01,0,0,0
885,0.64,1645108635.765625,P12,D01,0,0,0
886,0.95,1645108635.78125,P12,D01,0,0,0
887,1.05,1645108635.796875,P12,D01,0,0,0
888,0.85,1645108635.8125,P12,D01,0,0,0
889,0.36,1645108635.828125,P12,D01,0,0,0
890,-0.25,1645108635.84375,P12,D01,0,0,0
891,-0.76,1645108635.859375,P12,D01,0,0,0
892,-1.02,1645108635.875,P12,D01,0,0,0
893,-1.0,1645108635.890625,P12,D01,0,0,0
894,-0.79,1645108635.90625,P12,D01,0,0,0
895,-0.53,1645108635.921875,P12,D01,0,0,0
896,-0.31,1645108635.9375,P12,D01,0,0,0
897,-0.17,1645108635.953125,P12,D01,0,0,0
898,-0.04,1645108635.96875,P12,D01,0,0,0
899,0.12,1645108635.984375,P12,D01,0,0,0
900,0.33,1645108636.0,P12,D01,0,0,0
901,0.53,1645108636.015625,P12,D01,0,0,0
902,0.64,1645108636.03125,P12,D01,0,0,0
903,0.58,1645108636.046875,P12,D01,0,0,0
904,0.31,1645108636.0625,P12,D01,0,0,0
905,-0.11,1645108636.078125,P12,D01,0,0,0
906,-0.56,1645108636.09375,P12,D01,0,0,0
907,-0.9,1645108636.109375,P12,D01,0,0,0
908,-1.02,1645108636.125,P12,D01,0,0,0
909,-0.89,1645108636.140625,P12,D01,0,0,0
910,-0.56,1645108636.15625,P12,D01,0,0,0
911,-0.15,1645108636.171875,P12,D01,0,0,0
912,0.21,1645108636.1875,P12,D01,0,0,0
913,0.47,1645108636.203125,P12,D01,0,0,0
914,0.62,1645108636.21875,P12,D01,0,0,0
915,0.7,1645108636.234375,P12,D01,0,0,0
916,0.72,1645108636.25,P12,D01,0,0,0
917,0.68,1645108636.265625,P12,D01,0,0,0
918,0.53,1645108636.28125,P12,D01,0,0,0
919,0.28,1645108636.296875,P12,D01,0,0,0
920,-0.05,1645108636.3125,P12,D01,0,0,0
921,-0.37,1645108636.328125,P12,D01,0,0,0
922,-0.56,1645108636.34375,P12,D01,0,0,0
923,-0.54,1645108636.359375,P12,D01,0,0,0
924,-0.32,1645108636.375,P12,D01,0,0,0
925,0.01,1645108636.390625,P12,D01,0,0,0
926,0.31,1645108636.40625,P12,D01,0,0,0
927,0.5,1645108636.421875,P12,D01,0,0,0
928,0.54,1645108636.4375,P12,D01,0,0,0
929,0.49,1645108636.453125,P12,D01,0,0,0
930,0.44,1645108636.46875,P12,D01,0,0,0
931,0.45,1645108636.484375,P12,D01,0,0,0
932,0.48,1645108636.5,P12,D01,0,0,0
933,0.47,1645108636.515625,P12,D01,0,0,0
934,0.31,1645108636.53125,P12,D01,0,0,0
935,-0.02,1645108636.546875,P12,D01,0,0,0
936,-0.42,1645108636.5625,P12,D01,0,0,0
937,-0.77,1645108636.578125,P12,D01,0,0,0
938,-0.93,1645108636.59375,P12,D01,0,0,0
939,-0.91,1645108636.609375,P12,D01,0,0,0
940,-0.8,1645108636.625,P12,D01,0,0,0
941,-0.73,1645108636.640625,P12,D01,0,0,0
942,-0.78,1645108636.65625,P12,D01,0,0,0
943,-0.92,1645108636.671875,P12,D01,0,0,0
944,-1.01,1645108636.6875,P12,D01,0,0,0
945,-0.97,1645108636.703125,P12,D01,0,0,0
946,-0.76,1645108636.71875,P12,D01,0,0,0
947,-0.45,1645108636.734375,P12,D01,0,0,0
948,-0.14,1645108636.75,P12,D01,0,0,0
949,0.11,1645108636.765625,P12,D01,0,0,0
950,0.3,1645108636.78125,P12,D01,0,0,0
951,0.48,1645108636.796875,P12,D01,0,0,0
952,0.68,1645108636.8125,P12,D01,0,0,0
953,0.89,1645108636.828125,P12,D01,0,0,0
954,1.05,1645108636.84375,P12,D01,0,0,0
955,1.09,1645108636.859375,P12,D01,0,0,0
956,1.0,1645108636.875,P12,D01,0,0,0
957,0.81,1645108636.890625,P12,D01,0,0,0
958,0.56,1645108636.90625,P12,D01,0,0,0
959,0.34,1645108636.921875,P12,D01,0,0,0
960,0.15,1645108636.9375,P12,D01,0,0,0
961,0.02,1645108636.953125,P12,D01,0,0,0
962,-0.07,1645108636.96875,P12,D01,0,0,0
963,-0.09,1645108636.984375,P12,D01,0,0,0
964,-0.07,1645108637.0,P12,D01,0,0,0
965,0.01,1645108637.015625,P12,D01,0,0,0
966,0.12,1645108637.03125,P12,D01,0,0,0
967,0.24,1645108637.046875,P12,D01,0,0,0
968,0.3,1645108637.0625,P12,D01,0,0,0
969,0.27,1645108637.078125,P12,D01,0,0,0
970,0.16,1645108637.09375,P12,D01,0,0,0
971,0.02,1645108637.109375,P12,D01,0,0,0
972,-0.07,1645108637.125,P12,D01,0,0,0
973,-0.03,1645108637.140625,P12,D01,0,0,0
974,0.14,1645108637.15625,P12,D01,0,0,0
975,0.37,1645108637.171875,P12,D01,0,0,0
976,0.54,1645108637.1875,P12,D01,0,0,0
977,0.54,1645108637.203125,P12,D01,0,0,0
978,0.34,1645108637.21875,P12,D01,0,0,0
979,0.02,1645108637.234375,P12,D01,0,0,0
980,-0.29,1645108637.25,P12,D01,0,0,0
981,-0.44,1645108637.265625,P12,D01,0,0,0
982,-0.38,1645108637.28125,P12,D01,0,0,0
983,-0.14,1645108637.296875,P12,D01,0,0,0
984,0.15,1645108637.3125,P12,D01,0,0,0
985,0.38,1645108637.328125,P12,D01,0,0,0
986,0.47,1645108637.34375,P12,D01,0,0,0
987,0.41,1645108637.359375,P12,D01,0,0,0
988,0.26,1645108637.375,P12,D01,0,0,0
989,0.09,1645108637.390625,P12,D01,0,0,0
990,-0.05,1645108637.40625,P12,D01,0,0,0
991,-0.14,1645108637.421875,P12,D01,0,0,0
992,-0.16,1645108637.4375,P12,D01,0,0,0
993,-0.15,1645108637.453125,P12,D01,0,0,0
994,-0.11,1645108637.46875,P12,D01,0,0,0
995,-0.03,1645108637.484375,P12,D01,0,0,0
996,0.05,1645108637.5,P12,D01,0,0,0
997,0.09,1645108637.515625,P12,D01,0,0,0
998,0.04,1645108637.53125,P12,D01,0,0,0
999,-0.12,1645108637.546875,P12,D01,0,0,0
1000,-0.37,1645108637.5625,P12,D01,0,0,0
1001,-0.67,1645108637.578125,P12,D01,0,0,0
1002,-0.92,1645108637.59375,P12,D01,0,0,0
1003,-1.08,1645108637.609375,P12,D01,0,0,0
1004,-1.14,1645108637.625,P12,D01,0,0,0
1005,-1.12,1645108637.640625,P12,D01,0,0,0
1006,-1.04,1645108637.65625,P12,D01,0,0,0
1007,-0.92,1645108637.671875,P12,D01,0,0,0
1008,-0.73,1645108637.6875,P12,D01,0,0,0
1009,-0.5,1645108637.703125,P12,D01,0,0,0
1010,-0.27,1645108637.71875,P12,D01,0,0,0
1011,-0.12,1645108637.734375,P12,D01,0,0,0
1012,-0.08,1645108637.75,P12,D01,0,0,0
1013,-0.12,1645108637.765625,P12,D01,0,0,0
1014,-0.17,1645108637.78125,P12,D01,0,0,0
1015,-0.11,1645108637.796875,P12,D01,0,0,0
1016,0.07,1645108637.8125,P12,D01,0,0,0
1017,0.33,1645108637.828125,P12,D01,0,0,0
1018,0.57,1645108637.84375,P12,D01,0,0,0
1019,0.71,1645108637.859375,P12,D01,0,0,0
1020,0.73,1645108637.875,P12,D01,0,0,0
1021,0.7,1645108637.890625,P12,D01,0,0,0
1022,0.74,1645108637.90625,P12,D01,0,0,0
1023,0.91,1645108637.921875,P12,D01,0,0,0
1024,1.17,1645108637.9375,P12,D01,0,0,0
1025,1.42,1645108637.953125,P12,D01,0,0,0
1026,1.54,1645108637.96875,P12,D01,0,0,0
1027,1.45,1645108637.984375,P12,D01,0,0,0
1028,1.18,1645108638.0,P12,D01,0,0,0
1029,0.82,1645108638.015625,P12,D01,0,0,0
1030,0.47,1645108638.03125,P12,D01,0,0,0
1031,0.18,1645108638.046875,P12,D01,0,0,0
1032,-0.08,1645108638.0625,P12,D01,0,0,0
1033,-0.33,1645108638.078125,P12,D01,0,0,0
1034,-0.56,1645108638.09375,P12,D01,0,0,0
1035,-0.74,1645108638.109375,P12,D01,0,0,0
1036,-0.76,1645108638.125,P12,D01,0,0,0
1037,-0.6,1645108638.140625,P12,D01,0,0,0
1038,-0.28,1645108638.15625,P12,D01,0,0,0
1039,0.06,1645108638.171875,P12,D01,0,0,0
1040,0.25,1645108638.1875,P12,D01,0,0,0
1041,0.2,1645108638.203125,P12,D01,0,0,0
1042,-0.07,1645108638.21875,P12,D01,0,0,0
1043,-0.45,1645108638.234375,P12,D01,0,0,0
1044,-0.74,1645108638.25,P12,D01,0,0,0
1045,-0.84,1645108638.265625,P12,D01,0,0,0
1046,-0.73,1645108638.28125,P12,D01,0,0,0
1047,-0.49,1645108638.296875,P12,D01,0,0,0
1048,-0.25,1645108638.3125,P12,D01,0,0,0
1049,-0.12,1645108638.328125,P12,D01,0,0,0
1050,-0.15,1645108638.34375,P12,D01,0,0,0
1051,-0.29,1645108638.359375,P12,D01,0,0,0
1052,-0.49,1645108638.375,P12,D01,0,0,0
1053,-0.69,1645108638.390625,P12,D01,0,0,0
1054,-0.85,1645108638.40625,P12,D01,0,0,0
1055,-0.95,1645108638.421875,P12,D01,0,0,0
1056,-0.95,1645108638.4375,P12,D01,0,0,0
1057,-0.84,1645108638.453125,P12,D01,0,0,0
1058,-0.6,1645108638.46875,P12,D01,0,0,0
1059,-0.28,1645108638.484375,P12,D01,0,0,0
1060,0.05,1645108638.5,P12,D01,0,0,0
1061,0.3,1645108638.515625,P12,D01,0,0,0
1062,0.38,1645108638.53125,P12,D01,0,0,0
1063,0.3,1645108638.546875,P12,D01,0,0,0
1064,0.12,1645108638.5625,P12,D01,0,0,0
1065,-0.06,1645108638.578125,P12,D01,0,0,0
1066,-0.15,1645108638.59375,P12,D01,0,0,0
1067,-0.08,1645108638.609375,P12,D01,0,0,0
1068,0.14,1645108638.625,P12,D01,0,0,0
1069,0.42,1645108638.640625,P12,D01,0,0,0
1070,0.67,1645108638.65625,P12,D01,0,0,0
1071,0.79,1645108638.671875,P12,D01,0,0,0
1072,0.77,1645108638.6875,P12,D01,0,0,0
1073,0.63,1645108638.703125,P12,D01,0,0,0
1074,0.46,1645108638.71875,P12,D01,0,0,0
1075,0.3,1645108638.734375,P12,D01,0,0,0
1076,0.18,1645108638.75,P12,D01,0,0,0
1077,0.11,1645108638.765625,P12,D01,0,0,0
1078,0.08,1645108638.78125,P12,D01,0,0,0
1079,0.11,1645108638.796875,P12,D01,0,0,0
1080,0.19,1645108638.8125,P12,D01,0,0,0
1081,0.29,1645108638.828125,P12,D01,0,0,0
1082,0.37,1645108638.84375,P12,D01,0,0,0
1083,0.38,1645108638.859375,P12,D01,0,0,0
1084,0.31,1645108638.875,P12,D01,0,0,0
1085,0.22,1645108638.890625,P12,D01,0,0,0
1086,0.17,1645108638.90625,P12,D01,0,0,0
1087,0.25,1645108638.921875,P12,D01,0,0,0
1088,0.47,1645108638.9375,P12,D01,0,0,0
1089,0.76,1645108638.953125,P12,D01,0,0,0
1090,1.02,1645108638.96875,P12,D01,0,0,0
1091,1.12,1645108638.984375,P12,D01,0,0,0
1092,1.01,1645108639.0,P12,D01,0,0,0
1093,0.7,1645108639.015625,P12,D01,0,0,0
1094,0.26,1645108639.03125,P12,D01,0,0,0
1095,-0.18,1645108639.046875,P12,D01,0,0,0
1096,-0.5,1645108639.0625,P12,D01,0,0,0
1097,-0.63,1645108639.078125,P12,D01,0,0,0
1098,-0.57,1645108639.09375,P12,D01,0,0,0
1099,-0.38,1645108639.109375,P12,D01,0,0,0
1100,-0.16,1645108639.125,P12,D01,0,0,0
1101,-0.01,1645108639.140625,P12,D01,0,0,0
1102,0.02,1645108639.15625,P12,D01,0,0,0
1103,-0.04,1645108639.171875,P12,D01,0,0,0
1104,-0.15,1645108639.1875,P12,D01,0,0,0
1105,-0.29,1645108639.203125,P12,D01,0,0,0
1106,-0.47,1645108639.21875,P12,D01,0,0,0
1107,-0.69,1645108639.234375,P12,D01,0,0,0
1108,-0.93,1645108639.25,P12,D01,0,0,0
1109,-1.11,1645108639.265625,P12,D01,0,0,0
1110,-1.12,1645108639.28125,P12,D01,0,0,0
1111,-0.94,1645108639.296875,P12,D01,0,0,0
1112,-0.6,1645108639.3125,P12,D01,0,0,0
1113,-0.24,1645108639.328125,P12,D01,0,0,0
1114,0.04,1645108639.34375,P12,D01,0,0,0
1115,0.17,1645108639.359375,P12,D01,0,0,0
1116,0.18,1645108639.375,P12,D01,0,0,0
1117,0.16,1645108639.390625,P12,D01,0,0,0
1118,0.16,1645108639.40625,P12,D01,0,0,0
1119,0.2,1645108639.421875,P12,D01,0,0,0
1120,0.26,1645108639.4375,P12,D01,0,0,0
1121,0.28,1645108639.453125,P12,D01,0,0,0
1122,0.23,1645108639.46875,P12,D01,0,0,0
1123,0.11,1645108639.484375,P12,D01,0,0,0
1124,-0.05,1645108639.5,P12,D01,0,0,0
1125,-0.2,1645108639.515625,P12,D01,0,0,0
1126,-0.31,1645108639.53125,P12,D01,0,0,0
1127,-0.32,1645108639.546875,P12,D01,0,0,0
1128,-0.2,1645108639.5625,P12,D01,0,0,0
1129,0.06,1645108639.578125,P12,D01,0,0,0
1130,0.43,1645108639.59375,P12,D01,0,0,0
1131,0.82,1645108639.609375,P12,D01,0,0,0
1132,1.12,1645108639.625,P12,D01,0,0,0
1133,1.21,1645108639.640625,P12,D01,0,0,0
1134,1.03,1645108639.65625,P12,D01,0,0,0
1135,0.63,1645108639.671875,P12,D01,0,0,0
1136,0.12,1645108639.6875,P12,D01,0,0,0
1137,-0.33,1645108639.703125,P12,D01,0,0,0
1138,-0.56,1645108639.71875,P12,D01,0,0,0
1139,-0.51,1645108639.734375,P12,D01,0,0,0
1140,-0.2,1645108639.75,P12,D01,0,0,0
1141,0.24,1645108639.765625,P12,D01,0,0,0
1142,0.63,1645108639.78125,P12,D01,0,0,0
1143,0.81,1645108639.796875,P12,D01,0,0,0
1144,0.75,1645108639.8125,P12,D01,0,0,0
1145,0.52,1645108639.828125,P12,D01,0,0,0
1146,0.25,1645108639.84375,P12,D01,0,0,0
1147,0.08,1645108639.859375,P12,D01,0,0,0
1148,0.04,1645108639.875,P12,D01,0,0,0
1149,0.07,1645108639.890625,P12,D01,0,0,0
1150,0.06,1645108639.90625,P12,D01,0,0,0
1151,-0.06,1645108639.921875,P12,D01,0,0,0
1152,-0.28,1645108639.9375,P12,D01,0,0,0
1153,-0.47,1645108639.953125,P12,D01,0,0,0
1154,-0.51,1645108639.96875,P12,D01,0,0,0
1155,-0.39,1645108639.984375,P12,D01,0,0,0
1156,-0.16,1645108640.0,P12,D01,0,0,0
1157,0.02,1645108640.015625,P12,D01,0,0,0
1158,0.01,1645108640.03125,P12,D01,0,0,0
1159,-0.2,1645108640.046875,P12,D01,0,0,0
1160,-0.52,1645108640.0625,P12,D01,0,0,0
1161,-0.8,1645108640.078125,P12,D01,0,0,0
1162,-0.92,1645108640.09375,P12,D01,0,0,0
1163,-0.88,1645108640.109375,P12,D01,0,0,0
1164,-0.73,1645108640.125,P12,D01,0,0,0
1165,-0.58,1645108640.140625,P12,D01,0,0,0
1166,-0.46,1645108640.15625,P12,D01,0,0,0
1167,-0.37,1645108640.171875,P12,D01,0,0,0
1168,-0.27,1645108640.1875,P12,D01,0,0,0
1169,-0.16,1645108640.203125,P12,D01,0,0,0
1170,-0.02,1645108640.21875,P12,D01,0,0,0
1171,0.12,1645108640.234375,P12,D01,0,0,0
1172,0.28,1645108640.25,P12,D01,0,0,0
1173,0.45,1645108640.265625,P12,D01,0,0,0
1174,0.63,1645108640.28125,P12,D01,0,0,0
1175,0.78,1645108640.296875,P12,D01,0,0,0
1176,0.83,1645108640.3125,P12,D01,0,0,0
1177,0.72,1645108640.328125,P12,D01,0,0,0
1178,0.47,1645108640.34375,P12,D01,0,0,0
1179,0.18,1645108640.359375,P12,D01,0,0,0
1180,-0.05,1645108640.375,P12,D01,0,0,0
1181,-0.1,1645108640.390625,P12,D01,0,0,0
1182,0.01,1645108640.40625,P12,D01,0,0,0
1183,0.16,1645108640.421875,P12,D01,0,0,0
1184,0.19,1645108640.4375,P12,D01,0,0,0
1185,0.0,1645108640.453125,P12,D01,0,0,0
1186,-0.39,1645108640.46875,P12,D01,0,0,0
1187,-0.85,1645108640.484375,P12,D01,0,0,0
1188,-1.2,1645108640.5,P12,D01,0,0,0
1189,-1.26,1645108640.515625,P12,D01,0,0,0
1190,-1.0,1645108640.53125,P12,D01,0,0,0
1191,-0.48,1645108640.546875,P12,D01,0,0,0
1192,0.11,1645108640.5625,P12,D01,0,0,0
1193,0.61,1645108640.578125,P12,D01,0,0,0
1194,0.9,1645108640.59375,P12,D01,0,0,0
1195,0.95,1645108640.609375,P12,D01,0,0,0
1196,0.83,1645108640.625,P12,D01,0,0,0
1197,0.62,1645108640.640625,P12,D01,0,0,0
1198,0.43,1645108640.65625,P12,D01,0,0,0
1199,0.29,1645108640.671875,P12,D01,0,0,0
1200,0.24,1645108640.6875,P12,D01,0,0,0
1201,0.28,1645108640.703125,P12,D01,0,0,0
1202,0.39,1645108640.71875,P12,D01,0,0,0
1203,0.53,1645108640.734375,P12,D01,0,0,0
1204,0.62,1645108640.75,P12,D01,0,0,0
1205,0.61,1645108640.765625,P12,D01,0,0,0
1206,0.43,1645108640.78125,P12,D01,0,0,0
1207,0.11,1645108640.796875,P12,D01,0,0,0
1208,-0.28,1645108640.8125,P12,D01,0,0,0
1209,-0.6,1645108640.828125,P12,D01,0,0,0
1210,-0.75,1645108640.84375,P12,D01,0,0,0
1211,-0.66,1645108640.859375,P12,D01,0,0,0
1212,-0.39,1645108640.875,P12,D01,0,0,0
1213,-0.06,1645108640.890625,P12,D01,0,0,0
1214,0.2,1645108640.90625,P12,D01,0,0,0
1215,0.31,1645108640.921875,P12,D01,0,0,0
1216,0.28,1645108640.9375,P12,D01,0,0,0
1217,0.17,1645108640.953125,P12,D01,0,0,0
1218,0.1,1645108640.96875,P12,D01,0,0,0
1219,0.12,1645108640.984375,P12,D01,0,0,0
1220,0.19,1645108641.0,P12,D01,0,0,0
1221,0.24,1645108641.015625,P12,D01,0,0,0
1222,0.16,1645108641.03125,P12,D01,0,0,0
1223,-0.07,1645108641.046875,P12,D01,0,0,0
1224,-0.39,1645108641.0625,P12,D01,0,0,0
1225,-0.69,1645108641.078125,P12,D01,0,0,0
1226,-0.85,1645108641.09375,P12,D01,0,0,0
1227,-0.84,1645108641.109375,P12,D01,0,0,0
1228,-0.66,1645108641.125,P12,D01,0,0,0
1229,-0.38,1645108641.140625,P12,D01,0,0,0
1230,-0.1,1645108641.15625,P12,D01,0,0,0
1231,0.11,1645108641.171875,P12,D01,0,0,0
1232,0.21,1645108641.1875,P12,D01,0,0,0
1233,0.2,1645108641.203125,P12,D01,0,0,0
1234,0.1,1645108641.21875,P12,D01,0,0,0
1235,-0.05,1645108641.234375,P12,D01,0,0,0
1236,-0.17,1645108641.25,P12,D01,0,0,0
1237,-0.21,1645108641.265625,P12,D01,0,0,0
1238,-0.13,1645108641.28125,P12,D01,0,0,0
1239,0.03,1645108641.296875,P12,D01,0,0,0
1240,0.22,1645108641.3125,P12,D01,0,0,0
1241,0.36,1645108641.328125,P12,D01,0,0,0
1242,0.39,1645108641.34375,P12,D01,0,0,0
1243,0.34,1645108641.359375,P12,D01,0,0,0
1244,0.27,1645108641.375,P12,D01,0,0,0
1245,0.21,1645108641.390625,P12,D01,0,0,0
1246,0.18,1645108641.40625,P12,D01,0,0,0
1247,0.14,1645108641.421875,P12,D01,0,0,0
1248,0.04,1645108641.4375,P12,D01,0,0,0
1249,-0.14,1645108641.453125,P12,D01,0,0,0
1250,-0.35,1645108641.46875,P12,D01,0,0,0
1251,-0.54,1645108641.484375,P12,D01,0,0,0
1252,-0.65,1645108641.5,P12,D01,0,0,0
1253,-0.66,1645108641.515625,P12,D01,0,0,0
1254,-0.62,1645108641.53125,P12,D01,0,0,0
1255,-0.56,1645108641.546875,P12,D01,0,0,0
1256,-0.5,1645108641.5625,P12,D01,0,0,0
1257,-0.42,1645108641.578125,P12,D01,0,0,0
1258,-0.28,1645108641.59375,P12,D01,0,0,0
1259,-0.07,1645108641.609375,P12,D01,0,0,0
1260,0.18,1645108641.625,P12,D01,0,0,0
1261,0.4,1645108641.640625,P12,D01,0,0,0
1262,0.54,1645108641.65625,P12,D01,0,0,0
1263,0.6,1645108641.671875,P12,D01,0,0,0
1264,0.59,1645108641.6875,P12,D01,0,0,0
1265,0.51,1645108641.703125,P12,D01,0,0,0
1266,0.38,1645108641.71875,P12,D01,0,0,0
1267,0.17,1645108641.734375,P12,D01,0,0,0
1268,-0.1,1645108641.75,P12,D01,0,0,0
1269,-0.39,1645108641.765625,P12,D01,0,0,0
1270,-0.59,1645108641.78125,P12,D01,0,0,0
1271,-0.6,1645108641.796875,P12,D01,0,0,0
1272,-0.37,1645108641.8125,P12,D01,0,0,0
1273,0.04,1645108641.828125,P12,D01,0,0,0
1274,0.45,1645108641.84375,P12,D01,0,0,0
1275,0.69,1645108641.859375,P12,D01,0,0,0
1276,0.6,1645108641.875,P12,D01,0,0,0
1277,0.18,1645108641.890625,P12,D01,0,0,0
1278,-0.44,1645108641.90625,P12,D01,0,0,0
1279,-1.03,1645108641.921875,P12,D01,0,0,0
1280,-1.41,1645108641.9375,P12,D01,0,0,0
1281,-1.5,1645108641.953125,P12,D01,0,0,0
1282,-1.31,1645108641.96875,P12,D01,0,0,0
1283,-0.98,1645108641.984375,P12,D01,0,0,0
1284,-0.61,1645108642.0,P12,D01,0,0,0
1285,-0.31,1645108642.015625,P12,D01,0,0,0
1286,-0.08,1645108642.03125,P12,D01,0,0,0
1287,0.13,1645108642.046875,P12,D01,0,0,0
1288,0.37,1645108642.0625,P12,D01,0,0,0
1289,0.63,1645108642.078125,P12,D01,0,0,0
1290,0.88,1645108642.09375,P12,D01,0,0,0
1291,1.04,1645108642.109375,P12,D01,0,0,0
1292,1.07,1645108642.125,P12,D01,0,0,0
1293,0.98,1645108642.140625,P12,D01,0,0,0
1294,0.81,1645108642.15625,P12,D01,0,0,0
1295,0.64,1645108642.171875,P12,D01,0,0,0
1296,0.51,1645108642.1875,P12,D01,0,0,0
1297,0.39,1645108642.203125,P12,D01,0,0,0
1298,0.22,1645108642.21875,P12,D01,0,0,0
1299,-0.04,1645108642.234375,P12,D01,0,0,0
1300,-0.39,1645108642.25,P12,D01,0,0,0
1301,-0.75,1645108642.265625,P12,D01,0,0,0
1302,-0.95,1645108642.28125,P12,D01,0,0,0
1303,-0.91,1645108642.296875,P12,D01,0,0,0
1304,-0.61,1645108642.3125,P12,D01,0,0,0
1305,-0.16,1645108642.328125,P12,D01,0,0,0
1306,0.3,1645108642.34375,P12,D01,0,0,0
1307,0.62,1645108642.359375,P12,D01,0,0,0
1308,0.75,1645108642.375,P12,D01,0,0,0
1309,0.73,1645108642.390625,P12,D01,0,0,0
1310,0.68,1645108642.40625,P12,D01,0,0,0
1311,0.65,1645108642.421875,P12,D01,0,0,0
1312,0.68,1645108642.4375,P12,D01,0,0,0
1313,0.71,1645108642.453125,P12,D01,0,0,0
1314,0.69,1645108642.46875,P12,D01,0,0,0
1315,0.6,1645108642.484375,P12,D01,0,0,0
1316,0.43,1645108642.5,P12,D01,0,0,0
1317,0.25,1645108642.515625,P12,D01,0,0,0
1318,0.1,1645108642.53125,P12,D01,0,0,0
1319,0.01,1645108642.546875,P12,D01,0,0,0
1320,-0.03,1645108642.5625,P12,D01,0,0,0
1321,-0.07,1645108642.578125,P12,D01,0,0,0
1322,-0.14,1645108642.59375,P12,D01,0,0,0
1323,-0.26,1645108642.609375,P12,D01,0,0,0
1324,-0.38,1645108642.625,P12,D01,0,0,0
1325,-0.44,1645108642.640625,P12,D01,0,0,0
1326,-0.41,1645108642.65625,P12,D01,0,0,0
1327,-0.28,1645108642.671875,P12,D01,0,0,0
1328,-0.14,1645108642.6875,P12,D01,0,0,0
1329,-0.05,1645108642.703125,P12,D01,0,0,0
1330,-0.03,1645108642.71875,P12,D01,0,0,0
1331,-0.04,1645108642.734375,P12,D01,0,0,0
1332,0.01,1645108642.75,P12,D01,0,0,0
1333,0.18,1645108642.765625,P12,D01,0,0,0
1334,0.43,1645108642.78125,P12,D01,0,0,0
1335,0.66,1645108642.796875,P12,D01,0,0,0
1336,0.71,1645108642.8125,P12,D01,0,0,0
1337,0.53,1645108642.828125,P12,D01,0,0,0
1338,0.16,1645108642.84375,P12,D01,0,0,0
1339,-0.23,1645108642.859375,P12,D01,0,0,0
1340,-0.49,1645108642.875,P12,D01,0,0,0
1341,-0.52,1645108642.890625,P12,D01,0,0,0
1342,-0.35,1645108642.90625,P12,D01,0,0,0
1343,-0.08,1645108642.921875,P12,D01,0,0,0
1344,0.17,1645108642.9375,P12,D01,0,0,0
1345,0.36,1645108642.953125,P12,D01,0,0,0
1346,0.45,1645108642.96875,P12,D01,0,0,0
1347,0.46,1645108642.984375,P12,D01,0,0,0
1348,0.4,1645108643.0,P12,D01,0,0,0
1349,0.27,1645108643.015625,P12,D01,0,0,0
1350,0.13,1645108643.03125,P12,D01,0,0,0
1351,0.03,1645108643.046875,P12,D01,0,0,0
1352,0.01,1645108643.0625,P12,D01,0,0,0
1353,0.07,1645108643.078125,P12,D01,0,0,0
1354,0.13,1645108643.09375,P12,D01,0,0,0
1355,0.11,1645108643.109375,P12,D01,0,0,0
1356,-0.06,1645108643.125,P12,D01,0,0,0
1357,-0.38,1645108643.140625,P12,D01,0,0,0
1358,-0.75,1645108643.15625,P12,D01,0,0,0
1359,-1.02,1645108643.171875,P12,D01,0,0,0
1360,-1.08,1645108643.1875,P12,D01,0,0,0
1361,-0.93,1645108643.203125,P12,D01,0,0,0
1362,-0.65,1645108643.21875,P12,D01,0,0,0
1363,-0.34,1645108643.234375,P12,D01,0,0,0
1364,-0.11,1645108643.25,P12,D01,0,0,0
1365,0.04,1645108643.265625,P12,D01,0,0,0
1366,0.12,1645108643.28125,P12,D01,0,0,0
1367,0.18,1645108643.296875,P12,D01,0,0,0
1368,0.22,1645108643.3125,P12,D01,0,0,0
1369,0.24,1645108643.328125,P12,D01,0,0,0
1370,0.19,1645108643.34375,P12,D01,0,0,0
1371,0.08,1645108643.359375,P12,D01,0,0,0
1372,-0.06,1645108643.375,P12,D01,0,0,0
1373,-0.14,1645108643.390625,P12,D01,0,0,0
1374,-0.12,1645108643.40625,P12,D01,0,0,0
1375,-0.01,1645108643.421875,P12,D01,0,0,0
1376,0.11,1645108643.4375,P12,D01,0,0,0
1377,0.18,1645108643.453125,P12,D01,0,0,0
1378,0.12,1645108643.46875,P12,D01,0,0,0
1379,-0.04,1645108643.484375,P12,D01,0,0,0
1380,-0.25,1645108643.5,P12,D01,0,0,0
1381,-0.41,1645108643.515625,P12,D01,0,0,0
1382,-0.45,1645108643.53125,P12,D01,0,0,0
1383,-0.35,1645108643.546875,P12,D01,0,0,0
1384,-0.15,1645108643.5625,P12,D01,0,0,0
1385,0.07,1645108643.578125,P12,D01,0,0,0
1386,0.23,1645108643.59375,P12,D01,0,0,0
1387,0.3,1645108643.609375,P12,D01,0,0,0
1388,0.25,1645108643.625,P12,D01,0,0,0
1389,0.12,1645108643.640625,P12,D01,0,0,0
1390,-0.06,1645108643.65625,P12,D01,0,0,0
1391,-0.23,1645108643.671875,P12,D01,0,0,0
1392,-0.37,1645108643.6875,P12,D01,0,0,0
1393,-0.46,1645108643.703125,P12,D01,0,0,0
1394,-0.51,1645108643.71875,P12,D01,0,0,0
1395,-0.53,1645108643.734375,P12,D01,0,0,0
1396,-0.54,1645108643.75,P12,D01,0,0,0
1397,-0.55,1645108643.765625,P12,D01,0,0,0
1398,-0.54,1645108643.78125,P12,D01,0,0,0
1399,-0.48,1645108643.796875,P12,D01,0,0,0
1400,-0.37,1645108643.8125,P12,D01,0,0,0
1401,-0.19,1645108643.828125,P12,D01,0,0,0
1402,0.04,1645108643.84375,P12,D01,0,0,0
1403,0.27,1645108643.859375,P12,D01,0,0,0
1404,0.44,1645108643.875,P12,D01,0,0,0
1405,0.5,1645108643.890625,P12,D01,0,0,0
1406,0.45,1645108643.90625,P12,D01,0,0,0
1407,0.31,1645108643.921875,P12,D01,0,0,0
1408,0.12,1645108643.9375,P12,D01,0,0,0
1409,-0.06,1645108643.953125,P12,D01,0,0,0
1410,-0.18,1645108643.96875,P12,D01,0,0,0
1411,-0.21,1645108643.984375,P12,D01,0,0,0
1412,-0.13,1645108644.0,P12,D01,0,0,0
1413,0.03,1645108644.015625,P12,D01,0,0,0
1414,0.24,1645108644.03125,P12,D01,0,0,0
1415,0.43,1645108644.046875,P12,D01,0,0,0
1416,0.53,1645108644.0625,P12,D01,0,0,0
1417,0.49,1645108644.078125,P12,D01,0,0,0
1418,0.33,1645108644.09375,P12,D01,0,0,0
1419,0.13,1645108644.109375,P12,D01,0,0,0
1420,-0.04,1645108644.125,P12,D01,0,0,0
1421,-0.08,1645108644.140625,P12,D01,0,0,0
1422,-0.01,1645108644.15625,P12,D01,0,0,0
1423,0.16,1645108644.171875,P12,D01,0,0,0
1424,0.35,1645108644.1875,P12,D01,0,0,0
1425,0.53,1645108644.203125,P12,D01,0,0,0
1426,0.71,1645108644.21875,P12,D01,0,0,0
1427,0.89,1645108644.234375,P12,D01,0,0,0
1428,1.05,1645108644.25,P12,D01,0,0,0
1429,1.12,1645108644.265625,P12,D01,0,0,0
1430,1.04,1645108644.28125,P12,D01,0,0,0
1431,0.79,1645108644.296875,P12,D01,0,0,0
1432,0.45,1645108644.3125,P12,D01,0,0,0
1433,0.15,1645108644.328125,P12,D01,0,0,0
1434,-0.01,1645108644.34375,P12,D01,0,0,0
1435,0.04,1645108644.359375,P12,D01,0,0,0
1436,0.21,1645108644.375,P12,D01,0,0,0
1437,0.41,1645108644.390625,P12,D01,0,0,0
1438,0.53,1645108644.40625,P12,D01,0,0,0
1439,0.53,1645108644.421875,P12,D01,0,0,0
1440,0.45,1645108644.4375,P12,D01,0,0,0
1441,0.33,1645108644.453125,P12,D01,0,0,0
1442,0.23,1645108644.46875,P12,D01,0,0,0
1443,0.16,1645108644.484375,P12,D01,0,0,0
1444,0.13,1645108644.5,P12,D01,0,0,0
1445,0.14,1645108644.515625,P12,D01,0,0,0
1446,0.17,1645108644.53125,P12,D01,0,0,0
1447,0.21,1645108644.546875,P12,D01,0,0,0
1448,0.23,1645108644.5625,P12,D01,0,0,0
1449,0.2,1645108644.578125,P12,D01,0,0,0
1450,0.13,1645108644.59375,P12,D01,0,0,0
1451,0.02,1645108644.609375,P12,D01,0,0,0
1452,-0.07,1645108644.625,P12,D01,0,0,0
1453,-0.14,1645108644.640625,P12,D01,0,0,0
1454,-0.22,1645108644.65625,P12,D01,0,0,0
1455,-0.33,1645108644.671875,P12,D01,0,0,0
1456,-0.49,1645108644.6875,P12,D01,0,0,0
1457,-0.66,1645108644.703125,P12,D01,0,0,0
1458,-0.78,1645108644.71875,P12,D01,0,0,0
1459,-0.8,1645108644.734375,P12,D01,0,0,0
1460,-0.72,1645108644.75,P12,D01,0,0,0
1461,-0.62,1645108644.765625,P12,D01,0,0,0
1462,-0.58,1645108644.78125,P12,D01,0,0,0
1463,-0.64,1645108644.796875,P12,D01,0,0,0
1464,-0.79,1645108644.8125,P12,D01,0,0,0
1465,-0.95,1645108644.828125,P12,D01,0,0,0
1466,-1.02,1645108644.84375,P12,D01,0,0,0
1467,-0.95,1645108644.859375,P12,D01,0,0,0
1468,-0.73,1645108644.875,P12,D01,0,0,0
1469,-0.37,1645108644.890625,P12,D01,0,0,0
1470,0.05,1645108644.90625,P12,D01,0,0,0
1471,0.47,1645108644.921875,P12,D01,0,0,0
1472,0.77,1645108644.9375,P12,D01,0,0,0
1473,0.89,1645108644.953125,P12,D01,0,0,0
1474,0.79,1645108644.96875,P12,D01,0,0,0
1475,0.51,1645108644.984375,P12,D01,0,0,0
1476,0.18,1645108645.0,P12,D01,0,0,0
1477,-0.1,1645108645.015625,P12,D01,0,0,0
1478,-0.25,1645108645.03125,P12,D01,0,0,0
1479,-0.26,1645108645.046875,P12,D01,0,0,0
1480,-0.21,1645108645.0625,P12,D01,0,0,0
1481,-0.17,1645108645.078125,P12,D01,0,0,0
1482,-0.17,1645108645.09375,P12,D01,0,0,0
1483,-0.18,1645108645.109375,P12,D01,0,0,0
1484,-0.14,1645108645.125,P12,D01,0,0,0
1485,-0.04,1645108645.140625,P12,D01,0,0,0
1486,0.1,1645108645.15625,P12,D01,0,0,0
1487,0.19,1645108645.171875,P12,D01,0,0,0
1488,0.16,1645108645.1875,P12,D01,0,0,0
1489,0.0,1645108645.203125,P12,D01,0,0,0
1490,-0.24,1645108645.21875,P12,D01,0,0,0
1491,-0.48,1645108645.234375,P12,D01,0,0,0
1492,-0.63,1645108645.25,P12,D01,0,0,0
1493,-0.63,1645108645.265625,P12,D01,0,0,0
1494,-0.48,1645108645.28125,P12,D01,0,0,0
1495,-0.22,1645108645.296875,P12,D01,0,0,0
1496,0.11,1645108645.3125,P12,D01,0,0,0
1497,0.44,1645108645.328125,P12,D01,0,0,0
1498,0.69,1645108645.34375,P12,D01,0,0,0
1499,0.79,1645108645.359375,P12,D01,0,0,0
1500,0.71,1645108645.375,P12,D01,0,0,0
1501,0.46,1645108645.390625,P12,D01,0,0,0
1502,0.12,1645108645.40625,P12,D01,0,0,0
1503,-0.19,1645108645.421875,P12,D01,0,0,0
1504,-0.39,1645108645.4375,P12,D01,0,0,0
1505,-0.47,1645108645.453125,P12,D01,0,0,0
1506,-0.47,1645108645.46875,P12,D01,0,0,0
1507,-0.46,1645108645.484375,P12,D01,0,0,0
1508,-0.5,1645108645.5,P12,D01,0,0,0
1509,-0.59,1645108645.515625,P12,D01,0,0,0
1510,-0.72,1645108645.53125,P12,D01,0,0,0
1511,-0.82,1645108645.546875,P12,D01,0,0,0
1512,-0.86,1645108645.5625,P12,D01,0,0,0
1513,-0.82,1645108645.578125,P12,D01,0,0,0
1514,-0.72,1645108645.59375,P12,D01,0,0,0
1515,-0.57,1645108645.609375,P12,D01,0,0,0
1516,-0.4,1645108645.625,P12,D01,0,0,0
1517,-0.27,1645108645.640625,P12,D01,0,0,0
1518,-0.18,1645108645.65625,P12,D01,0,0,0
1519,-0.11,1645108645.671875,P12,D01,0,0,0
1520,0.03,1645108645.6875,P12,D01,0,0,0
1521,0.29,1645108645.703125,P12,D01,0,0,0
1522,0.71,1645108645.71875,P12,D01,0,0,0
1523,1.24,1645108645.734375,P12,D01,0,0,0
1524,1.73,1645108645.75,P12,D01,0,0,0
1525,2.02,1645108645.765625,P12,D01,0,0,0
1526,2.01,1645108645.78125,P12,D01,0,0,0
1527,1.69,1645108645.796875,P12,D01,0,0,0
1528,1.17,1645108645.8125,P12,D01,0,0,0
1529,0.63,1645108645.828125,P12,D01,0,0,0
1530,0.21,1645108645.84375,P12,D01,0,0,0
1531,0.01,1645108645.859375,P12,D01,0,0,0
1532,-0.01,1645108645.875,P12,D01,0,0,0
1533,0.08,1645108645.890625,P12,D01,0,0,0
1534,0.2,1645108645.90625,P12,D01,0,0,0
1535,0.28,1645108645.921875,P12,D01,0,0,0
1536,0.28,1645108645.9375,P12,D01,0,0,0
1537,0.21,1645108645.953125,P12,D01,0,0,0
1538,0.11,1645108645.96875,P12,D01,0,0,0
1539,0.06,1645108645.984375,P12,D01,0,0,0
1540,0.1,1645108646.0,P12,D01,0,0,0
1541,0.25,1645108646.015625,P12,D01,0,0,0
1542,0.45,1645108646.03125,P12,D01,0,0,0
1543,0.61,1645108646.046875,P12,D01,0,0,0
1544,0.61,1645108646.0625,P12,D01,0,0,0
1545,0.44,1645108646.078125,P12,D01,0,0,0
1546,0.13,1645108646.09375,P12,D01,0,0,0
1547,-0.17,1645108646.109375,P12,D01,0,0,0
1548,-0.35,1645108646.125,P12,D01,0,0,0
1549,-0.37,1645108646.140625,P12,D01,0,0,0
1550,-0.29,1645108646.15625,P12,D01,0,0,0
1551,-0.24,1645108646.171875,P12,D01,0,0,0
1552,-0.32,1645108646.1875,P12,D01,0,0,0
1553,-0.55,1645108646.203125,P12,D01,0,0,0
1554,-0.83,1645108646.21875,P12,D01,0,0,0
1555,-1.02,1645108646.234375,P12,D01,0,0,0
1556,-1.03,1645108646.25,P12,D01,0,0,0
1557,-0.86,1645108646.265625,P12,D01,0,0,0
1558,-0.58,1645108646.28125,P12,D01,0,0,0
1559,-0.33,1645108646.296875,P12,D01,0,0,0
1560,-0.18,1645108646.3125,P12,D01,0,0,0
1561,-0.15,1645108646.328125,P12,D01,0,0,0
1562,-0.2,1645108646.34375,P12,D01,0,0,0
1563,-0.26,1645108646.359375,P12,D01,0,0,0
1564,-0.29,1645108646.375,P12,D01,0,0,0
1565,-0.29,1645108646.390625,P12,D01,0,0,0
1566,-0.31,1645108646.40625,P12,D01,0,0,0
1567,-0.37,1645108646.421875,P12,D01,0,0,0
1568,-0.51,1645108646.4375,P12,D01,0,0,0
1569,-0.68,1645108646.453125,P12,D01,0,0,0
1570,-0.83,1645108646.46875,P12,D01,0,0,0
1571,-0.88,1645108646.484375,P12,D01,0,0,0
1572,-0.8,1645108646.5,P12,D01,0,0,0
1573,-0.61,1645108646.515625,P12,D01,0,0,0
1574,-0.38,1645108646.53125,P12,D01,0,0,0
1575,-0.17,1645108646.546875,P12,D01,0,0,0
1576,-0.05,1645108646.5625,P12,D01,0,0,0
1577,-0.01,1645108646.578125,P12,D01,0,0,0
1578,-0.02,1645108646.59375,P12,D01,0,0,0
1579,-0.02,1645108646.609375,P12,D01,0,0,0
1580,0.06,1645108646.625,P12,D01,0,0,0
1581,0.26,1645108646.640625,P12,D01,0,0,0
1582,0.56,1645108646.65625,P12,D01,0,0,0
1583,0.86,1645108646.671875,P12,D01,0,0,0
1584,1.09,1645108646.6875,P12,D01,0,0,0
1585,1.16,1645108646.703125,P12,D01,0,0,0
1586,1.06,1645108646.71875,P12,D01,0,0,0
1587,0.86,1645108646.734375,P12,D01,0,0,0
1588,0.67,1645108646.75,P12,D01,0,0,0
1589,0.59,1645108646.765625,P12,D01,0,0,0
1590,0.61,1645108646.78125,P12,D01,0,0,0
1591,0.68,1645108646.796875,P12,D01,0,0,0
1592,0.67,1645108646.8125,P12,D01,0,0,0
1593,0.51,1645108646.828125,P12,D01,0,0,0
1594,0.26,1645108646.84375,P12,D01,0,0,0
1595,0.03,1645108646.859375,P12,D01,0,0,0
1596,-0.05,1645108646.875,P12,D01,0,0,0
1597,0.06,1645108646.890625,P12,D01,0,0,0
1598,0.3,1645108646.90625,P12,D01,0,0,0
1599,0.52,1645108646.921875,P12,D01,0,0,0
1600,0.58,1645108646.9375,P12,D01,0,0,0
1601,0.38,1645108646.953125,P12,D01,0,0,0
1602,-0.03,1645108646.96875,P12,D01,0,0,0
1603,-0.55,1645108646.984375,P12,D01,0,0,0
1604,-1.01,1645108647.0,P12,D01,0,0,0
1605,-1.31,1645108647.015625,P12,D01,0,0,0
1606,-1.4,1645108647.03125,P12,D01,0,0,0
1607,-1.31,1645108647.046875,P12,D01,0,0,0
1608,-1.11,1645108647.0625,P12,D01,0,0,0
1609,-0.86,1645108647.078125,P12,D01,0,0,0
1610,-0.6,1645108647.09375,P12,D01,0,0,0
1611,-0.36,1645108647.109375,P12,D01,0,0,0
1612,-0.17,1645108647.125,P12,D01,0,0,0
1613,-0.04,1645108647.140625,P12,D01,0,0,0
1614,0.03,1645108647.15625,P12,D01,0,0,0
1615,0.05,1645108647.171875,P12,D01,0,0,0
1616,0.06,1645108647.1875,P12,D01,0,0,0
1617,0.12,1645108647.203125,P12,D01,0,0,0
1618,0.29,1645108647.21875,P12,D01,0,0,0
1619,0.56,1645108647.234375,P12,D01,0,0,0
1620,0.87,1645108647.25,P12,D01,0,0,0
1621,1.11,1645108647.265625,P12,D01,0,0,0
1622,1.16,1645108647.28125,P12,D01,0,0,0
1623,0.99,1645108647.296875,P12,D01,0,0,0
1624,0.6,1645108647.3125,P12,D01,0,0,0
1625,0.09,1645108647.328125,P12,D01,0,0,0
1626,-0.38,1645108647.34375,P12,D01,0,0,0
1627,-0.69,1645108647.359375,P12,D01,0,0,0
1628,-0.75,1645108647.375,P12,D01,0,0,0
1629,-0.57,1645108647.390625,P12,D01,0,0,0
1630,-0.27,1645108647.40625,P12,D01,0,0,0
1631,0.01,1645108647.421875,P12,D01,0,0,0
1632,0.16,1645108647.4375,P12,D01,0,0,0
1633,0.16,1645108647.453125,P12,D01,0,0,0
1634,0.07,1645108647.46875,P12,D01,0,0,0
1635,-0.02,1645108647.484375,P12,D01,0,0,0
1636,-0.05,1645108647.5,P12,D01,0,0,0
1637,-0.0,1645108647.515625,P12,D01,0,0,0
1638,0.04,1645108647.53125,P12,D01,0,0,0
1639,0.04,1645108647.546875,P12,D01,0,0,0
1640,0.0,1645108647.5625,P12,D01,0,0,0
1641,0.0,1645108647.578125,P12,D01,0,0,0
1642,0.13,1645108647.59375,P12,D01,0,0,0
1643,0.41,1645108647.609375,P12,D01,0,0,0
1644,0.78,1645108647.625,P12,D01,0,0,0
1645,1.12,1645108647.640625,P12,D01,0,0,0
1646,1.31,1645108647.65625,P12,D01,0,0,0
1647,1.3,1645108647.671875,P12,D01,0,0,0
1648,1.13,1645108647.6875,P12,D01,0,0,0
1649,0.89,1645108647.703125,P12,D01,0,0,0
1650,0.64,1645108647.71875,P12,D01,0,0,0
1651,0.42,1645108647.734375,P12,D01,0,0,0
1652,0.22,1645108647.75,P12,D01,0,0,0
1653,0.02,1645108647.765625,P12,D01,0,0,0
1654,-0.19,1645108647.78125,P12,D01,0,0,0
1655,-0.37,1645108647.796875,P12,D01,0,0,0
1656,-0.5,1645108647.8125,P12,D01,0,0,0
1657,-0.56,1645108647.828125,P12,D01,0,0,0
1658,-0.54,1645108647.84375,P12,D01,0,0,0
1659,-0.47,1645108647.859375,P12,D01,0,0,0
1660,-0.39,1645108647.875,P12,D01,0,0,0
1661,-0.38,1645108647.890625,P12,D01,0,0,0
1662,-0.48,1645108647.90625,P12,D01,0,0,0
1663,-0.7,1645108647.921875,P12,D01,0,0,0
1664,-0.99,1645108647.9375,P12,D01,0,0,0
1665,-1.25,1645108647.953125,P12,D01,0,0,0
1666,-1.36,1645108647.96875,P12,D01,0,0,0
1667,-1.26,1645108647.984375,P12,D01,0,0,0
1668,-0.98,1645108648.0,P12,D01,0,0,0
1669,-0.64,1645108648.015625,P12,D01,0,0,0
1670,-0.38,1645108648.03125,P12,D01,0,0,0
1671,-0.28,1645108648.046875,P12,D01,0,0,0
1672,-0.31,1645108648.0625,P12,D01,0,0,0
1673,-0.37,1645108648.078125,P12,D01,0,0,0
1674,-0.33,1645108648.09375,P12,D01,0,0,0
1675,-0.17,1645108648.109375,P12,D01,0,0,0
1676,0.03,1645108648.125,P12,D01,0,0,0
1677,0.14,1645108648.140625,P12,D01,0,0,0
1678,0.04,1645108648.15625,P12,D01,0,0,0
1679,-0.27,1645108648.171875,P12,D01,0,0,0
1680,-0.67,1645108648.1875,P12,D01,0,0,0
1681,-0.98,1645108648.203125,P12,D01,0,0,0
1682,-1.06,1645108648.21875,P12,D01,0,0,0
1683,-0.84,1645108648.234375,P12,D01,0,0,0
1684,-0.4,1645108648.25,P12,D01,0,0,0
1685,0.14,1645108648.265625,P12,D01,0,0,0
1686,0.61,1645108648.28125,P12,D01,0,0,0
1687,0.9,1645108648.296875,P12,D01,0,0,0
1688,0.98,1645108648.3125,P12,D01,0,0,0
1689,0.86,1645108648.328125,P12,D01,0,0,0
1690,0.64,1645108648.34375,P12,D01,0,0,0
1691,0.41,1645108648.359375,P12,D01,0,0,0
1692,0.25,1645108648.375,P12,D01,0,0,0
1693,0.23,1645108648.390625,P12,D01,0,0,0
1694,0.35,1645108648.40625,P12,D01,0,0,0
1695,0.58,1645108648.421875,P12,D01,0,0,0
1696,0.82,1645108648.4375,P12,D01,0,0,0
1697,1.01,1645108648.453125,P12,D01,0,0,0
1698,1.06,1645108648.46875,P12,D01,0,0,0
1699,0.95,1645108648.484375,P12,D01,0,0,0
1700,0.69,1645108648.5,P12,D01,0,0,0
1701,0.33,1645108648.515625,P12,D01,0,0,0
1702,-0.03,1645108648.53125,P12,D01,0,0,0
1703,-0.3,1645108648.546875,P12,D01,0,0,0
1704,-0.4,1645108648.5625,P12,D01,0,0,0
1705,-0.3,1645108648.578125,P12,D01,0,0,0
1706,-0.02,1645108648.59375,P12,D01,0,0,0
1707,0.35,1645108648.609375,P12,D01,0,0,0
1708,0.71,1645108648.625,P12,D01,0,0,0
1709,0.93,1645108648.640625,P12,D01,0,0,0
1710,0.97,1645108648.65625,P12,D01,0,0,0
1711,0.81,1645108648.671875,P12,D01,0,0,0
1712,0.51,1645108648.6875,P12,D01,0,0,0
1713,0.15,1645108648.703125,P12,D01,0,0,0
1714,-0.17,1645108648.71875,P12,D01,0,0,0
1715,-0.39,1645108648.734375,P12,D01,0,0,0
1716,-0.46,1645108648.75,P12,D01,0,0,0
1717,-0.39,1645108648.765625,P12,D01,0,0,0
1718,-0.23,1645108648.78125,P12,D01,0,0,0
1719,-0.03,1645108648.796875,P12,D01,0,0,0
1720,0.13,1645108648.8125,P12,D01,0,0,0
1721,0.18,1645108648.828125,P12,D01,0,0,0
1722,0.04,1645108648.84375,P12,D01,0,0,0
1723,-0.29,1645108648.859375,P12,D01,0,0,0
1724,-0.77,1645108648.875,P12,D01,0,0,0
1725,-1.27,1645108648.890625,P12,D01,0,0,0
1726,-1.65,1645108648.90625,P12,D01,0,0,0
1727,-1.81,1645108648.921875,P12,D01,0,0,0
1728,-1.7,1645108648.9375,P12,D01,0,0,0
1729,-1.41,1645108648.953125,P12,D01,0,0,0
1730,-1.05,1645108648.96875,P12,D01,0,0,0
1731,-0.74,1645108648.984375,P12,D01,0,0,0
1732,-0.56,1645108649.0,P12,D01,0,0,0
1733,-0.49,1645108649.015625,P12,D01,0,0,0
1734,-0.46,1645108649.03125,P12,D01,0,0,0
1735,-0.37,1645108649.046875,P12,D01,0,0,0
1736,-0.16,1645108649.0625,P12,D01,0,0,0
1737,0.14,1645108649.078125,P12,D01,0,0,0
1738,0.45,1645108649.09375,P12,D01,0,0,0
1739,0.64,1645108649.109375,P12,D01,0,0,0
1740,0.64,1645108649.125,P12,D01,0,0,0
1741,0.45,1645108649.140625,P12,D01,0,0,0
1742,0.17,1645108649.15625,P12,D01,0,0,0
1743,-0.1,1645108649.171875,P12,D01,0,0,0
1744,-0.23,1645108649.1875,P12,D01,0,0,0
1745,-0.16,1645108649.203125,P12,D01,0,0,0
1746,0.12,1645108649.21875,P12,D01,0,0,0
1747,0.55,1645108649.234375,P12,D01,0,0,0
1748,1.0,1645108649.25,P12,D01,0,0,0
1749,1.36,1645108649.265625,P12,D01,0,0,0
1750,1.51,1645108649.28125,P12,D01,0,0,0
1751,1.41,1645108649.296875,P12,D01,0,0,0
1752,1.04,1645108649.3125,P12,D01,0,0,0
1753,0.53,1645108649.328125,P12,D01,0,0,0
1754,0.0,1645108649.34375,P12,D01,0,0,0
1755,-0.38,1645108649.359375,P12,D01,0,0,0
1756,-0.52,1645108649.375,P12,D01,0,0,0
1757,-0.43,1645108649.390625,P12,D01,0,0,0
1758,-0.16,1645108649.40625,P12,D01,0,0,0
1759,0.14,1645108649.421875,P12,D01,0,0,0
1760,0.42,1645108649.4375,P12,D01,0,0,0
1761,0.62,1645108649.453125,P12,D01,0,0,0
1762,0.72,1645108649.46875,P12,D01,0,0,0
1763,0.72,1645108649.484375,P12,D01,0,0,0
1764,0.61,1645108649.5,P12,D01,0,0,0
1765,0.39,1645108649.515625,P12,D01,0,0,0
1766,0.09,1645108649.53125,P12,D01,0,0,0
1767,-0.18,1645108649.546875,P12,D01,0,0,0
1768,-0.32,1645108649.5625,P12,D01,0,0,0
1769,-0.28,1645108649.578125,P12,D01,0,0,0
1770,-0.1,1645108649.59375,P12,D01,0,0,0
1771,0.1,1645108649.609375,P12,D01,0,0,0
1772,0.2,1645108649.625,P12,D01,0,0,0
1773,0.1,1645108649.640625,P12,D01,0,0,0
1774,-0.13,1645108649.65625,P12,D01,0,0,0
1775,-0.39,1645108649.671875,P12,D01,0,0,0
1776,-0.54,1645108649.6875,P12,D01,0,0,0
1777,-0.53,1645108649.703125,P12,D01,0,0,0
1778,-0.39,1645108649.71875,P12,D01,0,0,0
1779,-0.21,1645108649.734375,P12,D01,0,0,0
1780,-0.07,1645108649.75,P12,D01,0,0,0
1781,0.01,1645108649.765625,P12,D01,0,0,0
1782,0.06,1645108649.78125,P12,D01,0,0,0
1783,0.13,1645108649.796875,P12,D01,0,0,0
1784,0.26,1645108649.8125,P12,D01,0,0,0
1785,0.43,1645108649.828125,P12,D01,0,0,0
1786,0.61,1645108649.84375,P12,D01,0,0,0
1787,0.75,1645108649.859375,P12,D01,0,0,0
1788,0.8,1645108649.875,P12,D01,0,0,0
1789,0.75,1645108649.890625,P12,D01,0,0,0
1790,0.63,1645108649.90625,P12,D01,0,0,0
1791,0.44,1645108649.921875,P12,D01,0,0,0
1792,0.23,1645108649.9375,P12,D01,0,0,0
1793,0.01,1645108649.953125,P12,D01,0,0,0
1794,-0.19,1645108649.96875,P12,D01,0,0,0
1795,-0.37,1645108649.984375,P12,D01,0,0,0
1796,-0.5,1645108650.0,P12,D01,0,0,0
1797,-0.55,1645108650.015625,P12,D01,0,0,0
1798,-0.48,1645108650.03125,P12,D01,0,0,0
1799,-0.29,1645108650.046875,P12,D01,0,0,0
1800,0.02,1645108650.0625,P12,D01,0,0,0
1801,0.36,1645108650.078125,P12,D01,0,0,0
1802,0.6,1645108650.09375,P12,D01,0,0,0
1803,0.66,1645108650.109375,P12,D01,0,0,0
1804,0.48,1645108650.125,P12,D01,0,0,0
1805,0.13,1645108650.140625,P12,D01,0,0,0
1806,-0.25,1645108650.15625,P12,D01,0,0,0
1807,-0.52,1645108650.171875,P12,D01,0,0,0
1808,-0.58,1645108650.1875,P12,D01,0,0,0
1809,-0.44,1645108650.203125,P12,D01,0,0,0
1810,-0.19,1645108650.21875,P12,D01,0,0,0
1811,0.06,1645108650.234375,P12,D01,0,0,0
1812,0.2,1645108650.25,P12,D01,0,0,0
1813,0.22,1645108650.265625,P12,D01,0,0,0
1814,0.17,1645108650.28125,P12,D01,0,0,0
1815,0.12,1645108650.296875,P12,D01,0,0,0
1816,0.1,1645108650.3125,P12,D01,0,0,0
1817,0.14,1645108650.328125,P12,D01,0,0,0
1818,0.17,1645108650.34375,P12,D01,0,0,0
1819,0.17,1645108650.359375,P12,D01,0,0,0
1820,0.12,1645108650.375,P12,D01,0,0,0
1821,0.01,1645108650.390625,P12,D01,0,0,0
1822,-0.13,1645108650.40625,P12,D01,0,0,0
1823,-0.31,1645108650.421875,P12,D01,0,0,0
1824,-0.51,1645108650.4375,P12,D01,0,0,0
1825,-0.7,1645108650.453125,P12,D01,0,0,0
1826,-0.85,1645108650.46875,P12,D01,0,0,0
1827,-0.93,1645108650.484375,P12,D01,0,0,0
1828,-0.94,1645108650.5,P12,D01,0,0,0
1829,-0.93,1645108650.515625,P12,D01,0,0,0
1830,-0.91,1645108650.53125,P12,D01,0,0,0
1831,-0.91,1645108650.546875,P12,D01,0,0,0
1832,-0.88,1645108650.5625,P12,D01,0,0,0
1833,-0.78,1645108650.578125,P12,D01,0,0,0
1834,-0.58,1645108650.59375,P12,D01,0,0,0
1835,-0.34,1645108650.609375,P12,D01,0,0,0
1836,-0.12,1645108650.625,P12,D01,0,0,0
1837,0.01,1645108650.640625,P12,D01,0,0,0
1838,0.02,1645108650.65625,P12,D01,0,0,0
1839,-0.06,1645108650.671875,P12,D01,0,0,0
1840,-0.16,1645108650.6875,P12,D01,0,0,0
1841,-0.22,1645108650.703125,P12,D01,0,0,0
1842,-0.18,1645108650.71875,P12,D01,0,0,0
1843,-0.01,1645108650.734375,P12,D01,0,0,0
1844,0.26,1645108650.75,P12,D01,0,0,0
1845,0.61,1645108650.765625,P12,D01,0,0,0
1846,0.97,1645108650.78125,P12,D01,0,0,0
1847,1.27,1645108650.796875,P12,D01,0,0,0
1848,1.41,1645108650.8125,P12,D01,0,0,0
1849,1.38,1645108650.828125,P12,D01,0,0,0
1850,1.19,1645108650.84375,P12,D01,0,0,0
1851,0.96,1645108650.859375,P12,D01,0,0,0
1852,0.79,1645108650.875,P12,D01,0,0,0
1853,0.75,1645108650.890625,P12,D01,0,0,0
1854,0.83,1645108650.90625,P12,D01,0,0,0
1855,0.97,1645108650.921875,P12,D01,0,0,0
1856,1.07,1645108650.9375,P12,D01,0,0,0
1857,1.07,1645108650.953125,P12,D01,0,0,0
1858,0.94,1645108650.96875,P12,D01,0,0,0
1859,0.7,1645108650.984375,P12,D01,0,0,0
1860,0.38,1645108651.0,P12,D01,0,0,0
1861,0.02,1645108651.015625,P12,D01,0,0,0
1862,-0.32,1645108651.03125,P12,D01,0,0,0
1863,-0.59,1645108651.046875,P12,D01,0,0,0
1864,-0.74,1645108651.0625,P12,D01,0,0,0
1865,-0.74,1645108651.078125,P12,D01,0,0,0
1866,-0.59,1645108651.09375,P12,D01,0,0,0
1867,-0.35,1645108651.109375,P12,D01,0,0,0
1868,-0.12,1645108651.125,P12,D01,0,0,0
1869,0.01,1645108651.140625,P12,D01,0,0,0
1870,-0.04,1645108651.15625,P12,D01,0,0,0
1871,-0.28,1645108651.171875,P12,D01,0,0,0
1872,-0.61,1645108651.1875,P12,D01,0,0,0
1873,-0.94,1645108651.203125,P12,D01,0,0,0
1874,-1.15,1645108651.21875,P12,D01,0,0,0
1875,-1.19,1645108651.234375,P12,D01,0,0,0
1876,-1.1,1645108651.25,P12,D01,0,0,0
1877,-0.94,1645108651.265625,P12,D01,0,0,0
1878,-0.79,1645108651.28125,P12,D01,0,0,0
1879,-0.68,1645108651.296875,P12,D01,0,0,0
1880,-0.59,1645108651.3125,P12,D01,0,0,0
1881,-0.51,1645108651.328125,P12,D01,0,0,0
1882,-0.44,1645108651.34375,P12,D01,0,0,0
1883,-0.38,1645108651.359375,P12,D01,0,0,0
1884,-0.34,1645108651.375,P12,D01,0,0,0
1885,-0.31,1645108651.390625,P12,D01,0,0,0
1886,-0.27,1645108651.40625,P12,D01,0,0,0
1887,-0.19,1645108651.421875,P12,D01,0,0,0
1888,-0.07,1645108651.4375,P12,D01,0,0,0
1889,0.07,1645108651.453125,P12,D01,0,0,0
1890,0.21,1645108651.46875,P12,D01,0,0,0
1891,0.32,1645108651.484375,P12,D01,0,0,0
1892,0.39,1645108651.5,P12,D01,0,0,0
1893,0.43,1645108651.515625,P12,D01,0,0,0
1894,0.45,1645108651.53125,P12,D01,0,0,0
1895,0.45,1645108651.546875,P12,D01,0,0,0
1896,0.44,1645108651.5625,P12,D01,0,0,0
1897,0.44,1645108651.578125,P12,D01,0,0,0
1898,0.46,1645108651.59375,P12,D01,0,0,0
1899,0.51,1645108651.609375,P12,D01,0,0,0
1900,0.54,1645108651.625,P12,D01,0,0,0
1901,0.53,1645108651.640625,P12,D01,0,0,0
1902,0.44,1645108651.65625,P12,D01,0,0,0
1903,0.28,1645108651.671875,P12,D01,0,0,0
1904,0.09,1645108651.6875,P12,D01,0,0,0
1905,-0.02,1645108651.703125,P12,D01,0,0,0
1906,0.01,1645108651.71875,P12,D01,0,0,0
1907,0.22,1645108651.734375,P12,D01,0,0,0
1908,0.52,1645108651.75,P12,D01,0,0,0
1909,0.81,1645108651.765625,P12,D01,0,0,0
1910,0.95,1645108651.78125,P12,D01,0,0,0
1911,0.87,1645108651.796875,P12,D01,0,0,0
1912,0.6,1645108651.8125,P12,D01,0,0,0
1913,0.25,1645108651.828125,P12,D01,0,0,0
1914,-0.06,1645108651.84375,P12,D01,0,0,0
1915,-0.25,1645108651.859375,P12,D01,0,0,0
1916,-0.28,1645108651.875,P12,D01,0,0,0
1917,-0.21,1645108651.890625,P12,D01,0,0,0
1918,-0.09,1645108651.90625,P12,D01,0,0,0
1919,0.02,1645108651.921875,P12,D01,0,0,0
1920,0.1,1645108651.9375,P12,D01,0,0,0
1921,0.13,1645108651.953125,P12,D01,0,0,0
1922,0.09,1645108651.96875,P12,D01,0,0,0
1923,-0.03,1645108651.984375,P12,D01,0,0,0
1924,-0.25,1645108652.0,P12,D01,0,0,0
1925,-0.54,1645108652.015625,P12,D01,0,0,0
1926,-0.81,1645108652.03125,P12,D01,0,0,0
1927,-1.0,1645108652.046875,P12,D01,0,0,0
1928,-1.02,1645108652.0625,P12,D01,0,0,0
1929,-0.84,1645108652.078125,P12,D01,0,0,0
1930,-0.49,1645108652.09375,P12,D01,0,0,0
1931,-0.04,1645108652.109375,P12,D01,0,0,0
1932,0.38,1645108652.125,P12,D01,0,0,0
1933,0.66,1645108652.140625,P12,D01,0,0,0
1934,0.69,1645108652.15625,P12,D01,0,0,0
1935,0.41,1645108652.171875,P12,D01,0,0,0
1936,-0.12,1645108652.1875,P12,D01,0,0,0
1937,-0.78,1645108652.203125,P12,D01,0,0,0
1938,-1.37,1645108652.21875,P12,D01,0,0,0
1939,-1.73,1645108652.234375,P12,D01,0,0,0
1940,-1.75,1645108652.25,P12,D01,0,0,0
1941,-1.49,1645108652.265625,P12,D01,0,0,0
1942,-1.07,1645108652.28125,P12,D01,0,0,0
1943,-0.67,1645108652.296875,P12,D01,0,0,0
1944,-0.44,1645108652.3125,P12,D01,0,0,0
1945,-0.42,1645108652.328125,P12,D01,0,0,0
1946,-0.55,1645108652.34375,P12,D01,0,0,0
1947,-0.71,1645108652.359375,P12,D01,0,0,0
1948,-0.78,1645108652.375,P12,D01,0,0,0
1949,-0.67,1645108652.390625,P12,D01,0,0,0
1950,-0.41,1645108652.40625,P12,D01,0,0,0
1951,-0.04,1645108652.421875,P12,D01,0,0,0
1952,0.33,1645108652.4375,P12,D01,0,0,0
1953,0.63,1645108652.453125,P12,D01,0,0,0
1954,0.79,1645108652.46875,P12,D01,0,0,0
1955,0.84,1645108652.484375,P12,D01,0,0,0
1956,0.81,1645108652.5,P12,D01,0,0,0
1957,0.76,1645108652.515625,P12,D01,0,0,0
1958,0.72,1645108652.53125,P12,D01,0,0,0
1959,0.72,1645108652.546875,P12,D01,0,0,0
1960,0.76,1645108652.5625,P12,D01,0,0,0
1961,0.83,1645108652.578125,P12,D01,0,0,0
1962,0.9,1645108652.59375,P12,D01,0,0,0
1963,0.95,1645108652.609375,P12,D01,0,0,0
1964,0.91,1645108652.625,P12,D01,0,0,0
1965,0.76,1645108652.640625,P12,D01,0,0,0
1966,0.5,1645108652.65625,P12,D01,0,0,0
1967,0.18,1645108652.671875,P12,D01,0,0,0
1968,-0.12,1645108652.6875,P12,D01,0,0,0
1969,-0.29,1645108652.703125,P12,D01,0,0,0
1970,-0.24,1645108652.71875,P12,D01,0,0,0
1971,0.04,1645108652.734375,P12,D01,0,0,0
1972,0.49,1645108652.75,P12,D01,0,0,0
1973,0.99,1645108652.765625,P12,D01,0,0,0
1974,1.39,1645108652.78125,P12,D01,0,0,0
1975,1.55,1645108652.796875,P12,D01,0,0,0
1976,1.44,1645108652.8125,P12,D01,0,0,0
1977,1.08,1645108652.828125,P12,D01,0,0,0
1978,0.55,1645108652.84375,P12,D01,0,0,0
1979,-0.0,1645108652.859375,P12,D01,0,0,0
1980,-0.47,1645108652.875,P12,D01,0,0,0
1981,-0.74,1645108652.890625,P12,D01,0,0,0
1982,-0.76,1645108652.90625,P12,D01,0,0,0
1983,-0.56,1645108652.921875,P12,D01,0,0,0
1984,-0.23,1645108652.9375,P12,D01,0,0,0
1985,0.1,1645108652.953125,P12,D01,0,0,0
1986,0.28,1645108652.96875,P12,D01,0,0,0
1987,0.19,1645108652.984375,P12,D01,0,0,0
1988,-0.16,1645108653.0,P12,D01,0,0,0
1989,-0.68,1645108653.015625,P12,D01,0,0,0
1990,-1.19,1645108653.03125,P12,D01,0,0,0
1991,-1.52,1645108653.046875,P12,D01,0,0,0
1992,-1.56,1645108653.0625,P12,D01,0,0,0
1993,-1.32,1645108653.078125,P12,D01,0,0,0
1994,-0.93,1645108653.09375,P12,D01,0,0,0
1995,-0.52,1645108653.109375,P12,D01,0,0,0
1996,-0.19,1645108653.125,P12,D01,0,0,0
1997,0.01,1645108653.140625,P12,D01,0,0,0
1998,0.12,1645108653.15625,P12,D01,0,0,0
1999,0.18,1645108653.171875,P12,D01,0,0,0
2000,0.22,1645108653.1875,P12,D01,0,0,0
2001,0.24,1645108653.203125,P12,D01,0,0,0
2002,0.22,1645108653.21875,P12,D01,0,0,0
2003,0.13,1645108653.234375,P12,D01,0,0,0
2004,0.0,1645108653.25,P12,D01,0,0,0
2005,-0.15,1645108653.265625,P12,D01,0,0,0
2006,-0.27,1645108653.28125,P12,D01,0,0,0
2007,-0.32,1645108653.296875,P12,D01,0,0,0
2008,-0.28,1645108653.3125,P12,D01,0,0,0
2009,-0.12,1645108653.328125,P12,D01,0,0,0
2010,0.12,1645108653.34375,P12,D01,0,0,0
2011,0.42,1645108653.359375,P12,D01,0,0,0
2012,0.7,1645108653.375,P12,D01,0,0,0
2013,0.9,1645108653.390625,P12,D01,0,0,0
2014,1.0,1645108653.40625,P12,D01,0,0,0
2015,1.02,1645108653.421875,P12,D01,0,0,0
2016,1.0,1645108653.4375,P12,D01,0,0,0
2017,1.0,1645108653.453125,P12,D01,0,0,0
2018,1.0,1645108653.46875,P12,D01,0,0,0
2019,0.97,1645108653.484375,P12,D01,0,0,0
2020,0.82,1645108653.5,P12,D01,0,0,0
2021,0.51,1645108653.515625,P12,D01,0,0,0
2022,0.07,1645108653.53125,P12,D01,0,0,0
2023,-0.4,1645108653.546875,P12,D01,0,0,0
2024,-0.73,1645108653.5625,P12,D01,0,0,0
2025,-0.83,1645108653.578125,P12,D01,0,0,0
2026,-0.69,1645108653.59375,P12,D01,0,0,0
2027,-0.43,1645108653.609375,P12,D01,0,0,0
2028,-0.19,1645108653.625,P12,D01,0,0,0
2029,-0.09,1645108653.640625,P12,D01,0,0,0
2030,-0.19,1645108653.65625,P12,D01,0,0,0
2031,-0.42,1645108653.671875,P12,D01,0,0,0
2032,-0.68,1645108653.6875,P12,D01,0,0,0
2033,-0.85,1645108653.703125,P12,D01,0,0,0
2034,-0.87,1645108653.71875,P12,D01,0,0,0
2035,-0.75,1645108653.734375,P12,D01,0,0,0
2036,-0.53,1645108653.75,P12,D01,0,0,0
2037,-0.28,1645108653.765625,P12,D01,0,0,0
2038,-0.09,1645108653.78125,P12,D01,0,0,0
2039,0.03,1645108653.796875,P12,D01,0,0,0
2040,0.08,1645108653.8125,P12,D01,0,0,0
2041,0.09,1645108653.828125,P12,D01,0,0,0
2042,0.13,1645108653.84375,P12,D01,0,0,0
2043,0.23,1645108653.859375,P12,D01,0,0,0
2044,0.36,1645108653.875,P12,D01,0,0,0
2045,0.47,1645108653.890625,P12,D01,0,0,0
2046,0.49,1645108653.90625,P12,D01,0,0,0
2047,0.4,1645108653.921875,P12,D01,0,0,0
2048,0.26,1645108653.9375,P12,D01,0,0,0
2049,0.15,1645108653.953125,P12,D01,0,0,0
2050,0.15,1645108653.96875,P12,D01,0,0,0
2051,0.26,1645108653.984375,P12,D01,0,0,0
2052,0.44,1645108654.0,P12,D01,0,0,0
2053,0.58,1645108654.015625,P12,D01,0,0,0
2054,0.61,1645108654.03125,P12,D01,0,0,0
2055,0.5,1645108654.046875,P12,D01,0,0,0
2056,0.27,1645108654.0625,P12,D01,0,0,0
2057,-0.04,1645108654.078125,P12,D01,0,0,0
2058,-0.36,1645108654.09375,P12,D01,0,0,0
2059,-0.6,1645108654.109375,P12,D01,0,0,0
2060,-0.71,1645108654.125,P12,D01,0,0,0
2061,-0.64,1645108654.140625,P12,D01,0,0,0
2062,-0.44,1645108654.15625,P12,D01,0,0,0
2063,-0.21,1645108654.171875,P12,D01,0,0,0
2064,-0.06,1645108654.1875,P12,D01,0,0,0
2065,-0.04,1645108654.203125,P12,D01,0,0,0
2066,-0.11,1645108654.21875,P12,D01,0,0,0
2067,-0.19,1645108654.234375,P12,D01,0,0,0
2068,-0.17,1645108654.25,P12,D01,0,0,0
2069,-0.03,1645108654.265625,P12,D01,0,0,0
2070,0.18,1645108654.28125,P12,D01,0,0,0
2071,0.35,1645108654.296875,P12,D01,0,0,0
2072,0.42,1645108654.3125,P12,D01,0,0,0
2073,0.39,1645108654.328125,P12,D01,0,0,0
2074,0.32,1645108654.34375,P12,D01,0,0,0
2075,0.31,1645108654.359375,P12,D01,0,0,0
2076,0.38,1645108654.375,P12,D01,0,0,0
2077,0.49,1645108654.390625,P12,D01,0,0,0
2078,0.56,1645108654.40625,P12,D01,0,0,0
2079,0.52,1645108654.421875,P12,D01,0,0,0
2080,0.37,1645108654.4375,P12,D01,0,0,0
2081,0.12,1645108654.453125,P12,D01,0,0,0
2082,-0.18,1645108654.46875,P12,D01,0,0,0
2083,-0.45,1645108654.484375,P12,D01,0,0,0
2084,-0.63,1645108654.5,P12,D01,0,0,0
2085,-0.66,1645108654.515625,P12,D01,0,0,0
2086,-0.54,1645108654.53125,P12,D01,0,0,0
2087,-0.28,1645108654.546875,P12,D01,0,0,0
2088,0.03,1645108654.5625,P12,D01,0,0,0
2089,0.3,1645108654.578125,P12,D01,0,0,0
2090,0.42,1645108654.59375,P12,D01,0,0,0
2091,0.37,1645108654.609375,P12,D01,0,0,0
2092,0.18,1645108654.625,P12,D01,0,0,0
2093,-0.08,1645108654.640625,P12,D01,0,0,0
2094,-0.32,1645108654.65625,P12,D01,0,0,0
2095,-0.47,1645108654.671875,P12,D01,0,0,0
2096,-0.5,1645108654.6875,P12,D01,0,0,0
2097,-0.43,1645108654.703125,P12,D01,0,0,0
2098,-0.3,1645108654.71875,P12,D01,0,0,0
2099,-0.2,1645108654.734375,P12,D01,0,0,0
2100,-0.18,1645108654.75,P12,D01,0,0,0
2101,-0.28,1645108654.765625,P12,D01,0,0,0
2102,-0.49,1645108654.78125,P12,D01,0,0,0
2103,-0.72,1645108654.796875,P12,D01,0,0,0
2104,-0.85,1645108654.8125,P12,D01,0,0,0
2105,-0.79,1645108654.828125,P12,D01,0,0,0
2106,-0.48,1645108654.84375,P12,D01,0,0,0
2107,0.05,1645108654.859375,P12,D01,0,0,0
2108,0.68,1645108654.875,P12,D01,0,0,0
2109,1.27,1645108654.890625,P12,D01,0,0,0
2110,1.67,1645108654.90625,P12,D01,0,0,0
2111,1.78,1645108654.921875,P12,D01,0,0,0
2112,1.59,1645108654.9375,P12,D01,0,0,0
2113,1.17,1645108654.953125,P12,D01,0,0,0
2114,0.64,1645108654.96875,P12,D01,0,0,0
2115,0.13,1645108654.984375,P12,D01,0,0,0
2116,-0.26,1645108655.0,P12,D01,0,0,0
2117,-0.52,1645108655.015625,P12,D01,0,0,0
2118,-0.67,1645108655.03125,P12,D01,0,0,0
2119,-0.73,1645108655.046875,P12,D01,0,0,0
2120,-0.7,1645108655.0625,P12,D01,0,0,0
2121,-0.57,1645108655.078125,P12,D01,0,0,0
2122,-0.31,1645108655.09375,P12,D01,0,0,0
2123,0.02,1645108655.109375,P12,D01,0,0,0
2124,0.35,1645108655.125,P12,D01,0,0,0
2125,0.57,1645108655.140625,P12,D01,0,0,0
2126,0.62,1645108655.15625,P12,D01,0,0,0
2127,0.53,1645108655.171875,P12,D01,0,0,0
2128,0.36,1645108655.1875,P12,D01,0,0,0
2129,0.19,1645108655.203125,P12,D01,0,0,0
2130,0.07,1645108655.21875,P12,D01,0,0,0
2131,-0.02,1645108655.234375,P12,D01,0,0,0
2132,-0.11,1645108655.25,P12,D01,0,0,0
2133,-0.19,1645108655.265625,P12,D01,0,0,0
2134,-0.21,1645108655.28125,P12,D01,0,0,0
2135,-0.13,1645108655.296875,P12,D01,0,0,0
2136,0.05,1645108655.3125,P12,D01,0,0,0
2137,0.27,1645108655.328125,P12,D01,0,0,0
2138,0.43,1645108655.34375,P12,D01,0,0,0
2139,0.44,1645108655.359375,P12,D01,0,0,0
2140,0.26,1645108655.375,P12,D01,0,0,0
2141,-0.05,1645108655.390625,P12,D01,0,0,0
2142,-0.4,1645108655.40625,P12,D01,0,0,0
2143,-0.72,1645108655.421875,P12,D01,0,0,0
2144,-0.92,1645108655.4375,P12,D01,0,0,0
2145,-0.99,1645108655.453125,P12,D01,0,0,0
2146,-0.93,1645108655.46875,P12,D01,0,0,0
2147,-0.76,1645108655.484375,P12,D01,0,0,0
2148,-0.53,1645108655.5,P12,D01,0,0,0
2149,-0.31,1645108655.515625,P12,D01,0,0,0
2150,-0.16,1645108655.53125,P12,D01,0,0,0
2151,-0.13,1645108655.546875,P12,D01,0,0,0
2152,-0.22,1645108655.5625,P12,D01,0,0,0
2153,-0.34,1645108655.578125,P12,D01,0,0,0
2154,-0.41,1645108655.59375,P12,D01,0,0,0
2155,-0.35,1645108655.609375,P12,D01,0,0,0
2156,-0.15,1645108655.625,P12,D01,0,0,0
2157,0.12,1645108655.640625,P12,D01,0,0,0
2158,0.35,1645108655.65625,P12,D01,0,0,0
2159,0.44,1645108655.671875,P12,D01,0,0,0
2160,0.34,1645108655.6875,P12,D01,0,0,0
2161,0.1,1645108655.703125,P12,D01,0,0,0
2162,-0.19,1645108655.71875,P12,D01,0,0,0
2163,-0.43,1645108655.734375,P12,D01,0,0,0
2164,-0.59,1645108655.75,P12,D01,0,0,0
2165,-0.65,1645108655.765625,P12,D01,0,0,0
2166,-0.65,1645108655.78125,P12,D01,0,0,0
2167,-0.6,1645108655.796875,P12,D01,0,0,0
2168,-0.48,1645108655.8125,P12,D01,0,0,0
2169,-0.26,1645108655.828125,P12,D01,0,0,0
2170,0.03,1645108655.84375,P12,D01,0,0,0
2171,0.33,1645108655.859375,P12,D01,0,0,0
2172,0.49,1645108655.875,P12,D01,0,0,0
2173,0.45,1645108655.890625,P12,D01,0,0,0
2174,0.19,1645108655.90625,P12,D01,0,0,0
2175,-0.16,1645108655.921875,P12,D01,0,0,0
2176,-0.45,1645108655.9375,P12,D01,0,0,0
2177,-0.57,1645108655.953125,P12,D01,0,0,0
2178,-0.52,1645108655.96875,P12,D01,0,0,0
2179,-0.34,1645108655.984375,P12,D01,0,0,0
2180,-0.14,1645108656.0,P12,D01,0,0,0
2181,0.06,1645108656.015625,P12,D01,0,0,0
2182,0.24,1645108656.03125,P12,D01,0,0,0
2183,0.44,1645108656.046875,P12,D01,0,0,0
2184,0.65,1645108656.0625,P12,D01,0,0,0
2185,0.8,1645108656.078125,P12,D01,0,0,0
2186,0.83,1645108656.09375,P12,D01,0,0,0
2187,0.69,1645108656.109375,P12,D01,0,0,0
2188,0.44,1645108656.125,P12,D01,0,0,0
2189,0.17,1645108656.140625,P12,D01,0,0,0
2190,-0.02,1645108656.15625,P12,D01,0,0,0
2191,-0.05,1645108656.171875,P12,D01,0,0,0
2192,0.05,1645108656.1875,P12,D01,0,0,0
2193,0.2,1645108656.203125,P12,D01,0,0,0
2194,0.32,1645108656.21875,P12,D01,0,0,0
2195,0.35,1645108656.234375,P12,D01,0,0,0
2196,0.27,1645108656.25,P12,D01,0,0,0
2197,0.12,1645108656.265625,P12,D01,0,0,0
2198,-0.05,1645108656.28125,P12,D01,0,0,0
2199,-0.2,1645108656.296875,P12,D01,0,0,0
2200,-0.3,1645108656.3125,P12,D01,0,0,0
2201,-0.38,1645108656.328125,P12,D01,0,0,0
2202,-0.42,1645108656.34375,P12,D01,0,0,0
2203,-0.39,1645108656.359375,P12,D01,0,0,0
2204,-0.29,1645108656.375,P12,D01,0,0,0
2205,-0.08,1645108656.390625,P12,D01,0,0,0
2206,0.18,1645108656.40625,P12,D01,0,0,0
2207,0.39,1645108656.421875,P12,D01,0,0,0
2208,0.46,1645108656.4375,P12,D01,0,0,0
2209,0.32,1645108656.453125,P12,D01,0,0,0
2210,0.01,1645108656.46875,P12,D01,0,0,0
2211,-0.36,1645108656.484375,P12,D01,0,0,0
2212,-0.66,1645108656.5,P12,D01,0,0,0
2213,-0.78,1645108656.515625,P12,D01,0,0,0
2214,-0.72,1645108656.53125,P12,D01,0,0,0
2215,-0.56,1645108656.546875,P12,D01,0,0,0
2216,-0.4,1645108656.5625,P12,D01,0,0,0
2217,-0.33,1645108656.578125,P12,D01,0,0,0
2218,-0.31,1645108656.59375,P12,D01,0,0,0
2219,-0.29,1645108656.609375,P12,D01,0,0,0
2220,-0.21,1645108656.625,P12,D01,0,0,0
2221,-0.03,1645108656.640625,P12,D01,0,0,0
2222,0.23,1645108656.65625,P12,D01,0,0,0
2223,0.48,1645108656.671875,P12,D01,0,0,0
2224,0.67,1645108656.6875,P12,D01,0,0,0
2225,0.75,1645108656.703125,P12,D01,0,0,0
2226,0.74,1645108656.71875,P12,D01,0,0,0
2227,0.68,1645108656.734375,P12,D01,0,0,0
2228,0.63,1645108656.75,P12,D01,0,0,0
2229,0.62,1645108656.765625,P12,D01,0,0,0
2230,0.66,1645108656.78125,P12,D01,0,0,0
2231,0.77,1645108656.796875,P12,D01,0,0,0
2232,0.94,1645108656.8125,P12,D01,0,0,0
2233,1.17,1645108656.828125,P12,D01,0,0,0
2234,1.44,1645108656.84375,P12,D01,0,0,0
2235,1.66,1645108656.859375,P12,D01,0,0,0
2236,1.72,1645108656.875,P12,D01,0,0,0
2237,1.52,1645108656.890625,P12,D01,0,0,0
2238,1.05,1645108656.90625,P12,D01,0,0,0
2239,0.38,1645108656.921875,P12,D01,0,0,0
2240,-0.34,1645108656.9375,P12,D01,0,0,0
2241,-0.92,1645108656.953125,P12,D01,0,0,0
2242,-1.26,1645108656.96875,P12,D01,0,0,0
2243,-1.31,1645108656.984375,P12,D01,0,0,0
2244,-1.14,1645108657.0,P12,D01,0,0,0
2245,-0.82,1645108657.015625,P12,D01,0,0,0
2246,-0.47,1645108657.03125,P12,D01,0,0,0
2247,-0.14,1645108657.046875,P12,D01,0,0,0
2248,0.07,1645108657.0625,P12,D01,0,0,0
2249,0.09,1645108657.078125,P12,D01,0,0,0
2250,-0.08,1645108657.09375,P12,D01,0,0,0
2251,-0.39,1645108657.109375,P12,D01,0,0,0
2252,-0.68,1645108657.125,P12,D01,0,0,0
2253,-0.79,1645108657.140625,P12,D01,0,0,0
2254,-0.58,1645108657.15625,P12,D01,0,0,0
2255,-0.07,1645108657.171875,P12,D01,0,0,0
2256,0.55,1645108657.1875,P12,D01,0,0,0
2257,1.03,1645108657.203125,P12,D01,0,0,0
2258,1.16,1645108657.21875,P12,D01,0,0,0
2259,0.89,1645108657.234375,P12,D01,0,0,0
2260,0.34,1645108657.25,P12,D01,0,0,0
2261,-0.24,1645108657.265625,P12,D01,0,0,0
2262,-0.6,1645108657.28125,P12,D01,0,0,0
2263,-0.62,1645108657.296875,P12,D01,0,0,0
2264,-0.36,1645108657.3125,P12,D01,0,0,0
2265,-0.0,1645108657.328125,P12,D01,0,0,0
2266,0.26,1645108657.34375,P12,D01,0,0,0
2267,0.3,1645108657.359375,P12,D01,0,0,0
2268,0.15,1645108657.375,P12,D01,0,0,0
2269,-0.08,1645108657.390625,P12,D01,0,0,0
2270,-0.26,1645108657.40625,P12,D01,0,0,0
2271,-0.36,1645108657.421875,P12,D01,0,0,0
2272,-0.4,1645108657.4375,P12,D01,0,0,0
2273,-0.45,1645108657.453125,P12,D01,0,0,0
2274,-0.54,1645108657.46875,P12,D01,0,0,0
2275,-0.63,1645108657.484375,P12,D01,0,0,0
2276,-0.66,1645108657.5,P12,D01,0,0,0
2277,-0.55,1645108657.515625,P12,D01,0,0,0
2278,-0.3,1645108657.53125,P12,D01,0,0,0
2279,-0.01,1645108657.546875,P12,D01,0,0,0
2280,0.22,1645108657.5625,P12,D01,0,0,0
2281,0.32,1645108657.578125,P12,D01,0,0,0
2282,0.29,1645108657.59375,P12,D01,0,0,0
2283,0.22,1645108657.609375,P12,D01,0,0,0
2284,0.16,1645108657.625,P12,D01,0,0,0
2285,0.14,1645108657.640625,P12,D01,0,0,0
2286,0.15,1645108657.65625,P12,D01,0,0,0
2287,0.12,1645108657.671875,P12,D01,0,0,0
2288,0.02,1645108657.6875,P12,D01,0,0,0
2289,-0.12,1645108657.703125,P12,D01,0,0,0
2290,-0.25,1645108657.71875,P12,D01,0,0,0
2291,-0.33,1645108657.734375,P12,D01,0,0,0
2292,-0.33,1645108657.75,P12,D01,0,0,0
2293,-0.27,1645108657.765625,P12,D01,0,0,0
2294,-0.15,1645108657.78125,P12,D01,0,0,0
2295,0.02,1645108657.796875,P12,D01,0,0,0
2296,0.2,1645108657.8125,P12,D01,0,0,0
2297,0.36,1645108657.828125,P12,D01,0,0,0
2298,0.43,1645108657.84375,P12,D01,0,0,0
2299,0.35,1645108657.859375,P12,D01,0,0,0
2300,0.13,1645108657.875,P12,D01,0,0,0
2301,-0.19,1645108657.890625,P12,D01,0,0,0
2302,-0.52,1645108657.90625,P12,D01,0,0,0
2303,-0.77,1645108657.921875,P12,D01,0,0,0
2304,-0.89,1645108657.9375,P12,D01,0,0,0
2305,-0.87,1645108657.953125,P12,D01,0,0,0
2306,-0.7,1645108657.96875,P12,D01,0,0,0
2307,-0.38,1645108657.984375,P12,D01,0,0,0
2308,0.07,1645108658.0,P12,D01,0,0,0
2309,0.57,1645108658.015625,P12,D01,0,0,0
2310,1.0,1645108658.03125,P12,D01,0,0,0
2311,1.23,1645108658.046875,P12,D01,0,0,0
2312,1.17,1645108658.0625,P12,D01,0,0,0
2313,0.86,1645108658.078125,P12,D01,0,0,0
2314,0.43,1645108658.09375,P12,D01,0,0,0
2315,0.05,1645108658.109375,P12,D01,0,0,0
2316,-0.17,1645108658.125,P12,D01,0,0,0
2317,-0.23,1645108658.140625,P12,D01,0,0,0
2318,-0.18,1645108658.15625,P12,D01,0,0,0
2319,-0.11,1645108658.171875,P12,D01,0,0,0
2320,-0.04,1645108658.1875,P12,D01,0,0,0
2321,0.03,1645108658.203125,P12,D01,0,0,0
2322,0.13,1645108658.21875,P12,D01,0,0,0
2323,0.23,1645108658.234375,P12,D01,0,0,0
2324,0.3,1645108658.25,P12,D01,0,0,0
2325,0.28,1645108658.265625,P12,D01,0,0,0
2326,0.16,1645108658.28125,P12,D01,0,0,0
2327,0.02,1645108658.296875,P12,D01,0,0,0
2328,-0.05,1645108658.3125,P12,D01,0,0,0
2329,0.03,1645108658.328125,P12,D01,0,0,0
2330,0.22,1645108658.34375,P12,D01,0,0,0
2331,0.45,1645108658.359375,P12,D01,0,0,0
2332,0.57,1645108658.375,P12,D01,0,0,0
2333,0.52,1645108658.390625,P12,D01,0,0,0
2334,0.33,1645108658.40625,P12,D01,0,0,0
2335,0.07,1645108658.421875,P12,D01,0,0,0
2336,-0.16,1645108658.4375,P12,D01,0,0,0
2337,-0.32,1645108658.453125,P12,D01,0,0,0
2338,-0.42,1645108658.46875,P12,D01,0,0,0
2339,-0.51,1645108658.484375,P12,D01,0,0,0
2340,-0.65,1645108658.5,P12,D01,0,0,0
2341,-0.82,1645108658.515625,P12,D01,0,0,0
2342,-0.97,1645108658.53125,P12,D01,0,0,0
2343,-1.05,1645108658.546875,P12,D01,0,0,0
2344,-1.02,1645108658.5625,P12,D01,0,0,0
2345,-0.93,1645108658.578125,P12,D01,0,0,0
2346,-0.81,1645108658.59375,P12,D01,0,0,0
2347,-0.68,1645108658.609375,P12,D01,0,0,0
2348,-0.57,1645108658.625,P12,D01,0,0,0
2349,-0.45,1645108658.640625,P12,D01,0,0,0
2350,-0.33,1645108658.65625,P12,D01,0,0,0
2351,-0.24,1645108658.671875,P12,D01,0,0,0
2352,-0.22,1645108658.6875,P12,D01,0,0,0
2353,-0.25,1645108658.703125,P12,D01,0,0,0
2354,-0.29,1645108658.71875,P12,D01,0,0,0
2355,-0.29,1645108658.734375,P12,D01,0,0,0
2356,-0.19,1645108658.75,P12,D01,0,0,0
2357,-0.01,1645108658.765625,P12,D01,0,0,0
2358,0.17,1645108658.78125,P12,D01,0,0,0
2359,0.28,1645108658.796875,P12,D01,0,0,0
2360,0.27,1645108658.8125,P12,D01,0,0,0
2361,0.16,1645108658.828125,P12,D01,0,0,0
2362,0.02,1645108658.84375,P12,D01,0,0,0
2363,-0.08,1645108658.859375,P12,D01,0,0,0
2364,-0.08,1645108658.875,P12,D01,0,0,0
2365,-0.0,1645108658.890625,P12,D01,0,0,0
2366,0.12,1645108658.90625,P12,D01,0,0,0
2367,0.23,1645108658.921875,P12,D01,0,0,0
2368,0.33,1645108658.9375,P12,D01,0,0,0
2369,0.41,1645108658.953125,P12,D01,0,0,0
2370,0.5,1645108658.96875,P12,D01,0,0,0
2371,0.63,1645108658.984375,P12,D01,0,0,0
2372,0.76,1645108659.0,P12,D01,0,0,0
2373,0.89,1645108659.015625,P12,D01,0,0,0
2374,1.0,1645108659.03125,P12,D01,0,0,0
2375,1.11,1645108659.046875,P12,D01,0,0,0
2376,1.22,1645108659.0625,P12,D01,0,0,0
2377,1.32,1645108659.078125,P12,D01,0,0,0
2378,1.34,1645108659.09375,P12,D01,0,0,0
2379,1.19,1645108659.109375,P12,D01,0,0,0
2380,0.81,1645108659.125,P12,D01,0,0,0
2381,0.23,1645108659.140625,P12,D01,0,0,0
2382,-0.42,1645108659.15625,P12,D01,0,0,0
2383,-0.96,1645108659.171875,P12,D01,0,0,0
2384,-1.24,1645108659.1875,P12,D01,0,0,0
2385,-1.21,1645108659.203125,P12,D01,0,0,0
2386,-0.93,1645108659.21875,P12,D01,0,0,0
2387,-0.53,1645108659.234375,P12,D01,0,0,0
2388,-0.13,1645108659.25,P12,D01,0,0,0
2389,0.14,1645108659.265625,P12,D01,0,0,0
2390,0.25,1645108659.28125,P12,D01,0,0,0
2391,0.19,1645108659.296875,P12,D01,0,0,0
2392,-0.02,1645108659.3125,P12,D01,0,0,0
2393,-0.31,1645108659.328125,P12,D01,0,0,0
2394,-0.6,1645108659.34375,P12,D01,0,0,0
2395,-0.82,1645108659.359375,P12,D01,0,0,0
2396,-0.95,1645108659.375,P12,D01,0,0,0
2397,-0.98,1645108659.390625,P12,D01,0,0,0
2398,-0.97,1645108659.40625,P12,D01,0,0,0
2399,-0.92,1645108659.421875,P12,D01,0,0,0
2400,-0.83,1645108659.4375,P12,D01,0,0,0
2401,-0.66,1645108659.453125,P12,D01,0,0,0
2402,-0.37,1645108659.46875,P12,D01,0,0,0
2403,0.0,1645108659.484375,P12,D01,0,0,0
2404,0.35,1645108659.5,P12,D01,0,0,0
2405,0.55,1645108659.515625,P12,D01,0,0,0
2406,0.52,1645108659.53125,P12,D01,0,0,0
2407,0.27,1645108659.546875,P12,D01,0,0,0
2408,-0.08,1645108659.5625,P12,D01,0,0,0
2409,-0.33,1645108659.578125,P12,D01,0,0,0
2410,-0.37,1645108659.59375,P12,D01,0,0,0
2411,-0.18,1645108659.609375,P12,D01,0,0,0
2412,0.12,1645108659.625,P12,D01,0,0,0
2413,0.34,1645108659.640625,P12,D01,0,0,0
2414,0.39,1645108659.65625,P12,D01,0,0,0
2415,0.28,1645108659.671875,P12,D01,0,0,0
2416,0.11,1645108659.6875,P12,D01,0,0,0
2417,0.04,1645108659.703125,P12,D01,0,0,0
2418,0.09,1645108659.71875,P12,D01,0,0,0
2419,0.22,1645108659.734375,P12,D01,0,0,0
2420,0.29,1645108659.75,P12,D01,0,0,0
2421,0.22,1645108659.765625,P12,D01,0,0,0
2422,0.04,1645108659.78125,P12,D01,0,0,0
2423,-0.12,1645108659.796875,P12,D01,0,0,0
2424,-0.14,1645108659.8125,P12,D01,0,0,0
2425,0.04,1645108659.828125,P12,D01,0,0,0
2426,0.36,1645108659.84375,P12,D01,0,0,0
2427,0.66,1645108659.859375,P12,D01,0,0,0
2428,0.84,1645108659.875,P12,D01,0,0,0
2429,0.89,1645108659.890625,P12,D01,0,0,0
2430,0.87,1645108659.90625,P12,D01,0,0,0
2431,0.86,1645108659.921875,P12,D01,0,0,0
2432,0.87,1645108659.9375,P12,D01,0,0,0
2433,0.85,1645108659.953125,P12,D01,0,0,0
2434,0.72,1645108659.96875,P12,D01,0,0,0
2435,0.45,1645108659.984375,P12,D01,0,0,0
2436,0.1,1645108660.0,P12,D01,0,0,0
2437,-0.22,1645108660.015625,P12,D01,0,0,0
2438,-0.37,1645108660.03125,P12,D01,0,0,0
2439,-0.3,1645108660.046875,P12,D01,0,0,0
2440,-0.07,1645108660.0625,P12,D01,0,0,0
2441,0.22,1645108660.078125,P12,D01,0,0,0
2442,0.43,1645108660.09375,P12,D01,0,0,0
2443,0.51,1645108660.109375,P12,D01,0,0,0
2444,0.47,1645108660.125,P12,D01,0,0,0
2445,0.36,1645108660.140625,P12,D01,0,0,0
2446,0.24,1645108660.15625,P12,D01,0,0,0
2447,0.16,1645108660.171875,P12,D01,0,0,0
2448,0.13,1645108660.1875,P12,D01,0,0,0
2449,0.14,1645108660.203125,P12,D01,0,0,0
2450,0.16,1645108660.21875,P12,D01,0,0,0
2451,0.18,1645108660.234375,P12,D01,0,0,0
2452,0.18,1645108660.25,P12,D01,0,0,0
2453,0.15,1645108660.265625,P12,D01,0,0,0
2454,0.07,1645108660.28125,P12,D01,0,0,0
2455,-0.01,1645108660.296875,P12,D01,0,0,0
2456,-0.05,1645108660.3125,P12,D01,0,0,0
2457,-0.03,1645108660.328125,P12,D01,0,0,0
2458,0.06,1645108660.34375,P12,D01,0,0,0
2459,0.18,1645108660.359375,P12,D01,0,0,0
2460,0.27,1645108660.375,P12,D01,0,0,0
2461,0.28,1645108660.390625,P12,D01,0,0,0
2462,0.2,1645108660.40625,P12,D01,0,0,0
2463,0.05,1645108660.421875,P12,D01,0,0,0
2464,-0.14,1645108660.4375,P12,D01,0,0,0
2465,-0.34,1645108660.453125,P12,D01,0,0,0
2466,-0.51,1645108660.46875,P12,D01,0,0,0
2467,-0.62,1645108660.484375,P12,D01,0,0,0
2468,-0.63,1645108660.5,P12,D01,0,0,0
2469,-0.51,1645108660.515625,P12,D01,0,0,0
2470,-0.25,1645108660.53125,P12,D01,0,0,0
2471,0.07,1645108660.546875,P12,D01,0,0,0
2472,0.37,1645108660.5625,P12,D01,0,0,0
2473,0.5,1645108660.578125,P12,D01,0,0,0
2474,0.4,1645108660.59375,P12,D01,0,0,0
2475,0.06,1645108660.609375,P12,D01,0,0,0
2476,-0.39,1645108660.625,P12,D01,0,0,0
2477,-0.78,1645108660.640625,P12,D01,0,0,0
2478,-0.98,1645108660.65625,P12,D01,0,0,0
2479,-0.94,1645108660.671875,P12,D01,0,0,0
2480,-0.72,1645108660.6875,P12,D01,0,0,0
2481,-0.44,1645108660.703125,P12,D01,0,0,0
2482,-0.23,1645108660.71875,P12,D01,0,0,0
2483,-0.14,1645108660.734375,P12,D01,0,0,0
2484,-0.16,1645108660.75,P12,D01,0,0,0
2485,-0.24,1645108660.765625,P12,D01,0,0,0
2486,-0.34,1645108660.78125,P12,D01,0,0,0
2487,-0.44,1645108660.796875,P12,D01,0,0,0
2488,-0.54,1645108660.8125,P12,D01,0,0,0
2489,-0.65,1645108660.828125,P12,D01,0,0,0
2490,-0.74,1645108660.84375,P12,D01,0,0,0
2491,-0.77,1645108660.859375,P12,D01,0,0,0
2492,-0.7,1645108660.875,P12,D01,0,0,0
2493,-0.52,1645108660.890625,P12,D01,0,0,0
2494,-0.24,1645108660.90625,P12,D01,0,0,0
2495,0.09,1645108660.921875,P12,D01,0,0,0
2496,0.4,1645108660.9375,P12,D01,0,0,0
2497,0.65,1645108660.953125,P12,D01,0,0,0
2498,0.78,1645108660.96875,P12,D01,0,0,0
2499,0.77,1645108660.984375,P12,D01,0,0,0
2500,0.65,1645108661.0,P12,D01,0,0,0
2501,0.47,1645108661.015625,P12,D01,0,0,0
2502,0.3,1645108661.03125,P12,D01,0,0,0
2503,0.17,1645108661.046875,P12,D01,0,0,0
2504,0.12,1645108661.0625,P12,D01,0,0,0
2505,0.11,1645108661.078125,P12,D01,0,0,0
2506,0.13,1645108661.09375,P12,D01,0,0,0
2507,0.19,1645108661.109375,P12,D01,0,0,0
2508,0.3,1645108661.125,P12,D01,0,0,0
2509,0.47,1645108661.140625,P12,D01,0,0,0
2510,0.67,1645108661.15625,P12,D01,0,0,0
2511,0.88,1645108661.171875,P12,D01,0,0,0
2512,1.06,1645108661.1875,P12,D01,0,0,0
2513,1.17,1645108661.203125,P12,D01,0,0,0
2514,1.18,1645108661.21875,P12,D01,0,0,0
2515,1.11,1645108661.234375,P12,D01,0,0,0
2516,0.96,1645108661.25,P12,D01,0,0,0
2517,0.73,1645108661.265625,P12,D01,0,0,0
2518,0.45,1645108661.28125,P12,D01,0,0,0
2519,0.13,1645108661.296875,P12,D01,0,0,0
2520,-0.17,1645108661.3125,P12,D01,0,0,0
2521,-0.4,1645108661.328125,P12,D01,0,0,0
2522,-0.52,1645108661.34375,P12,D01,0,0,0
2523,-0.54,1645108661.359375,P12,D01,0,0,0
2524,-0.46,1645108661.375,P12,D01,0,0,0
2525,-0.32,1645108661.390625,P12,D01,0,0,0
2526,-0.2,1645108661.40625,P12,D01,0,0,0
2527,-0.14,1645108661.421875,P12,D01,0,0,0
2528,-0.15,1645108661.4375,P12,D01,0,0,0
2529,-0.23,1645108661.453125,P12,D01,0,0,0
2530,-0.32,1645108661.46875,P12,D01,0,0,0
2531,-0.38,1645108661.484375,P12,D01,0,0,0
2532,-0.4,1645108661.5,P12,D01,0,0,0
2533,-0.42,1645108661.515625,P12,D01,0,0,0
2534,-0.48,1645108661.53125,P12,D01,0,0,0
2535,-0.61,1645108661.546875,P12,D01,0,0,0
2536,-0.74,1645108661.5625,P12,D01,0,0,0
2537,-0.79,1645108661.578125,P12,D01,0,0,0
2538,-0.67,1645108661.59375,P12,D01,0,0,0
2539,-0.38,1645108661.609375,P12,D01,0,0,0
2540,0.01,1645108661.625,P12,D01,0,0,0
2541,0.33,1645108661.640625,P12,D01,0,0,0
2542,0.44,1645108661.65625,P12,D01,0,0,0
2543,0.29,1645108661.671875,P12,D01,0,0,0
2544,-0.04,1645108661.6875,P12,D01,0,0,0
2545,-0.41,1645108661.703125,P12,D01,0,0,0
2546,-0.66,1645108661.71875,P12,D01,0,0,0
2547,-0.71,1645108661.734375,P12,D01,0,0,0
2548,-0.57,1645108661.75,P12,D01,0,0,0
2549,-0.33,1645108661.765625,P12,D01,0,0,0
2550,-0.11,1645108661.78125,P12,D01,0,0,0
2551,-0.0,1645108661.796875,P12,D01,0,0,0
2552,-0.01,1645108661.8125,P12,D01,0,0,0
2553,-0.1,1645108661.828125,P12,D01,0,0,0
2554,-0.2,1645108661.84375,P12,D01,0,0,0
2555,-0.26,1645108661.859375,P12,D01,0,0,0
2556,-0.25,1645108661.875,P12,D01,0,0,0
2557,-0.18,1645108661.890625,P12,D01,0,0,0
2558,-0.09,1645108661.90625,P12,D01,0,0,0
2559,0.01,1645108661.921875,P12,D01,0,0,0
2560,0.14,1645108661.9375,P12,D01,0,0,0
2561,0.28,1645108661.953125,P12,D01,0,0,0
2562,0.39,1645108661.96875,P12,D01,0,0,0
2563,0.45,1645108661.984375,P12,D01,0,0,0
2564,0.41,1645108662.0,P12,D01,0,0,0
2565,0.28,1645108662.015625,P12,D01,0,0,0
2566,0.13,1645108662.03125,P12,D01,0,0,0
2567,0.01,1645108662.046875,P12,D01,0,0,0
2568,-0.02,1645108662.0625,P12,D01,0,0,0
2569,0.04,1645108662.078125,P12,D01,0,0,0
2570,0.15,1645108662.09375,P12,D01,0,0,0
2571,0.29,1645108662.109375,P12,D01,0,0,0
2572,0.45,1645108662.125,P12,D01,0,0,0
2573,0.64,1645108662.140625,P12,D01,0,0,0
2574,0.8,1645108662.15625,P12,D01,0,0,0
2575,0.89,1645108662.171875,P12,D01,0,0,0
2576,0.78,1645108662.1875,P12,D01,0,0,0
2577,0.44,1645108662.203125,P12,D01,0,0,0
2578,-0.07,1645108662.21875,P12,D01,0,0,0
2579,-0.61,1645108662.234375,P12,D01,0,0,0
2580,-0.98,1645108662.25,P12,D01,0,0,0
2581,-1.06,1645108662.265625,P12,D01,0,0,0
2582,-0.81,1645108662.28125,P12,D01,0,0,0
2583,-0.35,1645108662.296875,P12,D01,0,0,0
2584,0.16,1645108662.3125,P12,D01,0,0,0
2585,0.56,1645108662.328125,P12,D01,0,0,0
2586,0.76,1645108662.34375,P12,D01,0,0,0
2587,0.77,1645108662.359375,P12,D01,0,0,0
2588,0.66,1645108662.375,P12,D01,0,0,0
2589,0.5,1645108662.390625,P12,D01,0,0,0
2590,0.34,1645108662.40625,P12,D01,0,0,0
2591,0.17,1645108662.421875,P12,D01,0,0,0
2592,-0.03,1645108662.4375,P12,D01,0,0,0
2593,-0.28,1645108662.453125,P12,D01,0,0,0
2594,-0.56,1645108662.46875,P12,D01,0,0,0
2595,-0.8,1645108662.484375,P12,D01,0,0,0
2596,-0.95,1645108662.5,P12,D01,0,0,0
2597,-1.0,1645108662.515625,P12,D01,0,0,0
2598,-0.98,1645108662.53125,P12,D01,0,0,0
2599,-0.93,1645108662.546875,P12,D01,0,0,0
2600,-0.89,1645108662.5625,P12,D01,0,0,0
2601,-0.85,1645108662.578125,P12,D01,0,0,0
2602,-0.74,1645108662.59375,P12,D01,0,0,0
2603,-0.54,1645108662.609375,P12,D01,0,0,0
2604,-0.24,1645108662.625,P12,D01,0,0,0
2605,0.03,1645108662.640625,P12,D01,0,0,0
2606,0.16,1645108662.65625,P12,D01,0,0,0
2607,0.07,1645108662.671875,P12,D01,0,0,0
2608,-0.23,1645108662.6875,P12,D01,0,0,0
2609,-0.6,1645108662.703125,P12,D01,0,0,0
2610,-0.88,1645108662.71875,P12,D01,0,0,0
2611,-0.98,1645108662.734375,P12,D01,0,0,0
2612,-0.88,1645108662.75,P12,D01,0,0,0
2613,-0.68,1645108662.765625,P12,D01,0,0,0
2614,-0.46,1645108662.78125,P12,D01,0,0,0
2615,-0.27,1645108662.796875,P12,D01,0,0,0
2616,-0.09,1645108662.8125,P12,D01,0,0,0
2617,0.13,1645108662.828125,P12,D01,0,0,0
2618,0.42,1645108662.84375,P12,D01,0,0,0
2619,0.72,1645108662.859375,P12,D01,0,0,0
2620,0.96,1645108662.875,P12,D01,0,0,0
2621,1.03,1645108662.890625,P12,D01,0,0,0
2622,0.9,1645108662.90625,P12,D01,0,0,0
2623,0.58,1645108662.921875,P12,D01,0,0,0
2624,0.2,1645108662.9375,P12,D01,0,0,0
2625,-0.1,1645108662.953125,P12,D01,0,0,0
2626,-0.19,1645108662.96875,P12,D01,0,0,0
2627,-0.04,1645108662.984375,P12,D01,0,0,0
2628,0.26,1645108663.0,P12,D01,0,0,0
2629,0.58,1645108663.015625,P12,D01,0,0,0
2630,0.79,1645108663.03125,P12,D01,0,0,0
2631,0.81,1645108663.046875,P12,D01,0,0,0
2632,0.69,1645108663.0625,P12,D01,0,0,0
2633,0.53,1645108663.078125,P12,D01,0,0,0
2634,0.44,1645108663.09375,P12,D01,0,0,0
2635,0.45,1645108663.109375,P12,D01,0,0,0
2636,0.51,1645108663.125,P12,D01,0,0,0
2637,0.51,1645108663.140625,P12,D01,0,0,0
2638,0.37,1645108663.15625,P12,D01,0,0,0
2639,0.09,1645108663.171875,P12,D01,0,0,0
2640,-0.23,1645108663.1875,P12,D01,0,0,0
2641,-0.47,1645108663.203125,P12,D01,0,0,0
2642,-0.52,1645108663.21875,P12,D01,0,0,0
2643,-0.37,1645108663.234375,P12,D01,0,0,0
2644,-0.11,1645108663.25,P12,D01,0,0,0
2645,0.1,1645108663.265625,P12,D01,0,0,0
2646,0.16,1645108663.28125,P12,D01,0,0,0
2647,0.03,1645108663.296875,P12,D01,0,0,0
2648,-0.16,1645108663.3125,P12,D01,0,0,0
2649,-0.27,1645108663.328125,P12,D01,0,0,0
2650,-0.15,1645108663.34375,P12,D01,0,0,0
2651,0.2,1645108663.359375,P12,D01,0,0,0
2652,0.67,1645108663.375,P12,D01,0,0,0
2653,1.05,1645108663.390625,P12,D01,0,0,0
2654,1.19,1645108663.40625,P12,D01,0,0,0
2655,1.04,1645108663.421875,P12,D01,0,0,0
2656,0.69,1645108663.4375,P12,D01,0,0,0
2657,0.28,1645108663.453125,P12,D01,0,0,0
2658,-0.06,1645108663.46875,P12,D01,0,0,0
2659,-0.34,1645108663.484375,P12,D01,0,0,0
2660,-0.59,1645108663.5,P12,D01,0,0,0
2661,-0.88,1645108663.515625,P12,D01,0,0,0
2662,-1.2,1645108663.53125,P12,D01,0,0,0
2663,-1.46,1645108663.546875,P12,D01,0,0,0
2664,-1.56,1645108663.5625,P12,D01,0,0,0
2665,-1.45,1645108663.578125,P12,D01,0,0,0
2666,-1.15,1645108663.59375,P12,D01,0,0,0
2667,-0.77,1645108663.609375,P12,D01,0,0,0
2668,-0.41,1645108663.625,P12,D01,0,0,0
2669,-0.17,1645108663.640625,P12,D01,0,0,0
2670,-0.07,1645108663.65625,P12,D01,0,0,0
2671,-0.09,1645108663.671875,P12,D01,0,0,0
2672,-0.19,1645108663.6875,P12,D01,0,0,0
2673,-0.27,1645108663.703125,P12,D01,0,0,0
2674,-0.28,1645108663.71875,P12,D01,0,0,0
2675,-0.19,1645108663.734375,P12,D01,0,0,0
2676,-0.01,1645108663.75,P12,D01,0,0,0
2677,0.2,1645108663.765625,P12,D01,0,0,0
2678,0.37,1645108663.78125,P12,D01,0,0,0
2679,0.48,1645108663.796875,P12,D01,0,0,0
2680,0.55,1645108663.8125,P12,D01,0,0,0
2681,0.63,1645108663.828125,P12,D01,0,0,0
2682,0.76,1645108663.84375,P12,D01,0,0,0
2683,0.89,1645108663.859375,P12,D01,0,0,0
2684,0.94,1645108663.875,P12,D01,0,0,0
2685,0.81,1645108663.890625,P12,D01,0,0,0
2686,0.51,1645108663.90625,P12,D01,0,0,0
2687,0.1,1645108663.921875,P12,D01,0,0,0
2688,-0.26,1645108663.9375,P12,D01,0,0,0
2689,-0.45,1645108663.953125,P12,D01,0,0,0
2690,-0.41,1645108663.96875,P12,D01,0,0,0
2691,-0.17,1645108663.984375,P12,D01,0,0,0
2692,0.18,1645108664.0,P12,D01,0,0,0
2693,0.52,1645108664.015625,P12,D01,0,0,0
2694,0.78,1645108664.03125,P12,D01,0,0,0
2695,0.93,1645108664.046875,P12,D01,0,0,0
2696,0.97,1645108664.0625,P12,D01,0,0,0
2697,0.92,1645108664.078125,P12,D01,0,0,0
2698,0.79,1645108664.09375,P12,D01,0,0,0
2699,0.59,1645108664.109375,P12,D01,0,0,0
2700,0.34,1645108664.125,P12,D01,0,0,0
2701,0.07,1645108664.140625,P12,D01,0,0,0
2702,-0.12,1645108664.15625,P12,D01,0,0,0
2703,-0.19,1645108664.171875,P12,D01,0,0,0
2704,-0.1,1645108664.1875,P12,D01,0,0,0
2705,0.16,1645108664.203125,P12,D01,0,0,0
2706,0.51,1645108664.21875,P12,D01,0,0,0
2707,0.84,1645108664.234375,P12,D01,0,0,0
2708,1.03,1645108664.25,P12,D01,0,0,0
2709,1.03,1645108664.265625,P12,D01,0,0,0
2710,0.82,1645108664.28125,P12,D01,0,0,0
2711,0.46,1645108664.296875,P12,D01,0,0,0
2712,0.04,1645108664.3125,P12,D01,0,0,0
2713,-0.36,1645108664.328125,P12,D01,0,0,0
2714,-0.65,1645108664.34375,P12,D01,0,0,0
2715,-0.8,1645108664.359375,P12,D01,0,0,0
2716,-0.77,1645108664.375,P12,D01,0,0,0
2717,-0.59,1645108664.390625,P12,D01,0,0,0
2718,-0.32,1645108664.40625,P12,D01,0,0,0
2719,-0.06,1645108664.421875,P12,D01,0,0,0
2720,0.13,1645108664.4375,P12,D01,0,0,0
2721,0.18,1645108664.453125,P12,D01,0,0,0
2722,0.14,1645108664.46875,P12,D01,0,0,0
2723,0.05,1645108664.484375,P12,D01,0,0,0
2724,-0.0,1645108664.5,P12,D01,0,0,0
2725,0.03,1645108664.515625,P12,D01,0,0,0
2726,0.14,1645108664.53125,P12,D01,0,0,0
2727,0.27,1645108664.546875,P12,D01,0,0,0
2728,0.32,1645108664.5625,P12,D01,0,0,0
2729,0.26,1645108664.578125,P12,D01,0,0,0
2730,0.05,1645108664.59375,P12,D01,0,0,0
2731,-0.25,1645108664.609375,P12,D01,0,0,0
2732,-0.54,1645108664.625,P12,D01,0,0,0
2733,-0.73,1645108664.640625,P12,D01,0,0,0
2734,-0.74,1645108664.65625,P12,D01,0,0,0
2735,-0.57,1645108664.671875,P12,D01,0,0,0
2736,-0.26,1645108664.6875,P12,D01,0,0,0
2737,0.06,1645108664.703125,P12,D01,0,0,0
2738,0.31,1645108664.71875,P12,D01,0,0,0
2739,0.4,1645108664.734375,P12,D01,0,0,0
2740,0.35,1645108664.75,P12,D01,0,0,0
2741,0.2,1645108664.765625,P12,D01,0,0,0
2742,0.08,1645108664.78125,P12,D01,0,0,0
2743,0.06,1645108664.796875,P12,D01,0,0,0
2744,0.15,1645108664.8125,P12,D01,0,0,0
2745,0.32,1645108664.828125,P12,D01,0,0,0
2746,0.48,1645108664.84375,P12,D01,0,0,0
2747,0.54,1645108664.859375,P12,D01,0,0,0
2748,0.48,1645108664.875,P12,D01,0,0,0
2749,0.34,1645108664.890625,P12,D01,0,0,0
2750,0.19,1645108664.90625,P12,D01,0,0,0
2751,0.06,1645108664.921875,P12,D01,0,0,0
2752,-0.06,1645108664.9375,P12,D01,0,0,0
2753,-0.21,1645108664.953125,P12,D01,0,0,0
2754,-0.44,1645108664.96875,P12,D01,0,0,0
2755,-0.7,1645108664.984375,P12,D01,0,0,0
2756,-0.91,1645108665.0,P12,D01,0,0,0
2757,-0.95,1645108665.015625,P12,D01,0,0,0
2758,-0.76,1645108665.03125,P12,D01,0,0,0
2759,-0.38,1645108665.046875,P12,D01,0,0,0
2760,0.06,1645108665.0625,P12,D01,0,0,0
2761,0.36,1645108665.078125,P12,D01,0,0,0
2762,0.4,1645108665.09375,P12,D01,0,0,0
2763,0.15,1645108665.109375,P12,D01,0,0,0
2764,-0.28,1645108665.125,P12,D01,0,0,0
2765,-0.72,1645108665.140625,P12,D01,0,0,0
2766,-0.99,1645108665.15625,P12,D01,0,0,0
2767,-1.02,1645108665.171875,P12,D01,0,0,0
2768,-0.86,1645108665.1875,P12,D01,0,0,0
2769,-0.64,1645108665.203125,P12,D01,0,0,0
2770,-0.5,1645108665.21875,P12,D01,0,0,0
2771,-0.49,1645108665.234375,P12,D01,0,0,0
2772,-0.62,1645108665.25,P12,D01,0,0,0
2773,-0.8,1645108665.265625,P12,D01,0,0,0
2774,-0.93,1645108665.28125,P12,D01,0,0,0
2775,-0.95,1645108665.296875,P12,D01,0,0,0
2776,-0.86,1645108665.3125,P12,D01,0,0,0
2777,-0.7,1645108665.328125,P12,D01,0,0,0
2778,-0.49,1645108665.34375,P12,D01,0,0,0
2779,-0.27,1645108665.359375,P12,D01,0,0,0
2780,-0.02,1645108665.375,P12,D01,0,0,0
2781,0.29,1645108665.390625,P12,D01,0,0,0
2782,0.63,1645108665.40625,P12,D01,0,0,0
2783,0.95,1645108665.421875,P12,D01,0,0,0
2784,1.13,1645108665.4375,P12,D01,0,0,0
2785,1.1,1645108665.453125,P12,D01,0,0,0
2786,0.82,1645108665.46875,P12,D01,0,0,0
2787,0.38,1645108665.484375,P12,D01,0,0,0
2788,-0.08,1645108665.5,P12,D01,0,0,0
2789,-0.39,1645108665.515625,P12,D01,0,0,0
2790,-0.44,1645108665.53125,P12,D01,0,0,0
2791,-0.25,1645108665.546875,P12,D01,0,0,0
2792,0.07,1645108665.5625,P12,D01,0,0,0
2793,0.35,1645108665.578125,P12,D01,0,0,0
2794,0.47,1645108665.59375,P12,D01,0,0,0
2795,0.42,1645108665.609375,P12,D01,0,0,0
2796,0.3,1645108665.625,P12,D01,0,0,0
2797,0.22,1645108665.640625,P12,D01,0,0,0
2798,0.23,1645108665.65625,P12,D01,0,0,0
2799,0.31,1645108665.671875,P12,D01,0,0,0
2800,0.35,1645108665.6875,P12,D01,0,0,0
2801,0.29,1645108665.703125,P12,D01,0,0,0
2802,0.12,1645108665.71875,P12,D01,0,0,0
2803,-0.07,1645108665.734375,P12,D01,0,0,0
2804,-0.2,1645108665.75,P12,D01,0,0,0
2805,-0.2,1645108665.765625,P12,D01,0,0,0
2806,-0.11,1645108665.78125,P12,D01,0,0,0
2807,-0.0,1645108665.796875,P12,D01,0,0,0
2808,0.02,1645108665.8125,P12,D01,0,0,0
2809,-0.08,1645108665.828125,P12,D01,0,0,0
2810,-0.29,1645108665.84375,P12,D01,0,0,0
2811,-0.5,1645108665.859375,P12,D01,0,0,0
2812,-0.62,1645108665.875,P12,D01,0,0,0
2813,-0.59,1645108665.890625,P12,D01,0,0,0
2814,-0.41,1645108665.90625,P12,D01,0,0,0
2815,-0.16,1645108665.921875,P12,D01,0,0,0
2816,0.05,1645108665.9375,P12,D01,0,0,0
2817,0.17,1645108665.953125,P12,D01,0,0,0
2818,0.18,1645108665.96875,P12,D01,0,0,0
2819,0.11,1645108665.984375,P12,D01,0,0,0
2820,0.04,1645108666.0,P12,D01,0,0,0
2821,0.01,1645108666.015625,P12,D01,0,0,0
2822,0.03,1645108666.03125,P12,D01,0,0,0
2823,0.04,1645108666.046875,P12,D01,0,0,0
2824,-0.01,1645108666.0625,P12,D01,0,0,0
2825,-0.11,1645108666.078125,P12,D01,0,0,0
2826,-0.19,1645108666.09375,P12,D01,0,0,0
2827,-0.2,1645108666.109375,P12,D01,0,0,0
2828,-0.11,1645108666.125,P12,D01,0,0,0
2829,0.06,1645108666.140625,P12,D01,0,0,0
2830,0.18,1645108666.15625,P12,D01,0,0,0
2831,0.2,1645108666.171875,P12,D01,0,0,0
2832,0.09,1645108666.1875,P12,D01,0,0,0
2833,-0.11,1645108666.203125,P12,D01,0,0,0
2834,-0.27,1645108666.21875,P12,D01,0,0,0
2835,-0.35,1645108666.234375,P12,D01,0,0,0
2836,-0.33,1645108666.25,P12,D01,0,0,0
2837,-0.22,1645108666.265625,P12,D01,0,0,0
2838,-0.09,1645108666.28125,P12,D01,0,0,0
2839,-0.0,1645108666.296875,P12,D01,0,0,0
2840,0.02,1645108666.3125,P12,D01,0,0,0
2841,-0.04,1645108666.328125,P12,D01,0,0,0
2842,-0.15,1645108666.34375,P12,D01,0,0,0
2843,-0.24,1645108666.359375,P12,D01,0,0,0
2844,-0.22,1645108666.375,P12,D01,0,0,0
2845,-0.05,1645108666.390625,P12,D01,0,0,0
2846,0.25,1645108666.40625,P12,D01,0,0,0
2847,0.58,1645108666.421875,P12,D01,0,0,0
2848,0.76,1645108666.4375,P12,D01,0,0,0
2849,0.67,1645108666.453125,P12,D01,0,0,0
2850,0.34,1645108666.46875,P12,D01,0,0,0
2851,-0.08,1645108666.484375,P12,D01,0,0,0
2852,-0.39,1645108666.5,P12,D01,0,0,0
2853,-0.44,1645108666.515625,P12,D01,0,0,0
2854,-0.2,1645108666.53125,P12,D01,0,0,0
2855,0.22,1645108666.546875,P12,D01,0,0,0
2856,0.64,1645108666.5625,P12,D01,0,0,0
2857,0.92,1645108666.578125,P12,D01,0,0,0
2858,1.03,1645108666.59375,P12,D01,0,0,0
2859,1.0,1645108666.609375,P12,D01,0,0,0
2860,0.9,1645108666.625,P12,D01,0,0,0
2861,0.81,1645108666.640625,P12,D01,0,0,0
2862,0.7,1645108666.65625,P12,D01,0,0,0
2863,0.59,1645108666.671875,P12,D01,0,0,0
2864,0.44,1645108666.6875,P12,D01,0,0,0
2865,0.26,1645108666.703125,P12,D01,0,0,0
2866,0.06,1645108666.71875,P12,D01,0,0,0
2867,-0.13,1645108666.734375,P12,D01,0,0,0
2868,-0.28,1645108666.75,P12,D01,0,0,0
2869,-0.39,1645108666.765625,P12,D01,0,0,0
2870,-0.44,1645108666.78125,P12,D01,0,0,0
2871,-0.45,1645108666.796875,P12,D01,0,0,0
2872,-0.43,1645108666.8125,P12,D01,0,0,0
2873,-0.37,1645108666.828125,P12,D01,0,0,0
2874,-0.28,1645108666.84375,P12,D01,0,0,0
2875,-0.18,1645108666.859375,P12,D01,0,0,0
2876,-0.07,1645108666.875,P12,D01,0,0,0
2877,0.02,1645108666.890625,P12,D01,0,0,0
2878,0.12,1645108666.90625,P12,D01,0,0,0
2879,0.21,1645108666.921875,P12,D01,0,0,0
2880,0.28,1645108666.9375,P12,D01,0,0,0
2881,0.3,1645108666.953125,P12,D01,0,0,0
2882,0.21,1645108666.96875,P12,D01,0,0,0
2883,0.01,1645108666.984375,P12,D01,0,0,0
2884,-0.26,1645108667.0,P12,D01,0,0,0
2885,-0.52,1645108667.015625,P12,D01,0,0,0
2886,-0.66,1645108667.03125,P12,D01,0,0,0
2887,-0.62,1645108667.046875,P12,D01,0,0,0
2888,-0.4,1645108667.0625,P12,D01,0,0,0
2889,-0.05,1645108667.078125,P12,D01,0,0,0
2890,0.34,1645108667.09375,P12,D01,0,0,0
2891,0.7,1645108667.109375,P12,D01,0,0,0
2892,0.96,1645108667.125,P12,D01,0,0,0
2893,1.05,1645108667.140625,P12,D01,0,0,0
2894,0.92,1645108667.15625,P12,D01,0,0,0
2895,0.55,1645108667.171875,P12,D01,0,0,0
2896,0.02,1645108667.1875,P12,D01,0,0,0
2897,-0.54,1645108667.203125,P12,D01,0,0,0
2898,-0.95,1645108667.21875,P12,D01,0,0,0
2899,-1.09,1645108667.234375,P12,D01,0,0,0
2900,-0.89,1645108667.25,P12,D01,0,0,0
2901,-0.44,1645108667.265625,P12,D01,0,0,0
2902,0.17,1645108667.28125,P12,D01,0,0,0
2903,0.8,1645108667.296875,P12,D01,0,0,0
2904,1.37,1645108667.3125,P12,D01,0,0,0
2905,1.79,1645108667.328125,P12,D01,0,0,0
2906,1.96,1645108667.34375,P12,D01,0,0,0
2907,1.78,1645108667.359375,P12,D01,0,0,0
2908,1.22,1645108667.375,P12,D01,0,0,0
2909,0.37,1645108667.390625,P12,D01,0,0,0
2910,-0.57,1645108667.40625,P12,D01,0,0,0
2911,-1.37,1645108667.421875,P12,D01,0,0,0
2912,-1.8,1645108667.4375,P12,D01,0,0,0
2913,-1.82,1645108667.453125,P12,D01,0,0,0
2914,-1.51,1645108667.46875,P12,D01,0,0,0
2915,-1.06,1645108667.484375,P12,D01,0,0,0
2916,-0.64,1645108667.5,P12,D01,0,0,0
2917,-0.38,1645108667.515625,P12,D01,0,0,0
2918,-0.32,1645108667.53125,P12,D01,0,0,0
2919,-0.45,1645108667.546875,P12,D01,0,0,0
2920,-0.69,1645108667.5625,P12,D01,0,0,0
