,data,timestamp,participant,document,val,arou,eng
0,-1.08,1645111919.390625,P12,D12,1,1,1
1,-1.2,1645111919.40625,P12,D12,1,1,1
2,-1.08,1645111919.421875,P12,D12,1,1,1
3,-0.8,1645111919.4375,P12,D12,1,1,1
4,-0.47,1645111919.453125,P12,D12,1,1,1
5,-0.2,1645111919.46875,P12,D12,1,1,1
6,-0.07,1645111919.484375,P12,D12,1,1,1
7,-0.08,1645111919.5,P12,D12,1,1,1
8,-0.17,1645111919.515625,P12,D12,1,1,1
9,-0.29,1645111919.53125,P12,D12,1,1,1
10,-0.38,1645111919.546875,P12,D12,1,1,1
11,-0.39,1645111919.5625,P12,D12,1,1,1
12,-0.32,1645111919.578125,P12,D12,1,1,1
13,-0.16,1645111919.59375,P12,D12,1,1,1
14,0.02,1645111919.609375,P12,D12,1,1,1
15,0.19,1645111919.625,P12,D12,1,1,1
16,0.3,1645111919.640625,P12,D12,1,1,1
17,0.3,1645111919.65625,P12,D12,1,1,1
18,0.19,1645111919.671875,P12,D12,1,1,1
19,0.02,1645111919.6875,P12,D12,1,1,1
20,-0.17,1645111919.703125,P12,D12,1,1,1
21,-0.3,1645111919.71875,P12,D12,1,1,1
22,-0.32,1645111919.734375,P12,D12,1,1,1
23,-0.23,1645111919.75,P12,D12,1,1,1
24,-0.08,1645111919.765625,P12,D12,1,1,1
25,0.07,1645111919.78125,P12,D12,1,1,1
26,0.16,1645111919.796875,P12,D12,1,1,1
27,0.17,1645111919.8125,P12,D12,1,1,1
28,0.12,1645111919.828125,P12,D12,1,1,1
29,0.03,1645111919.84375,P12,D12,1,1,1
30,-0.08,1645111919.859375,P12,D12,1,1,1
31,-0.16,1645111919.875,P12,D12,1,1,1
32,-0.22,1645111919.890625,P12,D12,1,1,1
33,-0.25,1645111919.90625,P12,D12,1,1,1
34,-0.22,1645111919.921875,P12,D12,1,1,1
35,-0.14,1645111919.9375,P12,D12,1,1,1
36,-0.03,1645111919.953125,P12,D12,1,1,1
37,0.08,1645111919.96875,P12,D12,1,1,1
38,0.13,1645111919.984375,P12,D12,1,1,1
39,0.08,1645111920.0,P12,D12,1,1,1
40,-0.07,1645111920.015625,P12,D12,1,1,1
41,-0.27,1645111920.03125,P12,D12,1,1,1
42,-0.45,1645111920.046875,P12,D12,1,1,1
43,-0.52,1645111920.0625,P12,D12,1,1,1
44,-0.44,1645111920.078125,P12,D12,1,1,1
45,-0.23,1645111920.09375,P12,D12,1,1,1
46,0.07,1645111920.109375,P12,D12,1,1,1
47,0.39,1645111920.125,P12,D12,1,1,1
48,0.64,1645111920.140625,P12,D12,1,1,1
49,0.79,1645111920.15625,P12,D12,1,1,1
50,0.8,1645111920.171875,P12,D12,1,1,1
51,0.7,1645111920.1875,P12,D12,1,1,1
52,0.53,1645111920.203125,P12,D12,1,1,1
53,0.36,1645111920.21875,P12,D12,1,1,1
54,0.28,1645111920.234375,P12,D12,1,1,1
55,0.32,1645111920.25,P12,D12,1,1,1
56,0.48,1645111920.265625,P12,D12,1,1,1
57,0.71,1645111920.28125,P12,D12,1,1,1
58,0.92,1645111920.296875,P12,D12,1,1,1
59,1.03,1645111920.3125,P12,D12,1,1,1
60,1.0,1645111920.328125,P12,D12,1,1,1
61,0.84,1645111920.34375,P12,D12,1,1,1
62,0.58,1645111920.359375,P12,D12,1,1,1
63,0.25,1645111920.375,P12,D12,1,1,1
64,-0.07,1645111920.390625,P12,D12,1,1,1
65,-0.34,1645111920.40625,P12,D12,1,1,1
66,-0.48,1645111920.421875,P12,D12,1,1,1
67,-0.46,1645111920.4375,P12,D12,1,1,1
68,-0.27,1645111920.453125,P12,D12,1,1,1
69,0.01,1645111920.46875,P12,D12,1,1,1
70,0.25,1645111920.484375,P12,D12,1,1,1
71,0.35,1645111920.5,P12,D12,1,1,1
72,0.24,1645111920.515625,P12,D12,1,1,1
73,-0.03,1645111920.53125,P12,D12,1,1,1
74,-0.37,1645111920.546875,P12,D12,1,1,1
75,-0.64,1645111920.5625,P12,D12,1,1,1
76,-0.72,1645111920.578125,P12,D12,1,1,1
77,-0.56,1645111920.59375,P12,D12,1,1,1
78,-0.21,1645111920.609375,P12,D12,1,1,1
79,0.22,1645111920.625,P12,D12,1,1,1
80,0.58,1645111920.640625,P12,D12,1,1,1
81,0.75,1645111920.65625,P12,D12,1,1,1
82,0.68,1645111920.671875,P12,D12,1,1,1
83,0.44,1645111920.6875,P12,D12,1,1,1
84,0.13,1645111920.703125,P12,D12,1,1,1
85,-0.12,1645111920.71875,P12,D12,1,1,1
86,-0.26,1645111920.734375,P12,D12,1,1,1
87,-0.33,1645111920.75,P12,D12,1,1,1
88,-0.41,1645111920.765625,P12,D12,1,1,1
89,-0.54,1645111920.78125,P12,D12,1,1,1
90,-0.69,1645111920.796875,P12,D12,1,1,1
91,-0.8,1645111920.8125,P12,D12,1,1,1
92,-0.79,1645111920.828125,P12,D12,1,1,1
93,-0.66,1645111920.84375,P12,D12,1,1,1
94,-0.48,1645111920.859375,P12,D12,1,1,1
95,-0.34,1645111920.875,P12,D12,1,1,1
96,-0.29,1645111920.890625,P12,D12,1,1,1
97,-0.29,1645111920.90625,P12,D12,1,1,1
98,-0.24,1645111920.921875,P12,D12,1,1,1
99,-0.05,1645111920.9375,P12,D12,1,1,1
100,0.31,1645111920.953125,P12,D12,1,1,1
101,0.75,1645111920.96875,P12,D12,1,1,1
102,1.08,1645111920.984375,P12,D12,1,1,1
103,1.17,1645111921.0,P12,D12,1,1,1
104,0.95,1645111921.015625,P12,D12,1,1,1
105,0.51,1645111921.03125,P12,D12,1,1,1
106,0.02,1645111921.046875,P12,D12,1,1,1
107,-0.37,1645111921.0625,P12,D12,1,1,1
108,-0.52,1645111921.078125,P12,D12,1,1,1
109,-0.44,1645111921.09375,P12,D12,1,1,1
110,-0.22,1645111921.109375,P12,D12,1,1,1
111,0.01,1645111921.125,P12,D12,1,1,1
112,0.15,1645111921.140625,P12,D12,1,1,1
113,0.18,1645111921.15625,P12,D12,1,1,1
114,0.1,1645111921.171875,P12,D12,1,1,1
115,-0.03,1645111921.1875,P12,D12,1,1,1
116,-0.18,1645111921.203125,P12,D12,1,1,1
117,-0.35,1645111921.21875,P12,D12,1,1,1
118,-0.55,1645111921.234375,P12,D12,1,1,1
119,-0.76,1645111921.25,P12,D12,1,1,1
120,-0.96,1645111921.265625,P12,D12,1,1,1
121,-1.12,1645111921.28125,P12,D12,1,1,1
122,-1.18,1645111921.296875,P12,D12,1,1,1
123,-1.15,1645111921.3125,P12,D12,1,1,1
124,-1.03,1645111921.328125,P12,D12,1,1,1
125,-0.87,1645111921.34375,P12,D12,1,1,1
126,-0.67,1645111921.359375,P12,D12,1,1,1
127,-0.46,1645111921.375,P12,D12,1,1,1
128,-0.23,1645111921.390625,P12,D12,1,1,1
129,0.01,1645111921.40625,P12,D12,1,1,1
130,0.23,1645111921.421875,P12,D12,1,1,1
131,0.36,1645111921.4375,P12,D12,1,1,1
132,0.32,1645111921.453125,P12,D12,1,1,1
133,0.12,1645111921.46875,P12,D12,1,1,1
134,-0.19,1645111921.484375,P12,D12,1,1,1
135,-0.46,1645111921.5,P12,D12,1,1,1
136,-0.55,1645111921.515625,P12,D12,1,1,1
137,-0.36,1645111921.53125,P12,D12,1,1,1
138,0.08,1645111921.546875,P12,D12,1,1,1
139,0.64,1645111921.5625,P12,D12,1,1,1
140,1.17,1645111921.578125,P12,D12,1,1,1
141,1.5,1645111921.59375,P12,D12,1,1,1
142,1.58,1645111921.609375,P12,D12,1,1,1
143,1.45,1645111921.625,P12,D12,1,1,1
144,1.2,1645111921.640625,P12,D12,1,1,1
145,0.93,1645111921.65625,P12,D12,1,1,1
146,0.73,1645111921.671875,P12,D12,1,1,1
147,0.61,1645111921.6875,P12,D12,1,1,1
148,0.56,1645111921.703125,P12,D12,1,1,1
149,0.56,1645111921.71875,P12,D12,1,1,1
150,0.57,1645111921.734375,P12,D12,1,1,1
151,0.54,1645111921.75,P12,D12,1,1,1
152,0.41,1645111921.765625,P12,D12,1,1,1
153,0.17,1645111921.78125,P12,D12,1,1,1
154,-0.18,1645111921.796875,P12,D12,1,1,1
155,-0.57,1645111921.8125,P12,D12,1,1,1
156,-0.87,1645111921.828125,P12,D12,1,1,1
157,-1.02,1645111921.84375,P12,D12,1,1,1
158,-0.99,1645111921.859375,P12,D12,1,1,1
159,-0.86,1645111921.875,P12,D12,1,1,1
160,-0.72,1645111921.890625,P12,D12,1,1,1
161,-0.64,1645111921.90625,P12,D12,1,1,1
162,-0.61,1645111921.921875,P12,D12,1,1,1
163,-0.55,1645111921.9375,P12,D12,1,1,1
164,-0.36,1645111921.953125,P12,D12,1,1,1
165,-0.0,1645111921.96875,P12,D12,1,1,1
166,0.43,1645111921.984375,P12,D12,1,1,1
167,0.8,1645111922.0,P12,D12,1,1,1
168,0.94,1645111922.015625,P12,D12,1,1,1
169,0.76,1645111922.03125,P12,D12,1,1,1
170,0.31,1645111922.046875,P12,D12,1,1,1
171,-0.25,1645111922.0625,P12,D12,1,1,1
172,-0.75,1645111922.078125,P12,D12,1,1,1
173,-1.03,1645111922.09375,P12,D12,1,1,1
174,-1.04,1645111922.109375,P12,D12,1,1,1
175,-0.85,1645111922.125,P12,D12,1,1,1
176,-0.6,1645111922.140625,P12,D12,1,1,1
177,-0.39,1645111922.15625,P12,D12,1,1,1
178,-0.28,1645111922.171875,P12,D12,1,1,1
179,-0.27,1645111922.1875,P12,D12,1,1,1
180,-0.28,1645111922.203125,P12,D12,1,1,1
181,-0.27,1645111922.21875,P12,D12,1,1,1
182,-0.2,1645111922.234375,P12,D12,1,1,1
183,-0.05,1645111922.25,P12,D12,1,1,1
184,0.16,1645111922.265625,P12,D12,1,1,1
185,0.41,1645111922.28125,P12,D12,1,1,1
186,0.66,1645111922.296875,P12,D12,1,1,1
187,0.86,1645111922.3125,P12,D12,1,1,1
188,0.95,1645111922.328125,P12,D12,1,1,1
189,0.89,1645111922.34375,P12,D12,1,1,1
190,0.7,1645111922.359375,P12,D12,1,1,1
191,0.45,1645111922.375,P12,D12,1,1,1
192,0.25,1645111922.390625,P12,D12,1,1,1
193,0.2,1645111922.40625,P12,D12,1,1,1
194,0.32,1645111922.421875,P12,D12,1,1,1
195,0.56,1645111922.4375,P12,D12,1,1,1
196,0.81,1645111922.453125,P12,D12,1,1,1
197,0.98,1645111922.46875,P12,D12,1,1,1
198,1.02,1645111922.484375,P12,D12,1,1,1
199,0.94,1645111922.5,P12,D12,1,1,1
200,0.8,1645111922.515625,P12,D12,1,1,1
201,0.62,1645111922.53125,P12,D12,1,1,1
202,0.42,1645111922.546875,P12,D12,1,1,1
203,0.18,1645111922.5625,P12,D12,1,1,1
204,-0.1,1645111922.578125,P12,D12,1,1,1
205,-0.37,1645111922.59375,P12,D12,1,1,1
206,-0.54,1645111922.609375,P12,D12,1,1,1
207,-0.54,1645111922.625,P12,D12,1,1,1
208,-0.36,1645111922.640625,P12,D12,1,1,1
209,-0.1,1645111922.65625,P12,D12,1,1,1
210,0.08,1645111922.671875,P12,D12,1,1,1
211,0.04,1645111922.6875,P12,D12,1,1,1
212,-0.25,1645111922.703125,P12,D12,1,1,1
213,-0.69,1645111922.71875,P12,D12,1,1,1
214,-1.09,1645111922.734375,P12,D12,1,1,1
215,-1.27,1645111922.75,P12,D12,1,1,1
216,-1.13,1645111922.765625,P12,D12,1,1,1
217,-0.69,1645111922.78125,P12,D12,1,1,1
218,-0.1,1645111922.796875,P12,D12,1,1,1
219,0.46,1645111922.8125,P12,D12,1,1,1
220,0.85,1645111922.828125,P12,D12,1,1,1
221,1.01,1645111922.84375,P12,D12,1,1,1
222,1.01,1645111922.859375,P12,D12,1,1,1
223,0.92,1645111922.875,P12,D12,1,1,1
224,0.87,1645111922.890625,P12,D12,1,1,1
225,0.87,1645111922.90625,P12,D12,1,1,1
226,0.9,1645111922.921875,P12,D12,1,1,1
227,0.88,1645111922.9375,P12,D12,1,1,1
228,0.72,1645111922.953125,P12,D12,1,1,1
229,0.41,1645111922.96875,P12,D12,1,1,1
230,0.03,1645111922.984375,P12,D12,1,1,1
231,-0.31,1645111923.0,P12,D12,1,1,1
232,-0.55,1645111923.015625,P12,D12,1,1,1
233,-0.67,1645111923.03125,P12,D12,1,1,1
234,-0.73,1645111923.046875,P12,D12,1,1,1
235,-0.84,1645111923.0625,P12,D12,1,1,1
236,-1.02,1645111923.078125,P12,D12,1,1,1
237,-1.23,1645111923.09375,P12,D12,1,1,1
238,-1.36,1645111923.109375,P12,D12,1,1,1
239,-1.31,1645111923.125,P12,D12,1,1,1
240,-1.05,1645111923.140625,P12,D12,1,1,1
241,-0.65,1645111923.15625,P12,D12,1,1,1
242,-0.24,1645111923.171875,P12,D12,1,1,1
243,0.07,1645111923.1875,P12,D12,1,1,1
244,0.2,1645111923.203125,P12,D12,1,1,1
245,0.2,1645111923.21875,P12,D12,1,1,1
246,0.14,1645111923.234375,P12,D12,1,1,1
247,0.1,1645111923.25,P12,D12,1,1,1
248,0.1,1645111923.265625,P12,D12,1,1,1
249,0.09,1645111923.28125,P12,D12,1,1,1
250,0.03,1645111923.296875,P12,D12,1,1,1
251,-0.09,1645111923.3125,P12,D12,1,1,1
252,-0.24,1645111923.328125,P12,D12,1,1,1
253,-0.36,1645111923.34375,P12,D12,1,1,1
254,-0.39,1645111923.359375,P12,D12,1,1,1
255,-0.34,1645111923.375,P12,D12,1,1,1
256,-0.24,1645111923.390625,P12,D12,1,1,1
257,-0.14,1645111923.40625,P12,D12,1,1,1
258,-0.03,1645111923.421875,P12,D12,1,1,1
259,0.11,1645111923.4375,P12,D12,1,1,1
260,0.28,1645111923.453125,P12,D12,1,1,1
261,0.49,1645111923.46875,P12,D12,1,1,1
262,0.65,1645111923.484375,P12,D12,1,1,1
263,0.67,1645111923.5,P12,D12,1,1,1
264,0.5,1645111923.515625,P12,D12,1,1,1
265,0.15,1645111923.53125,P12,D12,1,1,1
266,-0.26,1645111923.546875,P12,D12,1,1,1
267,-0.58,1645111923.5625,P12,D12,1,1,1
268,-0.7,1645111923.578125,P12,D12,1,1,1
269,-0.56,1645111923.59375,P12,D12,1,1,1
270,-0.23,1645111923.609375,P12,D12,1,1,1
271,0.19,1645111923.625,P12,D12,1,1,1
272,0.59,1645111923.640625,P12,D12,1,1,1
273,0.88,1645111923.65625,P12,D12,1,1,1
274,1.04,1645111923.671875,P12,D12,1,1,1
275,1.05,1645111923.6875,P12,D12,1,1,1
276,0.94,1645111923.703125,P12,D12,1,1,1
277,0.72,1645111923.71875,P12,D12,1,1,1
278,0.44,1645111923.734375,P12,D12,1,1,1
279,0.12,1645111923.75,P12,D12,1,1,1
280,-0.17,1645111923.765625,P12,D12,1,1,1
281,-0.39,1645111923.78125,P12,D12,1,1,1
282,-0.49,1645111923.796875,P12,D12,1,1,1
283,-0.47,1645111923.8125,P12,D12,1,1,1
284,-0.39,1645111923.828125,P12,D12,1,1,1
285,-0.3,1645111923.84375,P12,D12,1,1,1
286,-0.28,1645111923.859375,P12,D12,1,1,1
287,-0.33,1645111923.875,P12,D12,1,1,1
288,-0.42,1645111923.890625,P12,D12,1,1,1
289,-0.47,1645111923.90625,P12,D12,1,1,1
290,-0.45,1645111923.921875,P12,D12,1,1,1
291,-0.36,1645111923.9375,P12,D12,1,1,1
292,-0.25,1645111923.953125,P12,D12,1,1,1
293,-0.17,1645111923.96875,P12,D12,1,1,1
294,-0.16,1645111923.984375,P12,D12,1,1,1
295,-0.2,1645111924.0,P12,D12,1,1,1
296,-0.24,1645111924.015625,P12,D12,1,1,1
297,-0.26,1645111924.03125,P12,D12,1,1,1
298,-0.23,1645111924.046875,P12,D12,1,1,1
299,-0.16,1645111924.0625,P12,D12,1,1,1
300,-0.06,1645111924.078125,P12,D12,1,1,1
301,0.02,1645111924.09375,P12,D12,1,1,1
302,0.1,1645111924.109375,P12,D12,1,1,1
303,0.17,1645111924.125,P12,D12,1,1,1
304,0.22,1645111924.140625,P12,D12,1,1,1
305,0.24,1645111924.15625,P12,D12,1,1,1
306,0.23,1645111924.171875,P12,D12,1,1,1
307,0.18,1645111924.1875,P12,D12,1,1,1
308,0.13,1645111924.203125,P12,D12,1,1,1
309,0.12,1645111924.21875,P12,D12,1,1,1
310,0.17,1645111924.234375,P12,D12,1,1,1
311,0.26,1645111924.25,P12,D12,1,1,1
312,0.3,1645111924.265625,P12,D12,1,1,1
313,0.21,1645111924.28125,P12,D12,1,1,1
314,-0.03,1645111924.296875,P12,D12,1,1,1
315,-0.38,1645111924.3125,P12,D12,1,1,1
316,-0.7,1645111924.328125,P12,D12,1,1,1
317,-0.85,1645111924.34375,P12,D12,1,1,1
318,-0.74,1645111924.359375,P12,D12,1,1,1
319,-0.44,1645111924.375,P12,D12,1,1,1
320,-0.08,1645111924.390625,P12,D12,1,1,1
321,0.15,1645111924.40625,P12,D12,1,1,1
322,0.15,1645111924.421875,P12,D12,1,1,1
323,-0.06,1645111924.4375,P12,D12,1,1,1
324,-0.37,1645111924.453125,P12,D12,1,1,1
325,-0.64,1645111924.46875,P12,D12,1,1,1
326,-0.8,1645111924.484375,P12,D12,1,1,1
327,-0.89,1645111924.5,P12,D12,1,1,1
328,-0.95,1645111924.515625,P12,D12,1,1,1
329,-1.05,1645111924.53125,P12,D12,1,1,1
330,-1.15,1645111924.546875,P12,D12,1,1,1
331,-1.15,1645111924.5625,P12,D12,1,1,1
332,-0.96,1645111924.578125,P12,D12,1,1,1
333,-0.55,1645111924.59375,P12,D12,1,1,1
334,0.01,1645111924.609375,P12,D12,1,1,1
335,0.57,1645111924.625,P12,D12,1,1,1
336,0.97,1645111924.640625,P12,D12,1,1,1
337,1.14,1645111924.65625,P12,D12,1,1,1
338,1.1,1645111924.671875,P12,D12,1,1,1
339,0.97,1645111924.6875,P12,D12,1,1,1
340,0.85,1645111924.703125,P12,D12,1,1,1
341,0.82,1645111924.71875,P12,D12,1,1,1
342,0.87,1645111924.734375,P12,D12,1,1,1
343,0.95,1645111924.75,P12,D12,1,1,1
344,0.97,1645111924.765625,P12,D12,1,1,1
345,0.9,1645111924.78125,P12,D12,1,1,1
346,0.76,1645111924.796875,P12,D12,1,1,1
347,0.59,1645111924.8125,P12,D12,1,1,1
348,0.47,1645111924.828125,P12,D12,1,1,1
349,0.41,1645111924.84375,P12,D12,1,1,1
350,0.42,1645111924.859375,P12,D12,1,1,1
351,0.45,1645111924.875,P12,D12,1,1,1
352,0.48,1645111924.890625,P12,D12,1,1,1
353,0.5,1645111924.90625,P12,D12,1,1,1
354,0.53,1645111924.921875,P12,D12,1,1,1
355,0.57,1645111924.9375,P12,D12,1,1,1
356,0.62,1645111924.953125,P12,D12,1,1,1
357,0.65,1645111924.96875,P12,D12,1,1,1
358,0.62,1645111924.984375,P12,D12,1,1,1
359,0.53,1645111925.0,P12,D12,1,1,1
360,0.39,1645111925.015625,P12,D12,1,1,1
361,0.31,1645111925.03125,P12,D12,1,1,1
362,0.34,1645111925.046875,P12,D12,1,1,1
363,0.54,1645111925.0625,P12,D12,1,1,1
364,0.83,1645111925.078125,P12,D12,1,1,1
365,1.11,1645111925.09375,P12,D12,1,1,1
366,1.24,1645111925.109375,P12,D12,1,1,1
367,1.11,1645111925.125,P12,D12,1,1,1
368,0.72,1645111925.140625,P12,D12,1,1,1
369,0.14,1645111925.15625,P12,D12,1,1,1
370,-0.51,1645111925.171875,P12,D12,1,1,1
371,-1.09,1645111925.1875,P12,D12,1,1,1
372,-1.5,1645111925.203125,P12,D12,1,1,1
373,-1.67,1645111925.21875,P12,D12,1,1,1
374,-1.58,1645111925.234375,P12,D12,1,1,1
375,-1.25,1645111925.25,P12,D12,1,1,1
376,-0.78,1645111925.265625,P12,D12,1,1,1
377,-0.32,1645111925.28125,P12,D12,1,1,1
378,-0.03,1645111925.296875,P12,D12,1,1,1
379,-0.0,1645111925.3125,P12,D12,1,1,1
380,-0.21,1645111925.328125,P12,D12,1,1,1
381,-0.5,1645111925.34375,P12,D12,1,1,1
382,-0.66,1645111925.359375,P12,D12,1,1,1
383,-0.58,1645111925.375,P12,D12,1,1,1
384,-0.27,1645111925.390625,P12,D12,1,1,1
385,0.1,1645111925.40625,P12,D12,1,1,1
386,0.32,1645111925.421875,P12,D12,1,1,1
387,0.25,1645111925.4375,P12,D12,1,1,1
388,-0.07,1645111925.453125,P12,D12,1,1,1
389,-0.48,1645111925.46875,P12,D12,1,1,1
390,-0.8,1645111925.484375,P12,D12,1,1,1
391,-0.91,1645111925.5,P12,D12,1,1,1
392,-0.82,1645111925.515625,P12,D12,1,1,1
393,-0.66,1645111925.53125,P12,D12,1,1,1
394,-0.56,1645111925.546875,P12,D12,1,1,1
395,-0.58,1645111925.5625,P12,D12,1,1,1
396,-0.69,1645111925.578125,P12,D12,1,1,1
397,-0.79,1645111925.59375,P12,D12,1,1,1
398,-0.8,1645111925.609375,P12,D12,1,1,1
399,-0.7,1645111925.625,P12,D12,1,1,1
400,-0.53,1645111925.640625,P12,D12,1,1,1
401,-0.33,1645111925.65625,P12,D12,1,1,1
402,-0.12,1645111925.671875,P12,D12,1,1,1
403,0.08,1645111925.6875,P12,D12,1,1,1
404,0.28,1645111925.703125,P12,D12,1,1,1
405,0.48,1645111925.71875,P12,D12,1,1,1
406,0.61,1645111925.734375,P12,D12,1,1,1
407,0.63,1645111925.75,P12,D12,1,1,1
408,0.51,1645111925.765625,P12,D12,1,1,1
409,0.28,1645111925.78125,P12,D12,1,1,1
410,0.03,1645111925.796875,P12,D12,1,1,1
411,-0.13,1645111925.8125,P12,D12,1,1,1
412,-0.17,1645111925.828125,P12,D12,1,1,1
413,-0.07,1645111925.84375,P12,D12,1,1,1
414,0.1,1645111925.859375,P12,D12,1,1,1
415,0.27,1645111925.875,P12,D12,1,1,1
416,0.39,1645111925.890625,P12,D12,1,1,1
417,0.39,1645111925.90625,P12,D12,1,1,1
418,0.25,1645111925.921875,P12,D12,1,1,1
419,-0.06,1645111925.9375,P12,D12,1,1,1
420,-0.53,1645111925.953125,P12,D12,1,1,1
421,-1.1,1645111925.96875,P12,D12,1,1,1
422,-1.68,1645111925.984375,P12,D12,1,1,1
423,-2.17,1645111926.0,P12,D12,1,1,1
424,-2.53,1645111926.015625,P12,D12,1,1,1
425,-2.76,1645111926.03125,P12,D12,1,1,1
426,-2.91,1645111926.046875,P12,D12,1,1,1
427,-3.04,1645111926.0625,P12,D12,1,1,1
428,-3.18,1645111926.078125,P12,D12,1,1,1
429,-3.34,1645111926.09375,P12,D12,1,1,1
430,-3.48,1645111926.109375,P12,D12,1,1,1
431,-3.63,1645111926.125,P12,D12,1,1,1
432,-3.81,1645111926.140625,P12,D12,1,1,1
433,-4.08,1645111926.15625,P12,D12,1,1,1
434,-4.49,1645111926.171875,P12,D12,1,1,1
435,-5.02,1645111926.1875,P12,D12,1,1,1
436,-5.64,1645111926.203125,P12,D12,1,1,1
437,-6.28,1645111926.21875,P12,D12,1,1,1
438,-6.85,1645111926.234375,P12,D12,1,1,1
439,-7.35,1645111926.25,P12,D12,1,1,1
440,-7.77,1645111926.265625,P12,D12,1,1,1
441,-8.15,1645111926.28125,P12,D12,1,1,1
442,-8.54,1645111926.296875,P12,D12,1,1,1
443,-8.95,1645111926.3125,P12,D12,1,1,1
444,-9.39,1645111926.328125,P12,D12,1,1,1
445,-9.8,1645111926.34375,P12,D12,1,1,1
446,-10.11,1645111926.359375,P12,D12,1,1,1
447,-10.24,1645111926.375,P12,D12,1,1,1
448,-10.16,1645111926.390625,P12,D12,1,1,1
449,-9.94,1645111926.40625,P12,D12,1,1,1
450,-9.69,1645111926.421875,P12,D12,1,1,1
451,-9.56,1645111926.4375,P12,D12,1,1,1
452,-9.62,1645111926.453125,P12,D12,1,1,1
453,-9.79,1645111926.46875,P12,D12,1,1,1
454,-9.84,1645111926.484375,P12,D12,1,1,1
455,-9.44,1645111926.5,P12,D12,1,1,1
456,-8.29,1645111926.515625,P12,D12,1,1,1
457,-6.27,1645111926.53125,P12,D12,1,1,1
458,-3.49,1645111926.546875,P12,D12,1,1,1
459,-0.33,1645111926.5625,P12,D12,1,1,1
460,2.7,1645111926.578125,P12,D12,1,1,1
461,5.1,1645111926.59375,P12,D12,1,1,1
462,6.57,1645111926.609375,P12,D12,1,1,1
463,6.99,1645111926.625,P12,D12,1,1,1
464,6.52,1645111926.640625,P12,D12,1,1,1
465,5.43,1645111926.65625,P12,D12,1,1,1
466,4.08,1645111926.671875,P12,D12,1,1,1
467,2.8,1645111926.6875,P12,D12,1,1,1
468,1.83,1645111926.703125,P12,D12,1,1,1
469,1.34,1645111926.71875,P12,D12,1,1,1
470,1.39,1645111926.734375,P12,D12,1,1,1
471,1.98,1645111926.75,P12,D12,1,1,1
472,3.02,1645111926.765625,P12,D12,1,1,1
473,4.38,1645111926.78125,P12,D12,1,1,1
474,5.84,1645111926.796875,P12,D12,1,1,1
475,7.16,1645111926.8125,P12,D12,1,1,1
476,8.13,1645111926.828125,P12,D12,1,1,1
477,8.57,1645111926.84375,P12,D12,1,1,1
478,8.46,1645111926.859375,P12,D12,1,1,1
479,7.86,1645111926.875,P12,D12,1,1,1
480,6.96,1645111926.890625,P12,D12,1,1,1
481,5.96,1645111926.90625,P12,D12,1,1,1
482,5.03,1645111926.921875,P12,D12,1,1,1
483,4.3,1645111926.9375,P12,D12,1,1,1
484,3.81,1645111926.953125,P12,D12,1,1,1
485,3.63,1645111926.96875,P12,D12,1,1,1
486,3.76,1645111926.984375,P12,D12,1,1,1
487,4.19,1645111927.0,P12,D12,1,1,1
488,4.85,1645111927.015625,P12,D12,1,1,1
489,5.59,1645111927.03125,P12,D12,1,1,1
490,6.26,1645111927.046875,P12,D12,1,1,1
491,6.85,1645111927.0625,P12,D12,1,1,1
492,7.51,1645111927.078125,P12,D12,1,1,1
493,8.51,1645111927.09375,P12,D12,1,1,1
494,10.08,1645111927.109375,P12,D12,1,1,1
495,12.27,1645111927.125,P12,D12,1,1,1
496,14.86,1645111927.140625,P12,D12,1,1,1
497,17.39,1645111927.15625,P12,D12,1,1,1
498,19.33,1645111927.171875,P12,D12,1,1,1
499,20.27,1645111927.1875,P12,D12,1,1,1
500,20.09,1645111927.203125,P12,D12,1,1,1
501,18.89,1645111927.21875,P12,D12,1,1,1
502,17.0,1645111927.234375,P12,D12,1,1,1
503,14.76,1645111927.25,P12,D12,1,1,1
504,12.51,1645111927.265625,P12,D12,1,1,1
505,10.45,1645111927.28125,P12,D12,1,1,1
506,8.74,1645111927.296875,P12,D12,1,1,1
507,7.42,1645111927.3125,P12,D12,1,1,1
508,6.47,1645111927.328125,P12,D12,1,1,1
509,5.8,1645111927.34375,P12,D12,1,1,1
510,5.27,1645111927.359375,P12,D12,1,1,1
511,4.73,1645111927.375,P12,D12,1,1,1
512,4.05,1645111927.390625,P12,D12,1,1,1
513,3.17,1645111927.40625,P12,D12,1,1,1
514,2.13,1645111927.421875,P12,D12,1,1,1
515,1.06,1645111927.4375,P12,D12,1,1,1
516,0.08,1645111927.453125,P12,D12,1,1,1
517,-0.69,1645111927.46875,P12,D12,1,1,1
518,-1.2,1645111927.484375,P12,D12,1,1,1
519,-1.49,1645111927.5,P12,D12,1,1,1
520,-1.65,1645111927.515625,P12,D12,1,1,1
521,-1.76,1645111927.53125,P12,D12,1,1,1
522,-1.89,1645111927.546875,P12,D12,1,1,1
523,-2.03,1645111927.5625,P12,D12,1,1,1
524,-2.15,1645111927.578125,P12,D12,1,1,1
525,-2.23,1645111927.59375,P12,D12,1,1,1
526,-2.23,1645111927.609375,P12,D12,1,1,1
527,-2.13,1645111927.625,P12,D12,1,1,1
528,-1.93,1645111927.640625,P12,D12,1,1,1
529,-1.66,1645111927.65625,P12,D12,1,1,1
530,-1.35,1645111927.671875,P12,D12,1,1,1
531,-1.08,1645111927.6875,P12,D12,1,1,1
532,-0.96,1645111927.703125,P12,D12,1,1,1
533,-1.06,1645111927.71875,P12,D12,1,1,1
534,-1.45,1645111927.734375,P12,D12,1,1,1
535,-2.09,1645111927.75,P12,D12,1,1,1
536,-2.9,1645111927.765625,P12,D12,1,1,1
537,-3.69,1645111927.78125,P12,D12,1,1,1
538,-4.3,1645111927.796875,P12,D12,1,1,1
539,-4.58,1645111927.8125,P12,D12,1,1,1
540,-4.52,1645111927.828125,P12,D12,1,1,1
541,-4.18,1645111927.84375,P12,D12,1,1,1
542,-3.73,1645111927.859375,P12,D12,1,1,1
543,-3.3,1645111927.875,P12,D12,1,1,1
544,-3.02,1645111927.890625,P12,D12,1,1,1
545,-2.94,1645111927.90625,P12,D12,1,1,1
546,-3.04,1645111927.921875,P12,D12,1,1,1
547,-3.29,1645111927.9375,P12,D12,1,1,1
548,-3.59,1645111927.953125,P12,D12,1,1,1
549,-3.85,1645111927.96875,P12,D12,1,1,1
550,-3.97,1645111927.984375,P12,D12,1,1,1
551,-3.9,1645111928.0,P12,D12,1,1,1
552,-3.64,1645111928.015625,P12,D12,1,1,1
553,-3.26,1645111928.03125,P12,D12,1,1,1
554,-2.87,1645111928.046875,P12,D12,1,1,1
555,-2.58,1645111928.0625,P12,D12,1,1,1
556,-2.49,1645111928.078125,P12,D12,1,1,1
557,-2.63,1645111928.09375,P12,D12,1,1,1
558,-2.93,1645111928.109375,P12,D12,1,1,1
559,-3.27,1645111928.125,P12,D12,1,1,1
560,-3.5,1645111928.140625,P12,D12,1,1,1
561,-3.48,1645111928.15625,P12,D12,1,1,1
562,-3.15,1645111928.171875,P12,D12,1,1,1
563,-2.57,1645111928.1875,P12,D12,1,1,1
564,-1.88,1645111928.203125,P12,D12,1,1,1
565,-1.25,1645111928.21875,P12,D12,1,1,1
566,-0.81,1645111928.234375,P12,D12,1,1,1
567,-0.58,1645111928.25,P12,D12,1,1,1
568,-0.51,1645111928.265625,P12,D12,1,1,1
569,-0.48,1645111928.28125,P12,D12,1,1,1
570,-0.41,1645111928.296875,P12,D12,1,1,1
571,-0.24,1645111928.3125,P12,D12,1,1,1
572,0.05,1645111928.328125,P12,D12,1,1,1
573,0.47,1645111928.34375,P12,D12,1,1,1
574,1.0,1645111928.359375,P12,D12,1,1,1
575,1.58,1645111928.375,P12,D12,1,1,1
576,2.08,1645111928.390625,P12,D12,1,1,1
577,2.37,1645111928.40625,P12,D12,1,1,1
578,2.36,1645111928.421875,P12,D12,1,1,1
579,2.07,1645111928.4375,P12,D12,1,1,1
580,1.59,1645111928.453125,P12,D12,1,1,1
581,1.08,1645111928.46875,P12,D12,1,1,1
582,0.63,1645111928.484375,P12,D12,1,1,1
583,0.28,1645111928.5,P12,D12,1,1,1
584,0.03,1645111928.515625,P12,D12,1,1,1
585,-0.14,1645111928.53125,P12,D12,1,1,1
586,-0.24,1645111928.546875,P12,D12,1,1,1
587,-0.26,1645111928.5625,P12,D12,1,1,1
588,-0.21,1645111928.578125,P12,D12,1,1,1
589,-0.15,1645111928.59375,P12,D12,1,1,1
590,-0.17,1645111928.609375,P12,D12,1,1,1
591,-0.3,1645111928.625,P12,D12,1,1,1
592,-0.5,1645111928.640625,P12,D12,1,1,1
593,-0.66,1645111928.65625,P12,D12,1,1,1
594,-0.68,1645111928.671875,P12,D12,1,1,1
595,-0.49,1645111928.6875,P12,D12,1,1,1
596,-0.16,1645111928.703125,P12,D12,1,1,1
597,0.16,1645111928.71875,P12,D12,1,1,1
598,0.32,1645111928.734375,P12,D12,1,1,1
599,0.21,1645111928.75,P12,D12,1,1,1
600,-0.12,1645111928.765625,P12,D12,1,1,1
601,-0.55,1645111928.78125,P12,D12,1,1,1
602,-0.93,1645111928.796875,P12,D12,1,1,1
603,-1.16,1645111928.8125,P12,D12,1,1,1
604,-1.2,1645111928.828125,P12,D12,1,1,1
605,-1.12,1645111928.84375,P12,D12,1,1,1
606,-0.99,1645111928.859375,P12,D12,1,1,1
607,-0.91,1645111928.875,P12,D12,1,1,1
608,-0.92,1645111928.890625,P12,D12,1,1,1
609,-1.08,1645111928.90625,P12,D12,1,1,1
610,-1.39,1645111928.921875,P12,D12,1,1,1
611,-1.82,1645111928.9375,P12,D12,1,1,1
612,-2.3,1645111928.953125,P12,D12,1,1,1
613,-2.68,1645111928.96875,P12,D12,1,1,1
614,-2.82,1645111928.984375,P12,D12,1,1,1
615,-2.65,1645111929.0,P12,D12,1,1,1
616,-2.21,1645111929.015625,P12,D12,1,1,1
617,-1.66,1645111929.03125,P12,D12,1,1,1
618,-1.18,1645111929.046875,P12,D12,1,1,1
619,-0.9,1645111929.0625,P12,D12,1,1,1
620,-0.85,1645111929.078125,P12,D12,1,1,1
621,-0.95,1645111929.09375,P12,D12,1,1,1
622,-1.08,1645111929.109375,P12,D12,1,1,1
623,-1.14,1645111929.125,P12,D12,1,1,1
624,-1.06,1645111929.140625,P12,D12,1,1,1
625,-0.82,1645111929.15625,P12,D12,1,1,1
626,-0.44,1645111929.171875,P12,D12,1,1,1
627,0.02,1645111929.1875,P12,D12,1,1,1
628,0.47,1645111929.203125,P12,D12,1,1,1
629,0.8,1645111929.21875,P12,D12,1,1,1
630,0.96,1645111929.234375,P12,D12,1,1,1
631,0.96,1645111929.25,P12,D12,1,1,1
632,0.86,1645111929.265625,P12,D12,1,1,1
633,0.76,1645111929.28125,P12,D12,1,1,1
634,0.66,1645111929.296875,P12,D12,1,1,1
635,0.51,1645111929.3125,P12,D12,1,1,1
636,0.25,1645111929.328125,P12,D12,1,1,1
637,-0.17,1645111929.34375,P12,D12,1,1,1
638,-0.66,1645111929.359375,P12,D12,1,1,1
639,-1.07,1645111929.375,P12,D12,1,1,1
640,-1.25,1645111929.390625,P12,D12,1,1,1
641,-1.14,1645111929.40625,P12,D12,1,1,1
642,-0.81,1645111929.421875,P12,D12,1,1,1
643,-0.4,1645111929.4375,P12,D12,1,1,1
644,-0.09,1645111929.453125,P12,D12,1,1,1
645,0.03,1645111929.46875,P12,D12,1,1,1
646,-0.04,1645111929.484375,P12,D12,1,1,1
647,-0.23,1645111929.5,P12,D12,1,1,1
648,-0.46,1645111929.515625,P12,D12,1,1,1
649,-0.64,1645111929.53125,P12,D12,1,1,1
650,-0.76,1645111929.546875,P12,D12,1,1,1
651,-0.8,1645111929.5625,P12,D12,1,1,1
652,-0.76,1645111929.578125,P12,D12,1,1,1
653,-0.64,1645111929.59375,P12,D12,1,1,1
654,-0.44,1645111929.609375,P12,D12,1,1,1
655,-0.17,1645111929.625,P12,D12,1,1,1
656,0.1,1645111929.640625,P12,D12,1,1,1
657,0.31,1645111929.65625,P12,D12,1,1,1
658,0.42,1645111929.671875,P12,D12,1,1,1
659,0.4,1645111929.6875,P12,D12,1,1,1
660,0.26,1645111929.703125,P12,D12,1,1,1
661,0.06,1645111929.71875,P12,D12,1,1,1
662,-0.17,1645111929.734375,P12,D12,1,1,1
663,-0.44,1645111929.75,P12,D12,1,1,1
664,-0.77,1645111929.765625,P12,D12,1,1,1
665,-1.12,1645111929.78125,P12,D12,1,1,1
666,-1.45,1645111929.796875,P12,D12,1,1,1
667,-1.65,1645111929.8125,P12,D12,1,1,1
668,-1.6,1645111929.828125,P12,D12,1,1,1
669,-1.3,1645111929.84375,P12,D12,1,1,1
670,-0.8,1645111929.859375,P12,D12,1,1,1
671,-0.27,1645111929.875,P12,D12,1,1,1
672,0.16,1645111929.890625,P12,D12,1,1,1
673,0.42,1645111929.90625,P12,D12,1,1,1
674,0.52,1645111929.921875,P12,D12,1,1,1
675,0.52,1645111929.9375,P12,D12,1,1,1
676,0.48,1645111929.953125,P12,D12,1,1,1
677,0.38,1645111929.96875,P12,D12,1,1,1
678,0.23,1645111929.984375,P12,D12,1,1,1
679,0.05,1645111930.0,P12,D12,1,1,1
680,-0.12,1645111930.015625,P12,D12,1,1,1
681,-0.2,1645111930.03125,P12,D12,1,1,1
682,-0.13,1645111930.046875,P12,D12,1,1,1
683,0.08,1645111930.0625,P12,D12,1,1,1
684,0.35,1645111930.078125,P12,D12,1,1,1
685,0.56,1645111930.09375,P12,D12,1,1,1
686,0.64,1645111930.109375,P12,D12,1,1,1
687,0.55,1645111930.125,P12,D12,1,1,1
688,0.34,1645111930.140625,P12,D12,1,1,1
689,0.07,1645111930.15625,P12,D12,1,1,1
690,-0.18,1645111930.171875,P12,D12,1,1,1
691,-0.36,1645111930.1875,P12,D12,1,1,1
692,-0.41,1645111930.203125,P12,D12,1,1,1
693,-0.33,1645111930.21875,P12,D12,1,1,1
694,-0.14,1645111930.234375,P12,D12,1,1,1
695,0.09,1645111930.25,P12,D12,1,1,1
696,0.26,1645111930.265625,P12,D12,1,1,1
697,0.33,1645111930.28125,P12,D12,1,1,1
698,0.27,1645111930.296875,P12,D12,1,1,1
699,0.14,1645111930.3125,P12,D12,1,1,1
700,0.02,1645111930.328125,P12,D12,1,1,1
701,-0.03,1645111930.34375,P12,D12,1,1,1
702,-0.01,1645111930.359375,P12,D12,1,1,1
703,0.03,1645111930.375,P12,D12,1,1,1
704,0.06,1645111930.390625,P12,D12,1,1,1
705,0.05,1645111930.40625,P12,D12,1,1,1
706,0.0,1645111930.421875,P12,D12,1,1,1
707,-0.03,1645111930.4375,P12,D12,1,1,1
708,-0.02,1645111930.453125,P12,D12,1,1,1
709,0.01,1645111930.46875,P12,D12,1,1,1
710,0.05,1645111930.484375,P12,D12,1,1,1
711,0.07,1645111930.5,P12,D12,1,1,1
712,0.08,1645111930.515625,P12,D12,1,1,1
713,0.1,1645111930.53125,P12,D12,1,1,1
714,0.15,1645111930.546875,P12,D12,1,1,1
715,0.21,1645111930.5625,P12,D12,1,1,1
716,0.21,1645111930.578125,P12,D12,1,1,1
717,0.07,1645111930.59375,P12,D12,1,1,1
718,-0.21,1645111930.609375,P12,D12,1,1,1
719,-0.58,1645111930.625,P12,D12,1,1,1
720,-0.93,1645111930.640625,P12,D12,1,1,1
721,-1.14,1645111930.65625,P12,D12,1,1,1
722,-1.15,1645111930.671875,P12,D12,1,1,1
723,-0.99,1645111930.6875,P12,D12,1,1,1
724,-0.76,1645111930.703125,P12,D12,1,1,1
725,-0.55,1645111930.71875,P12,D12,1,1,1
726,-0.43,1645111930.734375,P12,D12,1,1,1
727,-0.4,1645111930.75,P12,D12,1,1,1
728,-0.44,1645111930.765625,P12,D12,1,1,1
729,-0.5,1645111930.78125,P12,D12,1,1,1
730,-0.54,1645111930.796875,P12,D12,1,1,1
731,-0.54,1645111930.8125,P12,D12,1,1,1
732,-0.48,1645111930.828125,P12,D12,1,1,1
733,-0.34,1645111930.84375,P12,D12,1,1,1
734,-0.15,1645111930.859375,P12,D12,1,1,1
735,0.07,1645111930.875,P12,D12,1,1,1
736,0.27,1645111930.890625,P12,D12,1,1,1
737,0.4,1645111930.90625,P12,D12,1,1,1
738,0.42,1645111930.921875,P12,D12,1,1,1
739,0.33,1645111930.9375,P12,D12,1,1,1
740,0.15,1645111930.953125,P12,D12,1,1,1
741,-0.08,1645111930.96875,P12,D12,1,1,1
742,-0.33,1645111930.984375,P12,D12,1,1,1
743,-0.55,1645111931.0,P12,D12,1,1,1
744,-0.67,1645111931.015625,P12,D12,1,1,1
745,-0.64,1645111931.03125,P12,D12,1,1,1
746,-0.43,1645111931.046875,P12,D12,1,1,1
747,-0.06,1645111931.0625,P12,D12,1,1,1
748,0.39,1645111931.078125,P12,D12,1,1,1
749,0.79,1645111931.09375,P12,D12,1,1,1
750,1.05,1645111931.109375,P12,D12,1,1,1
751,1.13,1645111931.125,P12,D12,1,1,1
752,1.05,1645111931.140625,P12,D12,1,1,1
753,0.86,1645111931.15625,P12,D12,1,1,1
754,0.65,1645111931.171875,P12,D12,1,1,1
755,0.46,1645111931.1875,P12,D12,1,1,1
756,0.34,1645111931.203125,P12,D12,1,1,1
757,0.32,1645111931.21875,P12,D12,1,1,1
758,0.41,1645111931.234375,P12,D12,1,1,1
759,0.6,1645111931.25,P12,D12,1,1,1
760,0.84,1645111931.265625,P12,D12,1,1,1
761,1.04,1645111931.28125,P12,D12,1,1,1
762,1.11,1645111931.296875,P12,D12,1,1,1
763,1.02,1645111931.3125,P12,D12,1,1,1
764,0.77,1645111931.328125,P12,D12,1,1,1
765,0.49,1645111931.34375,P12,D12,1,1,1
766,0.26,1645111931.359375,P12,D12,1,1,1
767,0.18,1645111931.375,P12,D12,1,1,1
768,0.23,1645111931.390625,P12,D12,1,1,1
769,0.37,1645111931.40625,P12,D12,1,1,1
770,0.5,1645111931.421875,P12,D12,1,1,1
771,0.55,1645111931.4375,P12,D12,1,1,1
772,0.48,1645111931.453125,P12,D12,1,1,1
773,0.3,1645111931.46875,P12,D12,1,1,1
774,0.03,1645111931.484375,P12,D12,1,1,1
775,-0.29,1645111931.5,P12,D12,1,1,1
776,-0.6,1645111931.515625,P12,D12,1,1,1
777,-0.85,1645111931.53125,P12,D12,1,1,1
778,-1.0,1645111931.546875,P12,D12,1,1,1
779,-1.07,1645111931.5625,P12,D12,1,1,1
780,-1.06,1645111931.578125,P12,D12,1,1,1
781,-1.0,1645111931.59375,P12,D12,1,1,1
782,-0.9,1645111931.609375,P12,D12,1,1,1
783,-0.75,1645111931.625,P12,D12,1,1,1
784,-0.55,1645111931.640625,P12,D12,1,1,1
785,-0.37,1645111931.65625,P12,D12,1,1,1
786,-0.25,1645111931.671875,P12,D12,1,1,1
787,-0.26,1645111931.6875,P12,D12,1,1,1
788,-0.39,1645111931.703125,P12,D12,1,1,1
789,-0.59,1645111931.71875,P12,D12,1,1,1
790,-0.77,1645111931.734375,P12,D12,1,1,1
791,-0.88,1645111931.75,P12,D12,1,1,1
792,-0.92,1645111931.765625,P12,D12,1,1,1
793,-0.93,1645111931.78125,P12,D12,1,1,1
794,-0.94,1645111931.796875,P12,D12,1,1,1
795,-0.94,1645111931.8125,P12,D12,1,1,1
796,-0.88,1645111931.828125,P12,D12,1,1,1
797,-0.7,1645111931.84375,P12,D12,1,1,1
798,-0.34,1645111931.859375,P12,D12,1,1,1
799,0.14,1645111931.875,P12,D12,1,1,1
800,0.66,1645111931.890625,P12,D12,1,1,1
801,1.14,1645111931.90625,P12,D12,1,1,1
802,1.52,1645111931.921875,P12,D12,1,1,1
803,1.79,1645111931.9375,P12,D12,1,1,1
804,1.95,1645111931.953125,P12,D12,1,1,1
805,1.97,1645111931.96875,P12,D12,1,1,1
806,1.83,1645111931.984375,P12,D12,1,1,1
807,1.51,1645111932.0,P12,D12,1,1,1
808,1.07,1645111932.015625,P12,D12,1,1,1
809,0.58,1645111932.03125,P12,D12,1,1,1
810,0.16,1645111932.046875,P12,D12,1,1,1
811,-0.14,1645111932.0625,P12,D12,1,1,1
812,-0.29,1645111932.078125,P12,D12,1,1,1
813,-0.33,1645111932.09375,P12,D12,1,1,1
814,-0.31,1645111932.109375,P12,D12,1,1,1
815,-0.24,1645111932.125,P12,D12,1,1,1
816,-0.13,1645111932.140625,P12,D12,1,1,1
817,0.01,1645111932.15625,P12,D12,1,1,1
818,0.15,1645111932.171875,P12,D12,1,1,1
819,0.22,1645111932.1875,P12,D12,1,1,1
820,0.18,1645111932.203125,P12,D12,1,1,1
821,0.03,1645111932.21875,P12,D12,1,1,1
822,-0.16,1645111932.234375,P12,D12,1,1,1
823,-0.28,1645111932.25,P12,D12,1,1,1
824,-0.26,1645111932.265625,P12,D12,1,1,1
825,-0.12,1645111932.28125,P12,D12,1,1,1
826,0.07,1645111932.296875,P12,D12,1,1,1
827,0.16,1645111932.3125,P12,D12,1,1,1
828,0.09,1645111932.328125,P12,D12,1,1,1
829,-0.12,1645111932.34375,P12,D12,1,1,1
830,-0.39,1645111932.359375,P12,D12,1,1,1
831,-0.62,1645111932.375,P12,D12,1,1,1
832,-0.72,1645111932.390625,P12,D12,1,1,1
833,-0.68,1645111932.40625,P12,D12,1,1,1
834,-0.5,1645111932.421875,P12,D12,1,1,1
835,-0.26,1645111932.4375,P12,D12,1,1,1
836,-0.0,1645111932.453125,P12,D12,1,1,1
837,0.19,1645111932.46875,P12,D12,1,1,1
838,0.26,1645111932.484375,P12,D12,1,1,1
839,0.16,1645111932.5,P12,D12,1,1,1
840,-0.08,1645111932.515625,P12,D12,1,1,1
841,-0.38,1645111932.53125,P12,D12,1,1,1
842,-0.63,1645111932.546875,P12,D12,1,1,1
843,-0.7,1645111932.5625,P12,D12,1,1,1
844,-0.57,1645111932.578125,P12,D12,1,1,1
845,-0.3,1645111932.59375,P12,D12,1,1,1
846,-0.05,1645111932.609375,P12,D12,1,1,1
847,0.07,1645111932.625,P12,D12,1,1,1
848,-0.01,1645111932.640625,P12,D12,1,1,1
849,-0.27,1645111932.65625,P12,D12,1,1,1
850,-0.61,1645111932.671875,P12,D12,1,1,1
851,-0.93,1645111932.6875,P12,D12,1,1,1
852,-1.16,1645111932.703125,P12,D12,1,1,1
853,-1.24,1645111932.71875,P12,D12,1,1,1
854,-1.18,1645111932.734375,P12,D12,1,1,1
855,-0.99,1645111932.75,P12,D12,1,1,1
856,-0.7,1645111932.765625,P12,D12,1,1,1
857,-0.39,1645111932.78125,P12,D12,1,1,1
858,-0.11,1645111932.796875,P12,D12,1,1,1
859,0.08,1645111932.8125,P12,D12,1,1,1
860,0.18,1645111932.828125,P12,D12,1,1,1
861,0.2,1645111932.84375,P12,D12,1,1,1
862,0.21,1645111932.859375,P12,D12,1,1,1
863,0.23,1645111932.875,P12,D12,1,1,1
864,0.28,1645111932.890625,P12,D12,1,1,1
865,0.32,1645111932.90625,P12,D12,1,1,1
866,0.33,1645111932.921875,P12,D12,1,1,1
867,0.32,1645111932.9375,P12,D12,1,1,1
868,0.3,1645111932.953125,P12,D12,1,1,1
869,0.36,1645111932.96875,P12,D12,1,1,1
870,0.51,1645111932.984375,P12,D12,1,1,1
871,0.74,1645111933.0,P12,D12,1,1,1
872,0.99,1645111933.015625,P12,D12,1,1,1
873,1.18,1645111933.03125,P12,D12,1,1,1
874,1.25,1645111933.046875,P12,D12,1,1,1
875,1.16,1645111933.0625,P12,D12,1,1,1
876,0.94,1645111933.078125,P12,D12,1,1,1
877,0.65,1645111933.09375,P12,D12,1,1,1
878,0.37,1645111933.109375,P12,D12,1,1,1
879,0.16,1645111933.125,P12,D12,1,1,1
880,0.07,1645111933.140625,P12,D12,1,1,1
881,0.1,1645111933.15625,P12,D12,1,1,1
882,0.21,1645111933.171875,P12,D12,1,1,1
883,0.34,1645111933.1875,P12,D12,1,1,1
884,0.46,1645111933.203125,P12,D12,1,1,1
885,0.55,1645111933.21875,P12,D12,1,1,1
886,0.62,1645111933.234375,P12,D12,1,1,1
887,0.68,1645111933.25,P12,D12,1,1,1
888,0.72,1645111933.265625,P12,D12,1,1,1
889,0.74,1645111933.28125,P12,D12,1,1,1
890,0.69,1645111933.296875,P12,D12,1,1,1
891,0.57,1645111933.3125,P12,D12,1,1,1
892,0.38,1645111933.328125,P12,D12,1,1,1
893,0.18,1645111933.34375,P12,D12,1,1,1
894,-0.01,1645111933.359375,P12,D12,1,1,1
895,-0.15,1645111933.375,P12,D12,1,1,1
896,-0.23,1645111933.390625,P12,D12,1,1,1
897,-0.28,1645111933.40625,P12,D12,1,1,1
898,-0.33,1645111933.421875,P12,D12,1,1,1
899,-0.37,1645111933.4375,P12,D12,1,1,1
900,-0.4,1645111933.453125,P12,D12,1,1,1
901,-0.43,1645111933.46875,P12,D12,1,1,1
902,-0.49,1645111933.484375,P12,D12,1,1,1
903,-0.62,1645111933.5,P12,D12,1,1,1
904,-0.8,1645111933.515625,P12,D12,1,1,1
905,-1.01,1645111933.53125,P12,D12,1,1,1
906,-1.15,1645111933.546875,P12,D12,1,1,1
907,-1.13,1645111933.5625,P12,D12,1,1,1
908,-0.89,1645111933.578125,P12,D12,1,1,1
909,-0.49,1645111933.59375,P12,D12,1,1,1
910,-0.07,1645111933.609375,P12,D12,1,1,1
911,0.2,1645111933.625,P12,D12,1,1,1
912,0.25,1645111933.640625,P12,D12,1,1,1
913,0.08,1645111933.65625,P12,D12,1,1,1
914,-0.17,1645111933.671875,P12,D12,1,1,1
915,-0.37,1645111933.6875,P12,D12,1,1,1
916,-0.41,1645111933.703125,P12,D12,1,1,1
917,-0.3,1645111933.71875,P12,D12,1,1,1
918,-0.08,1645111933.734375,P12,D12,1,1,1
919,0.17,1645111933.75,P12,D12,1,1,1
920,0.43,1645111933.765625,P12,D12,1,1,1
921,0.65,1645111933.78125,P12,D12,1,1,1
922,0.8,1645111933.796875,P12,D12,1,1,1
923,0.83,1645111933.8125,P12,D12,1,1,1
924,0.7,1645111933.828125,P12,D12,1,1,1
925,0.43,1645111933.84375,P12,D12,1,1,1
926,0.08,1645111933.859375,P12,D12,1,1,1
927,-0.22,1645111933.875,P12,D12,1,1,1
928,-0.37,1645111933.890625,P12,D12,1,1,1
929,-0.32,1645111933.90625,P12,D12,1,1,1
930,-0.13,1645111933.921875,P12,D12,1,1,1
931,0.07,1645111933.9375,P12,D12,1,1,1
932,0.15,1645111933.953125,P12,D12,1,1,1
933,0.06,1645111933.96875,P12,D12,1,1,1
934,-0.18,1645111933.984375,P12,D12,1,1,1
935,-0.47,1645111934.0,P12,D12,1,1,1
936,-0.72,1645111934.015625,P12,D12,1,1,1
937,-0.87,1645111934.03125,P12,D12,1,1,1
938,-0.94,1645111934.046875,P12,D12,1,1,1
939,-0.98,1645111934.0625,P12,D12,1,1,1
940,-1.04,1645111934.078125,P12,D12,1,1,1
941,-1.1,1645111934.09375,P12,D12,1,1,1
942,-1.09,1645111934.109375,P12,D12,1,1,1
943,-0.94,1645111934.125,P12,D12,1,1,1
944,-0.62,1645111934.140625,P12,D12,1,1,1
945,-0.2,1645111934.15625,P12,D12,1,1,1
946,0.18,1645111934.171875,P12,D12,1,1,1
947,0.4,1645111934.1875,P12,D12,1,1,1
948,0.41,1645111934.203125,P12,D12,1,1,1
949,0.28,1645111934.21875,P12,D12,1,1,1
950,0.15,1645111934.234375,P12,D12,1,1,1
951,0.11,1645111934.25,P12,D12,1,1,1
952,0.21,1645111934.265625,P12,D12,1,1,1
953,0.39,1645111934.28125,P12,D12,1,1,1
954,0.56,1645111934.296875,P12,D12,1,1,1
955,0.66,1645111934.3125,P12,D12,1,1,1
956,0.71,1645111934.328125,P12,D12,1,1,1
957,0.74,1645111934.34375,P12,D12,1,1,1
958,0.76,1645111934.359375,P12,D12,1,1,1
959,0.75,1645111934.375,P12,D12,1,1,1
960,0.7,1645111934.390625,P12,D12,1,1,1
961,0.6,1645111934.40625,P12,D12,1,1,1
962,0.5,1645111934.421875,P12,D12,1,1,1
963,0.46,1645111934.4375,P12,D12,1,1,1
964,0.48,1645111934.453125,P12,D12,1,1,1
965,0.54,1645111934.46875,P12,D12,1,1,1
966,0.52,1645111934.484375,P12,D12,1,1,1
967,0.35,1645111934.5,P12,D12,1,1,1
968,0.02,1645111934.515625,P12,D12,1,1,1
969,-0.41,1645111934.53125,P12,D12,1,1,1
970,-0.82,1645111934.546875,P12,D12,1,1,1
971,-1.13,1645111934.5625,P12,D12,1,1,1
972,-1.29,1645111934.578125,P12,D12,1,1,1
973,-1.28,1645111934.59375,P12,D12,1,1,1
974,-1.11,1645111934.609375,P12,D12,1,1,1
975,-0.81,1645111934.625,P12,D12,1,1,1
976,-0.43,1645111934.640625,P12,D12,1,1,1
977,-0.03,1645111934.65625,P12,D12,1,1,1
978,0.29,1645111934.671875,P12,D12,1,1,1
979,0.48,1645111934.6875,P12,D12,1,1,1
980,0.51,1645111934.703125,P12,D12,1,1,1
981,0.42,1645111934.71875,P12,D12,1,1,1
982,0.31,1645111934.734375,P12,D12,1,1,1
983,0.27,1645111934.75,P12,D12,1,1,1
984,0.33,1645111934.765625,P12,D12,1,1,1
985,0.45,1645111934.78125,P12,D12,1,1,1
986,0.58,1645111934.796875,P12,D12,1,1,1
987,0.63,1645111934.8125,P12,D12,1,1,1
988,0.59,1645111934.828125,P12,D12,1,1,1
989,0.44,1645111934.84375,P12,D12,1,1,1
990,0.21,1645111934.859375,P12,D12,1,1,1
991,-0.07,1645111934.875,P12,D12,1,1,1
992,-0.36,1645111934.890625,P12,D12,1,1,1
993,-0.62,1645111934.90625,P12,D12,1,1,1
994,-0.81,1645111934.921875,P12,D12,1,1,1
995,-0.92,1645111934.9375,P12,D12,1,1,1
996,-0.95,1645111934.953125,P12,D12,1,1,1
997,-0.92,1645111934.96875,P12,D12,1,1,1
998,-0.88,1645111934.984375,P12,D12,1,1,1
999,-0.85,1645111935.0,P12,D12,1,1,1
1000,-0.83,1645111935.015625,P12,D12,1,1,1
1001,-0.79,1645111935.03125,P12,D12,1,1,1
1002,-0.71,1645111935.046875,P12,D12,1,1,1
1003,-0.56,1645111935.0625,P12,D12,1,1,1
1004,-0.36,1645111935.078125,P12,D12,1,1,1
1005,-0.1,1645111935.09375,P12,D12,1,1,1
1006,0.17,1645111935.109375,P12,D12,1,1,1
1007,0.41,1645111935.125,P12,D12,1,1,1
1008,0.6,1645111935.140625,P12,D12,1,1,1
1009,0.72,1645111935.15625,P12,D12,1,1,1
1010,0.76,1645111935.171875,P12,D12,1,1,1
1011,0.74,1645111935.1875,P12,D12,1,1,1
1012,0.69,1645111935.203125,P12,D12,1,1,1
1013,0.68,1645111935.21875,P12,D12,1,1,1
1014,0.72,1645111935.234375,P12,D12,1,1,1
1015,0.81,1645111935.25,P12,D12,1,1,1
1016,0.9,1645111935.265625,P12,D12,1,1,1
1017,0.89,1645111935.28125,P12,D12,1,1,1
1018,0.73,1645111935.296875,P12,D12,1,1,1
1019,0.38,1645111935.3125,P12,D12,1,1,1
1020,-0.11,1645111935.328125,P12,D12,1,1,1
1021,-0.63,1645111935.34375,P12,D12,1,1,1
1022,-1.05,1645111935.359375,P12,D12,1,1,1
1023,-1.28,1645111935.375,P12,D12,1,1,1
1024,-1.25,1645111935.390625,P12,D12,1,1,1
1025,-1.0,1645111935.40625,P12,D12,1,1,1
1026,-0.58,1645111935.421875,P12,D12,1,1,1
1027,-0.07,1645111935.4375,P12,D12,1,1,1
1028,0.43,1645111935.453125,P12,D12,1,1,1
1029,0.84,1645111935.46875,P12,D12,1,1,1
1030,1.1,1645111935.484375,P12,D12,1,1,1
1031,1.15,1645111935.5,P12,D12,1,1,1
1032,1.0,1645111935.515625,P12,D12,1,1,1
1033,0.69,1645111935.53125,P12,D12,1,1,1
1034,0.33,1645111935.546875,P12,D12,1,1,1
1035,0.03,1645111935.5625,P12,D12,1,1,1
1036,-0.12,1645111935.578125,P12,D12,1,1,1
1037,-0.1,1645111935.59375,P12,D12,1,1,1
1038,0.05,1645111935.609375,P12,D12,1,1,1
1039,0.27,1645111935.625,P12,D12,1,1,1
1040,0.45,1645111935.640625,P12,D12,1,1,1
1041,0.54,1645111935.65625,P12,D12,1,1,1
1042,0.51,1645111935.671875,P12,D12,1,1,1
1043,0.38,1645111935.6875,P12,D12,1,1,1
1044,0.16,1645111935.703125,P12,D12,1,1,1
1045,-0.08,1645111935.71875,P12,D12,1,1,1
1046,-0.32,1645111935.734375,P12,D12,1,1,1
1047,-0.52,1645111935.75,P12,D12,1,1,1
1048,-0.65,1645111935.765625,P12,D12,1,1,1
1049,-0.7,1645111935.78125,P12,D12,1,1,1
1050,-0.69,1645111935.796875,P12,D12,1,1,1
1051,-0.63,1645111935.8125,P12,D12,1,1,1
1052,-0.54,1645111935.828125,P12,D12,1,1,1
1053,-0.43,1645111935.84375,P12,D12,1,1,1
1054,-0.32,1645111935.859375,P12,D12,1,1,1
1055,-0.22,1645111935.875,P12,D12,1,1,1
1056,-0.14,1645111935.890625,P12,D12,1,1,1
1057,-0.07,1645111935.90625,P12,D12,1,1,1
1058,-0.04,1645111935.921875,P12,D12,1,1,1
1059,-0.05,1645111935.9375,P12,D12,1,1,1
1060,-0.1,1645111935.953125,P12,D12,1,1,1
1061,-0.19,1645111935.96875,P12,D12,1,1,1
1062,-0.29,1645111935.984375,P12,D12,1,1,1
1063,-0.36,1645111936.0,P12,D12,1,1,1
1064,-0.35,1645111936.015625,P12,D12,1,1,1
1065,-0.27,1645111936.03125,P12,D12,1,1,1
1066,-0.15,1645111936.046875,P12,D12,1,1,1
1067,-0.05,1645111936.0625,P12,D12,1,1,1
1068,-0.01,1645111936.078125,P12,D12,1,1,1
1069,-0.07,1645111936.09375,P12,D12,1,1,1
1070,-0.19,1645111936.109375,P12,D12,1,1,1
1071,-0.32,1645111936.125,P12,D12,1,1,1
1072,-0.44,1645111936.140625,P12,D12,1,1,1
1073,-0.52,1645111936.15625,P12,D12,1,1,1
1074,-0.54,1645111936.171875,P12,D12,1,1,1
1075,-0.48,1645111936.1875,P12,D12,1,1,1
1076,-0.34,1645111936.203125,P12,D12,1,1,1
1077,-0.08,1645111936.21875,P12,D12,1,1,1
1078,0.24,1645111936.234375,P12,D12,1,1,1
1079,0.55,1645111936.25,P12,D12,1,1,1
1080,0.78,1645111936.265625,P12,D12,1,1,1
1081,0.86,1645111936.28125,P12,D12,1,1,1
1082,0.82,1645111936.296875,P12,D12,1,1,1
1083,0.76,1645111936.3125,P12,D12,1,1,1
1084,0.75,1645111936.328125,P12,D12,1,1,1
1085,0.83,1645111936.34375,P12,D12,1,1,1
1086,0.96,1645111936.359375,P12,D12,1,1,1
1087,1.05,1645111936.375,P12,D12,1,1,1
1088,1.04,1645111936.390625,P12,D12,1,1,1
1089,0.9,1645111936.40625,P12,D12,1,1,1
1090,0.64,1645111936.421875,P12,D12,1,1,1
1091,0.3,1645111936.4375,P12,D12,1,1,1
1092,-0.07,1645111936.453125,P12,D12,1,1,1
1093,-0.4,1645111936.46875,P12,D12,1,1,1
1094,-0.6,1645111936.484375,P12,D12,1,1,1
1095,-0.61,1645111936.5,P12,D12,1,1,1
1096,-0.43,1645111936.515625,P12,D12,1,1,1
1097,-0.12,1645111936.53125,P12,D12,1,1,1
1098,0.18,1645111936.546875,P12,D12,1,1,1
1099,0.35,1645111936.5625,P12,D12,1,1,1
1100,0.33,1645111936.578125,P12,D12,1,1,1
1101,0.15,1645111936.59375,P12,D12,1,1,1
1102,-0.07,1645111936.609375,P12,D12,1,1,1
1103,-0.23,1645111936.625,P12,D12,1,1,1
1104,-0.32,1645111936.640625,P12,D12,1,1,1
1105,-0.38,1645111936.65625,P12,D12,1,1,1
1106,-0.49,1645111936.671875,P12,D12,1,1,1
1107,-0.63,1645111936.6875,P12,D12,1,1,1
1108,-0.75,1645111936.703125,P12,D12,1,1,1
1109,-0.75,1645111936.71875,P12,D12,1,1,1
1110,-0.59,1645111936.734375,P12,D12,1,1,1
1111,-0.31,1645111936.75,P12,D12,1,1,1
1112,-0.01,1645111936.765625,P12,D12,1,1,1
1113,0.19,1645111936.78125,P12,D12,1,1,1
1114,0.24,1645111936.796875,P12,D12,1,1,1
1115,0.15,1645111936.8125,P12,D12,1,1,1
1116,0.04,1645111936.828125,P12,D12,1,1,1
1117,0.05,1645111936.84375,P12,D12,1,1,1
1118,0.23,1645111936.859375,P12,D12,1,1,1
1119,0.59,1645111936.875,P12,D12,1,1,1
1120,1.02,1645111936.890625,P12,D12,1,1,1
1121,1.37,1645111936.90625,P12,D12,1,1,1
1122,1.5,1645111936.921875,P12,D12,1,1,1
1123,1.37,1645111936.9375,P12,D12,1,1,1
1124,1.08,1645111936.953125,P12,D12,1,1,1
1125,0.74,1645111936.96875,P12,D12,1,1,1
1126,0.47,1645111936.984375,P12,D12,1,1,1
1127,0.3,1645111937.0,P12,D12,1,1,1
1128,0.18,1645111937.015625,P12,D12,1,1,1
1129,-0.01,1645111937.03125,P12,D12,1,1,1
1130,-0.33,1645111937.046875,P12,D12,1,1,1
1131,-0.77,1645111937.0625,P12,D12,1,1,1
1132,-1.23,1645111937.078125,P12,D12,1,1,1
1133,-1.55,1645111937.09375,P12,D12,1,1,1
1134,-1.61,1645111937.109375,P12,D12,1,1,1
1135,-1.36,1645111937.125,P12,D12,1,1,1
1136,-0.86,1645111937.140625,P12,D12,1,1,1
1137,-0.26,1645111937.15625,P12,D12,1,1,1
1138,0.26,1645111937.171875,P12,D12,1,1,1
1139,0.53,1645111937.1875,P12,D12,1,1,1
1140,0.48,1645111937.203125,P12,D12,1,1,1
1141,0.17,1645111937.21875,P12,D12,1,1,1
1142,-0.25,1645111937.234375,P12,D12,1,1,1
1143,-0.58,1645111937.25,P12,D12,1,1,1
1144,-0.66,1645111937.265625,P12,D12,1,1,1
1145,-0.45,1645111937.28125,P12,D12,1,1,1
1146,-0.05,1645111937.296875,P12,D12,1,1,1
1147,0.33,1645111937.3125,P12,D12,1,1,1
1148,0.52,1645111937.328125,P12,D12,1,1,1
1149,0.43,1645111937.34375,P12,D12,1,1,1
1150,0.08,1645111937.359375,P12,D12,1,1,1
1151,-0.38,1645111937.375,P12,D12,1,1,1
1152,-0.79,1645111937.390625,P12,D12,1,1,1
1153,-1.01,1645111937.40625,P12,D12,1,1,1
1154,-0.97,1645111937.421875,P12,D12,1,1,1
1155,-0.71,1645111937.4375,P12,D12,1,1,1
1156,-0.31,1645111937.453125,P12,D12,1,1,1
1157,0.09,1645111937.46875,P12,D12,1,1,1
1158,0.36,1645111937.484375,P12,D12,1,1,1
1159,0.44,1645111937.5,P12,D12,1,1,1
1160,0.36,1645111937.515625,P12,D12,1,1,1
1161,0.22,1645111937.53125,P12,D12,1,1,1
1162,0.15,1645111937.546875,P12,D12,1,1,1
1163,0.24,1645111937.5625,P12,D12,1,1,1
1164,0.45,1645111937.578125,P12,D12,1,1,1
1165,0.68,1645111937.59375,P12,D12,1,1,1
1166,0.81,1645111937.609375,P12,D12,1,1,1
1167,0.77,1645111937.625,P12,D12,1,1,1
1168,0.58,1645111937.640625,P12,D12,1,1,1
1169,0.34,1645111937.65625,P12,D12,1,1,1
1170,0.14,1645111937.671875,P12,D12,1,1,1
1171,0.02,1645111937.6875,P12,D12,1,1,1
1172,-0.03,1645111937.703125,P12,D12,1,1,1
1173,-0.08,1645111937.71875,P12,D12,1,1,1
1174,-0.18,1645111937.734375,P12,D12,1,1,1
1175,-0.29,1645111937.75,P12,D12,1,1,1
1176,-0.35,1645111937.765625,P12,D12,1,1,1
1177,-0.24,1645111937.78125,P12,D12,1,1,1
1178,0.07,1645111937.796875,P12,D12,1,1,1
1179,0.54,1645111937.8125,P12,D12,1,1,1
1180,1.05,1645111937.828125,P12,D12,1,1,1
1181,1.42,1645111937.84375,P12,D12,1,1,1
1182,1.51,1645111937.859375,P12,D12,1,1,1
1183,1.31,1645111937.875,P12,D12,1,1,1
1184,0.88,1645111937.890625,P12,D12,1,1,1
1185,0.36,1645111937.90625,P12,D12,1,1,1
1186,-0.1,1645111937.921875,P12,D12,1,1,1
1187,-0.4,1645111937.9375,P12,D12,1,1,1
1188,-0.54,1645111937.953125,P12,D12,1,1,1
1189,-0.59,1645111937.96875,P12,D12,1,1,1
1190,-0.63,1645111937.984375,P12,D12,1,1,1
1191,-0.69,1645111938.0,P12,D12,1,1,1
1192,-0.73,1645111938.015625,P12,D12,1,1,1
1193,-0.68,1645111938.03125,P12,D12,1,1,1
1194,-0.51,1645111938.046875,P12,D12,1,1,1
1195,-0.23,1645111938.0625,P12,D12,1,1,1
1196,0.02,1645111938.078125,P12,D12,1,1,1
1197,0.07,1645111938.09375,P12,D12,1,1,1
1198,-0.16,1645111938.109375,P12,D12,1,1,1
1199,-0.65,1645111938.125,P12,D12,1,1,1
1200,-1.22,1645111938.140625,P12,D12,1,1,1
1201,-1.64,1645111938.15625,P12,D12,1,1,1
1202,-1.74,1645111938.171875,P12,D12,1,1,1
1203,-1.49,1645111938.1875,P12,D12,1,1,1
1204,-1.06,1645111938.203125,P12,D12,1,1,1
1205,-0.67,1645111938.21875,P12,D12,1,1,1
1206,-0.49,1645111938.234375,P12,D12,1,1,1
1207,-0.53,1645111938.25,P12,D12,1,1,1
1208,-0.67,1645111938.265625,P12,D12,1,1,1
1209,-0.73,1645111938.28125,P12,D12,1,1,1
1210,-0.6,1645111938.296875,P12,D12,1,1,1
1211,-0.29,1645111938.3125,P12,D12,1,1,1
1212,0.06,1645111938.328125,P12,D12,1,1,1
1213,0.3,1645111938.34375,P12,D12,1,1,1
1214,0.36,1645111938.359375,P12,D12,1,1,1
1215,0.3,1645111938.375,P12,D12,1,1,1
1216,0.22,1645111938.390625,P12,D12,1,1,1
1217,0.26,1645111938.40625,P12,D12,1,1,1
1218,0.42,1645111938.421875,P12,D12,1,1,1
1219,0.65,1645111938.4375,P12,D12,1,1,1
1220,0.81,1645111938.453125,P12,D12,1,1,1
1221,0.8,1645111938.46875,P12,D12,1,1,1
1222,0.64,1645111938.484375,P12,D12,1,1,1
1223,0.4,1645111938.5,P12,D12,1,1,1
1224,0.17,1645111938.515625,P12,D12,1,1,1
1225,0.03,1645111938.53125,P12,D12,1,1,1
1226,-0.03,1645111938.546875,P12,D12,1,1,1
1227,-0.08,1645111938.5625,P12,D12,1,1,1
1228,-0.14,1645111938.578125,P12,D12,1,1,1
1229,-0.21,1645111938.59375,P12,D12,1,1,1
1230,-0.23,1645111938.609375,P12,D12,1,1,1
1231,-0.17,1645111938.625,P12,D12,1,1,1
1232,-0.04,1645111938.640625,P12,D12,1,1,1
1233,0.06,1645111938.65625,P12,D12,1,1,1
1234,0.05,1645111938.671875,P12,D12,1,1,1
1235,-0.1,1645111938.6875,P12,D12,1,1,1
1236,-0.32,1645111938.703125,P12,D12,1,1,1
1237,-0.48,1645111938.71875,P12,D12,1,1,1
1238,-0.49,1645111938.734375,P12,D12,1,1,1
1239,-0.34,1645111938.75,P12,D12,1,1,1
1240,-0.12,1645111938.765625,P12,D12,1,1,1
1241,0.06,1645111938.78125,P12,D12,1,1,1
1242,0.12,1645111938.796875,P12,D12,1,1,1
1243,0.11,1645111938.8125,P12,D12,1,1,1
1244,0.08,1645111938.828125,P12,D12,1,1,1
1245,0.12,1645111938.84375,P12,D12,1,1,1
1246,0.21,1645111938.859375,P12,D12,1,1,1
1247,0.3,1645111938.875,P12,D12,1,1,1
1248,0.33,1645111938.890625,P12,D12,1,1,1
1249,0.25,1645111938.90625,P12,D12,1,1,1
1250,0.11,1645111938.921875,P12,D12,1,1,1
1251,-0.0,1645111938.9375,P12,D12,1,1,1
1252,-0.02,1645111938.953125,P12,D12,1,1,1
1253,0.08,1645111938.96875,P12,D12,1,1,1
1254,0.22,1645111938.984375,P12,D12,1,1,1
1255,0.33,1645111939.0,P12,D12,1,1,1
1256,0.34,1645111939.015625,P12,D12,1,1,1
1257,0.26,1645111939.03125,P12,D12,1,1,1
1258,0.15,1645111939.046875,P12,D12,1,1,1
1259,0.09,1645111939.0625,P12,D12,1,1,1
1260,0.14,1645111939.078125,P12,D12,1,1,1
1261,0.27,1645111939.09375,P12,D12,1,1,1
1262,0.42,1645111939.109375,P12,D12,1,1,1
1263,0.55,1645111939.125,P12,D12,1,1,1
1264,0.64,1645111939.140625,P12,D12,1,1,1
1265,0.71,1645111939.15625,P12,D12,1,1,1
1266,0.82,1645111939.171875,P12,D12,1,1,1
1267,0.92,1645111939.1875,P12,D12,1,1,1
1268,0.94,1645111939.203125,P12,D12,1,1,1
1269,0.78,1645111939.21875,P12,D12,1,1,1
1270,0.37,1645111939.234375,P12,D12,1,1,1
1271,-0.22,1645111939.25,P12,D12,1,1,1
1272,-0.84,1645111939.265625,P12,D12,1,1,1
1273,-1.29,1645111939.28125,P12,D12,1,1,1
1274,-1.43,1645111939.296875,P12,D12,1,1,1
1275,-1.27,1645111939.3125,P12,D12,1,1,1
1276,-0.97,1645111939.328125,P12,D12,1,1,1
1277,-0.7,1645111939.34375,P12,D12,1,1,1
1278,-0.6,1645111939.359375,P12,D12,1,1,1
1279,-0.68,1645111939.375,P12,D12,1,1,1
1280,-0.77,1645111939.390625,P12,D12,1,1,1
1281,-0.71,1645111939.40625,P12,D12,1,1,1
1282,-0.38,1645111939.421875,P12,D12,1,1,1
1283,0.18,1645111939.4375,P12,D12,1,1,1
1284,0.8,1645111939.453125,P12,D12,1,1,1
1285,1.24,1645111939.46875,P12,D12,1,1,1
1286,1.37,1645111939.484375,P12,D12,1,1,1
1287,1.15,1645111939.5,P12,D12,1,1,1
1288,0.73,1645111939.515625,P12,D12,1,1,1
1289,0.3,1645111939.53125,P12,D12,1,1,1
1290,0.03,1645111939.546875,P12,D12,1,1,1
1291,-0.02,1645111939.5625,P12,D12,1,1,1
1292,0.06,1645111939.578125,P12,D12,1,1,1
1293,0.17,1645111939.59375,P12,D12,1,1,1
1294,0.19,1645111939.609375,P12,D12,1,1,1
1295,0.09,1645111939.625,P12,D12,1,1,1
1296,-0.12,1645111939.640625,P12,D12,1,1,1
1297,-0.37,1645111939.65625,P12,D12,1,1,1
1298,-0.59,1645111939.671875,P12,D12,1,1,1
1299,-0.74,1645111939.6875,P12,D12,1,1,1
1300,-0.82,1645111939.703125,P12,D12,1,1,1
1301,-0.85,1645111939.71875,P12,D12,1,1,1
1302,-0.81,1645111939.734375,P12,D12,1,1,1
1303,-0.72,1645111939.75,P12,D12,1,1,1
1304,-0.55,1645111939.765625,P12,D12,1,1,1
1305,-0.3,1645111939.78125,P12,D12,1,1,1
1306,0.03,1645111939.796875,P12,D12,1,1,1
1307,0.39,1645111939.8125,P12,D12,1,1,1
1308,0.72,1645111939.828125,P12,D12,1,1,1
1309,0.95,1645111939.84375,P12,D12,1,1,1
1310,1.03,1645111939.859375,P12,D12,1,1,1
1311,0.93,1645111939.875,P12,D12,1,1,1
1312,0.72,1645111939.890625,P12,D12,1,1,1
1313,0.5,1645111939.90625,P12,D12,1,1,1
1314,0.37,1645111939.921875,P12,D12,1,1,1
1315,0.37,1645111939.9375,P12,D12,1,1,1
1316,0.43,1645111939.953125,P12,D12,1,1,1
1317,0.43,1645111939.96875,P12,D12,1,1,1
1318,0.28,1645111939.984375,P12,D12,1,1,1
1319,-0.02,1645111940.0,P12,D12,1,1,1
1320,-0.38,1645111940.015625,P12,D12,1,1,1
1321,-0.67,1645111940.03125,P12,D12,1,1,1
1322,-0.81,1645111940.046875,P12,D12,1,1,1
1323,-0.82,1645111940.0625,P12,D12,1,1,1
1324,-0.77,1645111940.078125,P12,D12,1,1,1
1325,-0.71,1645111940.09375,P12,D12,1,1,1
1326,-0.65,1645111940.109375,P12,D12,1,1,1
1327,-0.52,1645111940.125,P12,D12,1,1,1
1328,-0.29,1645111940.140625,P12,D12,1,1,1
1329,0.05,1645111940.15625,P12,D12,1,1,1
1330,0.41,1645111940.171875,P12,D12,1,1,1
1331,0.69,1645111940.1875,P12,D12,1,1,1
1332,0.8,1645111940.203125,P12,D12,1,1,1
1333,0.77,1645111940.21875,P12,D12,1,1,1
1334,0.66,1645111940.234375,P12,D12,1,1,1
1335,0.55,1645111940.25,P12,D12,1,1,1
1336,0.48,1645111940.265625,P12,D12,1,1,1
1337,0.41,1645111940.28125,P12,D12,1,1,1
1338,0.28,1645111940.296875,P12,D12,1,1,1
1339,0.05,1645111940.3125,P12,D12,1,1,1
1340,-0.23,1645111940.328125,P12,D12,1,1,1
1341,-0.51,1645111940.34375,P12,D12,1,1,1
1342,-0.7,1645111940.359375,P12,D12,1,1,1
1343,-0.73,1645111940.375,P12,D12,1,1,1
1344,-0.61,1645111940.390625,P12,D12,1,1,1
1345,-0.4,1645111940.40625,P12,D12,1,1,1
1346,-0.16,1645111940.421875,P12,D12,1,1,1
1347,0.04,1645111940.4375,P12,D12,1,1,1
1348,0.18,1645111940.453125,P12,D12,1,1,1
1349,0.28,1645111940.46875,P12,D12,1,1,1
1350,0.39,1645111940.484375,P12,D12,1,1,1
1351,0.48,1645111940.5,P12,D12,1,1,1
1352,0.51,1645111940.515625,P12,D12,1,1,1
1353,0.43,1645111940.53125,P12,D12,1,1,1
1354,0.22,1645111940.546875,P12,D12,1,1,1
1355,-0.1,1645111940.5625,P12,D12,1,1,1
1356,-0.42,1645111940.578125,P12,D12,1,1,1
1357,-0.66,1645111940.59375,P12,D12,1,1,1
1358,-0.74,1645111940.609375,P12,D12,1,1,1
1359,-0.68,1645111940.625,P12,D12,1,1,1
1360,-0.52,1645111940.640625,P12,D12,1,1,1
1361,-0.31,1645111940.65625,P12,D12,1,1,1
1362,-0.1,1645111940.671875,P12,D12,1,1,1
1363,0.12,1645111940.6875,P12,D12,1,1,1
1364,0.33,1645111940.703125,P12,D12,1,1,1
1365,0.45,1645111940.71875,P12,D12,1,1,1
1366,0.42,1645111940.734375,P12,D12,1,1,1
1367,0.22,1645111940.75,P12,D12,1,1,1
1368,-0.1,1645111940.765625,P12,D12,1,1,1
1369,-0.37,1645111940.78125,P12,D12,1,1,1
1370,-0.44,1645111940.796875,P12,D12,1,1,1
1371,-0.24,1645111940.8125,P12,D12,1,1,1
1372,0.18,1645111940.828125,P12,D12,1,1,1
1373,0.61,1645111940.84375,P12,D12,1,1,1
1374,0.88,1645111940.859375,P12,D12,1,1,1
1375,0.88,1645111940.875,P12,D12,1,1,1
1376,0.64,1645111940.890625,P12,D12,1,1,1
1377,0.32,1645111940.90625,P12,D12,1,1,1
1378,0.05,1645111940.921875,P12,D12,1,1,1
1379,-0.1,1645111940.9375,P12,D12,1,1,1
1380,-0.13,1645111940.953125,P12,D12,1,1,1
1381,-0.07,1645111940.96875,P12,D12,1,1,1
1382,0.05,1645111940.984375,P12,D12,1,1,1
1383,0.27,1645111941.0,P12,D12,1,1,1
1384,0.57,1645111941.015625,P12,D12,1,1,1
1385,0.9,1645111941.03125,P12,D12,1,1,1
1386,1.15,1645111941.046875,P12,D12,1,1,1
1387,1.18,1645111941.0625,P12,D12,1,1,1
1388,0.94,1645111941.078125,P12,D12,1,1,1
1389,0.49,1645111941.09375,P12,D12,1,1,1
1390,-0.02,1645111941.109375,P12,D12,1,1,1
1391,-0.43,1645111941.125,P12,D12,1,1,1
1392,-0.66,1645111941.140625,P12,D12,1,1,1
1393,-0.68,1645111941.15625,P12,D12,1,1,1
1394,-0.55,1645111941.171875,P12,D12,1,1,1
1395,-0.35,1645111941.1875,P12,D12,1,1,1
1396,-0.11,1645111941.203125,P12,D12,1,1,1
1397,0.16,1645111941.21875,P12,D12,1,1,1
1398,0.41,1645111941.234375,P12,D12,1,1,1
1399,0.58,1645111941.25,P12,D12,1,1,1
1400,0.59,1645111941.265625,P12,D12,1,1,1
1401,0.42,1645111941.28125,P12,D12,1,1,1
1402,0.09,1645111941.296875,P12,D12,1,1,1
1403,-0.27,1645111941.3125,P12,D12,1,1,1
1404,-0.56,1645111941.328125,P12,D12,1,1,1
1405,-0.71,1645111941.34375,P12,D12,1,1,1
1406,-0.77,1645111941.359375,P12,D12,1,1,1
1407,-0.79,1645111941.375,P12,D12,1,1,1
1408,-0.8,1645111941.390625,P12,D12,1,1,1
1409,-0.77,1645111941.40625,P12,D12,1,1,1
1410,-0.63,1645111941.421875,P12,D12,1,1,1
1411,-0.36,1645111941.4375,P12,D12,1,1,1
1412,0.02,1645111941.453125,P12,D12,1,1,1
1413,0.37,1645111941.46875,P12,D12,1,1,1
1414,0.6,1645111941.484375,P12,D12,1,1,1
1415,0.64,1645111941.5,P12,D12,1,1,1
1416,0.52,1645111941.515625,P12,D12,1,1,1
1417,0.32,1645111941.53125,P12,D12,1,1,1
1418,0.12,1645111941.546875,P12,D12,1,1,1
1419,-0.04,1645111941.5625,P12,D12,1,1,1
1420,-0.14,1645111941.578125,P12,D12,1,1,1
1421,-0.21,1645111941.59375,P12,D12,1,1,1
1422,-0.24,1645111941.609375,P12,D12,1,1,1
1423,-0.25,1645111941.625,P12,D12,1,1,1
1424,-0.27,1645111941.640625,P12,D12,1,1,1
1425,-0.32,1645111941.65625,P12,D12,1,1,1
1426,-0.41,1645111941.671875,P12,D12,1,1,1
1427,-0.51,1645111941.6875,P12,D12,1,1,1
1428,-0.58,1645111941.703125,P12,D12,1,1,1
1429,-0.57,1645111941.71875,P12,D12,1,1,1
1430,-0.48,1645111941.734375,P12,D12,1,1,1
1431,-0.37,1645111941.75,P12,D12,1,1,1
1432,-0.33,1645111941.765625,P12,D12,1,1,1
1433,-0.37,1645111941.78125,P12,D12,1,1,1
1434,-0.47,1645111941.796875,P12,D12,1,1,1
1435,-0.53,1645111941.8125,P12,D12,1,1,1
1436,-0.47,1645111941.828125,P12,D12,1,1,1
1437,-0.27,1645111941.84375,P12,D12,1,1,1
1438,0.06,1645111941.859375,P12,D12,1,1,1
1439,0.4,1645111941.875,P12,D12,1,1,1
1440,0.67,1645111941.890625,P12,D12,1,1,1
1441,0.82,1645111941.90625,P12,D12,1,1,1
1442,0.8,1645111941.921875,P12,D12,1,1,1
1443,0.66,1645111941.9375,P12,D12,1,1,1
1444,0.44,1645111941.953125,P12,D12,1,1,1
1445,0.19,1645111941.96875,P12,D12,1,1,1
1446,-0.0,1645111941.984375,P12,D12,1,1,1
1447,-0.1,1645111942.0,P12,D12,1,1,1
1448,-0.13,1645111942.015625,P12,D12,1,1,1
1449,-0.13,1645111942.03125,P12,D12,1,1,1
1450,-0.19,1645111942.046875,P12,D12,1,1,1
1451,-0.37,1645111942.0625,P12,D12,1,1,1
1452,-0.64,1645111942.078125,P12,D12,1,1,1
1453,-0.91,1645111942.09375,P12,D12,1,1,1
1454,-1.05,1645111942.109375,P12,D12,1,1,1
1455,-1.0,1645111942.125,P12,D12,1,1,1
1456,-0.78,1645111942.140625,P12,D12,1,1,1
1457,-0.5,1645111942.15625,P12,D12,1,1,1
1458,-0.26,1645111942.171875,P12,D12,1,1,1
1459,-0.09,1645111942.1875,P12,D12,1,1,1
1460,0.05,1645111942.203125,P12,D12,1,1,1
1461,0.25,1645111942.21875,P12,D12,1,1,1
1462,0.54,1645111942.234375,P12,D12,1,1,1
1463,0.84,1645111942.25,P12,D12,1,1,1
1464,1.04,1645111942.265625,P12,D12,1,1,1
1465,1.01,1645111942.28125,P12,D12,1,1,1
1466,0.76,1645111942.296875,P12,D12,1,1,1
1467,0.41,1645111942.3125,P12,D12,1,1,1
1468,0.12,1645111942.328125,P12,D12,1,1,1
1469,-0.03,1645111942.34375,P12,D12,1,1,1
1470,-0.03,1645111942.359375,P12,D12,1,1,1
1471,-0.02,1645111942.375,P12,D12,1,1,1
1472,-0.11,1645111942.390625,P12,D12,1,1,1
1473,-0.34,1645111942.40625,P12,D12,1,1,1
1474,-0.67,1645111942.421875,P12,D12,1,1,1
1475,-0.95,1645111942.4375,P12,D12,1,1,1
1476,-1.08,1645111942.453125,P12,D12,1,1,1
1477,-1.04,1645111942.46875,P12,D12,1,1,1
1478,-0.88,1645111942.484375,P12,D12,1,1,1
1479,-0.69,1645111942.5,P12,D12,1,1,1
1480,-0.52,1645111942.515625,P12,D12,1,1,1
1481,-0.39,1645111942.53125,P12,D12,1,1,1
1482,-0.29,1645111942.546875,P12,D12,1,1,1
1483,-0.15,1645111942.5625,P12,D12,1,1,1
1484,0.03,1645111942.578125,P12,D12,1,1,1
1485,0.27,1645111942.59375,P12,D12,1,1,1
1486,0.54,1645111942.609375,P12,D12,1,1,1
1487,0.8,1645111942.625,P12,D12,1,1,1
1488,0.99,1645111942.640625,P12,D12,1,1,1
1489,1.05,1645111942.65625,P12,D12,1,1,1
1490,0.98,1645111942.671875,P12,D12,1,1,1
1491,0.8,1645111942.6875,P12,D12,1,1,1
1492,0.56,1645111942.703125,P12,D12,1,1,1
1493,0.33,1645111942.71875,P12,D12,1,1,1
1494,0.14,1645111942.734375,P12,D12,1,1,1
1495,-0.01,1645111942.75,P12,D12,1,1,1
1496,-0.14,1645111942.765625,P12,D12,1,1,1
1497,-0.23,1645111942.78125,P12,D12,1,1,1
1498,-0.22,1645111942.796875,P12,D12,1,1,1
1499,-0.04,1645111942.8125,P12,D12,1,1,1
1500,0.32,1645111942.828125,P12,D12,1,1,1
1501,0.78,1645111942.84375,P12,D12,1,1,1
1502,1.16,1645111942.859375,P12,D12,1,1,1
1503,1.32,1645111942.875,P12,D12,1,1,1
1504,1.18,1645111942.890625,P12,D12,1,1,1
1505,0.81,1645111942.90625,P12,D12,1,1,1
1506,0.37,1645111942.921875,P12,D12,1,1,1
1507,-0.0,1645111942.9375,P12,D12,1,1,1
1508,-0.21,1645111942.953125,P12,D12,1,1,1
1509,-0.27,1645111942.96875,P12,D12,1,1,1
1510,-0.26,1645111942.984375,P12,D12,1,1,1
1511,-0.27,1645111943.0,P12,D12,1,1,1
1512,-0.34,1645111943.015625,P12,D12,1,1,1
1513,-0.46,1645111943.03125,P12,D12,1,1,1
1514,-0.6,1645111943.046875,P12,D12,1,1,1
1515,-0.72,1645111943.0625,P12,D12,1,1,1
1516,-0.77,1645111943.078125,P12,D12,1,1,1
1517,-0.73,1645111943.09375,P12,D12,1,1,1
1518,-0.6,1645111943.109375,P12,D12,1,1,1
1519,-0.41,1645111943.125,P12,D12,1,1,1
1520,-0.23,1645111943.140625,P12,D12,1,1,1
1521,-0.14,1645111943.15625,P12,D12,1,1,1
1522,-0.17,1645111943.171875,P12,D12,1,1,1
1523,-0.28,1645111943.1875,P12,D12,1,1,1
1524,-0.43,1645111943.203125,P12,D12,1,1,1
1525,-0.55,1645111943.21875,P12,D12,1,1,1
1526,-0.58,1645111943.234375,P12,D12,1,1,1
1527,-0.52,1645111943.25,P12,D12,1,1,1
1528,-0.38,1645111943.265625,P12,D12,1,1,1
1529,-0.17,1645111943.28125,P12,D12,1,1,1
1530,0.09,1645111943.296875,P12,D12,1,1,1
1531,0.36,1645111943.3125,P12,D12,1,1,1
1532,0.57,1645111943.328125,P12,D12,1,1,1
1533,0.62,1645111943.34375,P12,D12,1,1,1
1534,0.5,1645111943.359375,P12,D12,1,1,1
1535,0.25,1645111943.375,P12,D12,1,1,1
1536,-0.03,1645111943.390625,P12,D12,1,1,1
1537,-0.24,1645111943.40625,P12,D12,1,1,1
1538,-0.32,1645111943.421875,P12,D12,1,1,1
1539,-0.31,1645111943.4375,P12,D12,1,1,1
1540,-0.23,1645111943.453125,P12,D12,1,1,1
1541,-0.14,1645111943.46875,P12,D12,1,1,1
1542,-0.05,1645111943.484375,P12,D12,1,1,1
1543,0.08,1645111943.5,P12,D12,1,1,1
1544,0.28,1645111943.515625,P12,D12,1,1,1
1545,0.53,1645111943.53125,P12,D12,1,1,1
1546,0.76,1645111943.546875,P12,D12,1,1,1
1547,0.9,1645111943.5625,P12,D12,1,1,1
1548,0.88,1645111943.578125,P12,D12,1,1,1
1549,0.74,1645111943.59375,P12,D12,1,1,1
1550,0.56,1645111943.609375,P12,D12,1,1,1
1551,0.45,1645111943.625,P12,D12,1,1,1
1552,0.45,1645111943.640625,P12,D12,1,1,1
1553,0.52,1645111943.65625,P12,D12,1,1,1
1554,0.53,1645111943.671875,P12,D12,1,1,1
1555,0.4,1645111943.6875,P12,D12,1,1,1
1556,0.1,1645111943.703125,P12,D12,1,1,1
1557,-0.27,1645111943.71875,P12,D12,1,1,1
1558,-0.55,1645111943.734375,P12,D12,1,1,1
1559,-0.6,1645111943.75,P12,D12,1,1,1
1560,-0.41,1645111943.765625,P12,D12,1,1,1
1561,-0.07,1645111943.78125,P12,D12,1,1,1
1562,0.23,1645111943.796875,P12,D12,1,1,1
1563,0.35,1645111943.8125,P12,D12,1,1,1
1564,0.27,1645111943.828125,P12,D12,1,1,1
1565,0.08,1645111943.84375,P12,D12,1,1,1
1566,-0.09,1645111943.859375,P12,D12,1,1,1
1567,-0.15,1645111943.875,P12,D12,1,1,1
1568,-0.11,1645111943.890625,P12,D12,1,1,1
1569,-0.06,1645111943.90625,P12,D12,1,1,1
1570,-0.04,1645111943.921875,P12,D12,1,1,1
1571,-0.09,1645111943.9375,P12,D12,1,1,1
1572,-0.14,1645111943.953125,P12,D12,1,1,1
1573,-0.11,1645111943.96875,P12,D12,1,1,1
1574,0.01,1645111943.984375,P12,D12,1,1,1
1575,0.18,1645111944.0,P12,D12,1,1,1
1576,0.33,1645111944.015625,P12,D12,1,1,1
1577,0.39,1645111944.03125,P12,D12,1,1,1
1578,0.36,1645111944.046875,P12,D12,1,1,1
1579,0.29,1645111944.0625,P12,D12,1,1,1
1580,0.23,1645111944.078125,P12,D12,1,1,1
1581,0.22,1645111944.09375,P12,D12,1,1,1
1582,0.25,1645111944.109375,P12,D12,1,1,1
1583,0.26,1645111944.125,P12,D12,1,1,1
1584,0.23,1645111944.140625,P12,D12,1,1,1
1585,0.13,1645111944.15625,P12,D12,1,1,1
1586,0.01,1645111944.171875,P12,D12,1,1,1
1587,-0.11,1645111944.1875,P12,D12,1,1,1
1588,-0.17,1645111944.203125,P12,D12,1,1,1
1589,-0.18,1645111944.21875,P12,D12,1,1,1
1590,-0.15,1645111944.234375,P12,D12,1,1,1
1591,-0.13,1645111944.25,P12,D12,1,1,1
1592,-0.14,1645111944.265625,P12,D12,1,1,1
1593,-0.21,1645111944.28125,P12,D12,1,1,1
1594,-0.35,1645111944.296875,P12,D12,1,1,1
1595,-0.5,1645111944.3125,P12,D12,1,1,1
1596,-0.64,1645111944.328125,P12,D12,1,1,1
1597,-0.73,1645111944.34375,P12,D12,1,1,1
1598,-0.76,1645111944.359375,P12,D12,1,1,1
1599,-0.75,1645111944.375,P12,D12,1,1,1
1600,-0.74,1645111944.390625,P12,D12,1,1,1
1601,-0.72,1645111944.40625,P12,D12,1,1,1
1602,-0.71,1645111944.421875,P12,D12,1,1,1
1603,-0.68,1645111944.4375,P12,D12,1,1,1
1604,-0.63,1645111944.453125,P12,D12,1,1,1
1605,-0.55,1645111944.46875,P12,D12,1,1,1
1606,-0.45,1645111944.484375,P12,D12,1,1,1
1607,-0.32,1645111944.5,P12,D12,1,1,1
1608,-0.18,1645111944.515625,P12,D12,1,1,1
1609,-0.07,1645111944.53125,P12,D12,1,1,1
1610,-0.03,1645111944.546875,P12,D12,1,1,1
1611,-0.09,1645111944.5625,P12,D12,1,1,1
1612,-0.23,1645111944.578125,P12,D12,1,1,1
1613,-0.39,1645111944.59375,P12,D12,1,1,1
1614,-0.44,1645111944.609375,P12,D12,1,1,1
1615,-0.27,1645111944.625,P12,D12,1,1,1
1616,0.15,1645111944.640625,P12,D12,1,1,1
1617,0.75,1645111944.65625,P12,D12,1,1,1
1618,1.35,1645111944.671875,P12,D12,1,1,1
1619,1.75,1645111944.6875,P12,D12,1,1,1
1620,1.81,1645111944.703125,P12,D12,1,1,1
1621,1.54,1645111944.71875,P12,D12,1,1,1
1622,1.08,1645111944.734375,P12,D12,1,1,1
1623,0.6,1645111944.75,P12,D12,1,1,1
1624,0.26,1645111944.765625,P12,D12,1,1,1
1625,0.09,1645111944.78125,P12,D12,1,1,1
1626,0.02,1645111944.796875,P12,D12,1,1,1
1627,-0.06,1645111944.8125,P12,D12,1,1,1
1628,-0.23,1645111944.828125,P12,D12,1,1,1
1629,-0.48,1645111944.84375,P12,D12,1,1,1
1630,-0.69,1645111944.859375,P12,D12,1,1,1
1631,-0.74,1645111944.875,P12,D12,1,1,1
1632,-0.57,1645111944.890625,P12,D12,1,1,1
1633,-0.21,1645111944.90625,P12,D12,1,1,1
1634,0.2,1645111944.921875,P12,D12,1,1,1
1635,0.51,1645111944.9375,P12,D12,1,1,1
1636,0.59,1645111944.953125,P12,D12,1,1,1
1637,0.43,1645111944.96875,P12,D12,1,1,1
1638,0.13,1645111944.984375,P12,D12,1,1,1
1639,-0.16,1645111945.0,P12,D12,1,1,1
1640,-0.28,1645111945.015625,P12,D12,1,1,1
1641,-0.15,1645111945.03125,P12,D12,1,1,1
1642,0.17,1645111945.046875,P12,D12,1,1,1
1643,0.56,1645111945.0625,P12,D12,1,1,1
1644,0.85,1645111945.078125,P12,D12,1,1,1
1645,0.94,1645111945.09375,P12,D12,1,1,1
1646,0.81,1645111945.109375,P12,D12,1,1,1
1647,0.53,1645111945.125,P12,D12,1,1,1
1648,0.22,1645111945.140625,P12,D12,1,1,1
1649,-0.07,1645111945.15625,P12,D12,1,1,1
1650,-0.3,1645111945.171875,P12,D12,1,1,1
1651,-0.51,1645111945.1875,P12,D12,1,1,1
1652,-0.74,1645111945.203125,P12,D12,1,1,1
1653,-0.96,1645111945.21875,P12,D12,1,1,1
1654,-1.14,1645111945.234375,P12,D12,1,1,1
1655,-1.22,1645111945.25,P12,D12,1,1,1
1656,-1.19,1645111945.265625,P12,D12,1,1,1
1657,-1.1,1645111945.28125,P12,D12,1,1,1
1658,-1.03,1645111945.296875,P12,D12,1,1,1
1659,-1.03,1645111945.3125,P12,D12,1,1,1
1660,-1.07,1645111945.328125,P12,D12,1,1,1
1661,-1.07,1645111945.34375,P12,D12,1,1,1
1662,-0.95,1645111945.359375,P12,D12,1,1,1
1663,-0.65,1645111945.375,P12,D12,1,1,1
1664,-0.21,1645111945.390625,P12,D12,1,1,1
1665,0.26,1645111945.40625,P12,D12,1,1,1
1666,0.63,1645111945.421875,P12,D12,1,1,1
1667,0.83,1645111945.4375,P12,D12,1,1,1
1668,0.86,1645111945.453125,P12,D12,1,1,1
1669,0.81,1645111945.46875,P12,D12,1,1,1
1670,0.77,1645111945.484375,P12,D12,1,1,1
1671,0.82,1645111945.5,P12,D12,1,1,1
1672,0.96,1645111945.515625,P12,D12,1,1,1
1673,1.11,1645111945.53125,P12,D12,1,1,1
1674,1.19,1645111945.546875,P12,D12,1,1,1
1675,1.13,1645111945.5625,P12,D12,1,1,1
1676,0.92,1645111945.578125,P12,D12,1,1,1
1677,0.62,1645111945.59375,P12,D12,1,1,1
1678,0.33,1645111945.609375,P12,D12,1,1,1
1679,0.11,1645111945.625,P12,D12,1,1,1
1680,0.03,1645111945.640625,P12,D12,1,1,1
1681,0.05,1645111945.65625,P12,D12,1,1,1
1682,0.13,1645111945.671875,P12,D12,1,1,1
1683,0.18,1645111945.6875,P12,D12,1,1,1
1684,0.15,1645111945.703125,P12,D12,1,1,1
1685,0.04,1645111945.71875,P12,D12,1,1,1
1686,-0.15,1645111945.734375,P12,D12,1,1,1
1687,-0.37,1645111945.75,P12,D12,1,1,1
1688,-0.58,1645111945.765625,P12,D12,1,1,1
1689,-0.74,1645111945.78125,P12,D12,1,1,1
1690,-0.84,1645111945.796875,P12,D12,1,1,1
1691,-0.86,1645111945.8125,P12,D12,1,1,1
1692,-0.79,1645111945.828125,P12,D12,1,1,1
1693,-0.62,1645111945.84375,P12,D12,1,1,1
1694,-0.35,1645111945.859375,P12,D12,1,1,1
1695,0.02,1645111945.875,P12,D12,1,1,1
1696,0.38,1645111945.890625,P12,D12,1,1,1
1697,0.64,1645111945.90625,P12,D12,1,1,1
1698,0.69,1645111945.921875,P12,D12,1,1,1
1699,0.51,1645111945.9375,P12,D12,1,1,1
1700,0.2,1645111945.953125,P12,D12,1,1,1
1701,-0.06,1645111945.96875,P12,D12,1,1,1
1702,-0.11,1645111945.984375,P12,D12,1,1,1
1703,0.1,1645111946.0,P12,D12,1,1,1
1704,0.48,1645111946.015625,P12,D12,1,1,1
1705,0.84,1645111946.03125,P12,D12,1,1,1
1706,1.02,1645111946.046875,P12,D12,1,1,1
1707,0.94,1645111946.0625,P12,D12,1,1,1
1708,0.66,1645111946.078125,P12,D12,1,1,1
1709,0.3,1645111946.09375,P12,D12,1,1,1
1710,0.01,1645111946.109375,P12,D12,1,1,1
1711,-0.14,1645111946.125,P12,D12,1,1,1
1712,-0.12,1645111946.140625,P12,D12,1,1,1
1713,0.0,1645111946.15625,P12,D12,1,1,1
1714,0.16,1645111946.171875,P12,D12,1,1,1
1715,0.27,1645111946.1875,P12,D12,1,1,1
1716,0.28,1645111946.203125,P12,D12,1,1,1
1717,0.14,1645111946.21875,P12,D12,1,1,1
1718,-0.11,1645111946.234375,P12,D12,1,1,1
1719,-0.4,1645111946.25,P12,D12,1,1,1
1720,-0.66,1645111946.265625,P12,D12,1,1,1
1721,-0.82,1645111946.28125,P12,D12,1,1,1
1722,-0.85,1645111946.296875,P12,D12,1,1,1
1723,-0.79,1645111946.3125,P12,D12,1,1,1
1724,-0.71,1645111946.328125,P12,D12,1,1,1
1725,-0.67,1645111946.34375,P12,D12,1,1,1
1726,-0.68,1645111946.359375,P12,D12,1,1,1
1727,-0.73,1645111946.375,P12,D12,1,1,1
1728,-0.78,1645111946.390625,P12,D12,1,1,1
1729,-0.77,1645111946.40625,P12,D12,1,1,1
1730,-0.66,1645111946.421875,P12,D12,1,1,1
1731,-0.44,1645111946.4375,P12,D12,1,1,1
1732,-0.14,1645111946.453125,P12,D12,1,1,1
1733,0.19,1645111946.46875,P12,D12,1,1,1
1734,0.46,1645111946.484375,P12,D12,1,1,1
1735,0.61,1645111946.5,P12,D12,1,1,1
1736,0.61,1645111946.515625,P12,D12,1,1,1
1737,0.48,1645111946.53125,P12,D12,1,1,1
1738,0.23,1645111946.546875,P12,D12,1,1,1
1739,-0.09,1645111946.5625,P12,D12,1,1,1
1740,-0.42,1645111946.578125,P12,D12,1,1,1
1741,-0.7,1645111946.59375,P12,D12,1,1,1
1742,-0.84,1645111946.609375,P12,D12,1,1,1
1743,-0.81,1645111946.625,P12,D12,1,1,1
1744,-0.58,1645111946.640625,P12,D12,1,1,1
1745,-0.23,1645111946.65625,P12,D12,1,1,1
1746,0.15,1645111946.671875,P12,D12,1,1,1
1747,0.45,1645111946.6875,P12,D12,1,1,1
1748,0.59,1645111946.703125,P12,D12,1,1,1
1749,0.59,1645111946.71875,P12,D12,1,1,1
1750,0.48,1645111946.734375,P12,D12,1,1,1
1751,0.37,1645111946.75,P12,D12,1,1,1
1752,0.33,1645111946.765625,P12,D12,1,1,1
1753,0.36,1645111946.78125,P12,D12,1,1,1
1754,0.46,1645111946.796875,P12,D12,1,1,1
1755,0.53,1645111946.8125,P12,D12,1,1,1
1756,0.52,1645111946.828125,P12,D12,1,1,1
1757,0.36,1645111946.84375,P12,D12,1,1,1
1758,0.07,1645111946.859375,P12,D12,1,1,1
1759,-0.31,1645111946.875,P12,D12,1,1,1
1760,-0.66,1645111946.890625,P12,D12,1,1,1
1761,-0.88,1645111946.90625,P12,D12,1,1,1
1762,-0.89,1645111946.921875,P12,D12,1,1,1
1763,-0.68,1645111946.9375,P12,D12,1,1,1
1764,-0.3,1645111946.953125,P12,D12,1,1,1
1765,0.16,1645111946.96875,P12,D12,1,1,1
1766,0.61,1645111946.984375,P12,D12,1,1,1
1767,0.96,1645111947.0,P12,D12,1,1,1
1768,1.11,1645111947.015625,P12,D12,1,1,1
1769,1.04,1645111947.03125,P12,D12,1,1,1
1770,0.75,1645111947.046875,P12,D12,1,1,1
1771,0.3,1645111947.0625,P12,D12,1,1,1
1772,-0.2,1645111947.078125,P12,D12,1,1,1
1773,-0.61,1645111947.09375,P12,D12,1,1,1
1774,-0.84,1645111947.109375,P12,D12,1,1,1
1775,-0.85,1645111947.125,P12,D12,1,1,1
1776,-0.68,1645111947.140625,P12,D12,1,1,1
1777,-0.42,1645111947.15625,P12,D12,1,1,1
1778,-0.19,1645111947.171875,P12,D12,1,1,1
1779,-0.02,1645111947.1875,P12,D12,1,1,1
1780,0.1,1645111947.203125,P12,D12,1,1,1
1781,0.21,1645111947.21875,P12,D12,1,1,1
1782,0.35,1645111947.234375,P12,D12,1,1,1
1783,0.52,1645111947.25,P12,D12,1,1,1
1784,0.65,1645111947.265625,P12,D12,1,1,1
1785,0.64,1645111947.28125,P12,D12,1,1,1
1786,0.44,1645111947.296875,P12,D12,1,1,1
1787,0.09,1645111947.3125,P12,D12,1,1,1
1788,-0.31,1645111947.328125,P12,D12,1,1,1
1789,-0.62,1645111947.34375,P12,D12,1,1,1
1790,-0.73,1645111947.359375,P12,D12,1,1,1
1791,-0.63,1645111947.375,P12,D12,1,1,1
1792,-0.41,1645111947.390625,P12,D12,1,1,1
1793,-0.17,1645111947.40625,P12,D12,1,1,1
1794,0.03,1645111947.421875,P12,D12,1,1,1
1795,0.19,1645111947.4375,P12,D12,1,1,1
1796,0.33,1645111947.453125,P12,D12,1,1,1
1797,0.48,1645111947.46875,P12,D12,1,1,1
1798,0.61,1645111947.484375,P12,D12,1,1,1
1799,0.68,1645111947.5,P12,D12,1,1,1
1800,0.64,1645111947.515625,P12,D12,1,1,1
1801,0.51,1645111947.53125,P12,D12,1,1,1
1802,0.35,1645111947.546875,P12,D12,1,1,1
1803,0.23,1645111947.5625,P12,D12,1,1,1
1804,0.22,1645111947.578125,P12,D12,1,1,1
1805,0.27,1645111947.59375,P12,D12,1,1,1
1806,0.26,1645111947.609375,P12,D12,1,1,1
1807,0.1,1645111947.625,P12,D12,1,1,1
1808,-0.28,1645111947.640625,P12,D12,1,1,1
1809,-0.8,1645111947.65625,P12,D12,1,1,1
1810,-1.3,1645111947.671875,P12,D12,1,1,1
1811,-1.59,1645111947.6875,P12,D12,1,1,1
1812,-1.55,1645111947.703125,P12,D12,1,1,1
1813,-1.2,1645111947.71875,P12,D12,1,1,1
1814,-0.65,1645111947.734375,P12,D12,1,1,1
1815,-0.08,1645111947.75,P12,D12,1,1,1
1816,0.38,1645111947.765625,P12,D12,1,1,1
1817,0.66,1645111947.78125,P12,D12,1,1,1
1818,0.76,1645111947.796875,P12,D12,1,1,1
1819,0.74,1645111947.8125,P12,D12,1,1,1
1820,0.62,1645111947.828125,P12,D12,1,1,1
1821,0.43,1645111947.84375,P12,D12,1,1,1
1822,0.23,1645111947.859375,P12,D12,1,1,1
1823,0.08,1645111947.875,P12,D12,1,1,1
1824,0.07,1645111947.890625,P12,D12,1,1,1
1825,0.25,1645111947.90625,P12,D12,1,1,1
1826,0.55,1645111947.921875,P12,D12,1,1,1
1827,0.85,1645111947.9375,P12,D12,1,1,1
1828,1.0,1645111947.953125,P12,D12,1,1,1
1829,0.9,1645111947.96875,P12,D12,1,1,1
1830,0.57,1645111947.984375,P12,D12,1,1,1
1831,0.12,1645111948.0,P12,D12,1,1,1
1832,-0.34,1645111948.015625,P12,D12,1,1,1
1833,-0.68,1645111948.03125,P12,D12,1,1,1
1834,-0.87,1645111948.046875,P12,D12,1,1,1
1835,-0.89,1645111948.0625,P12,D12,1,1,1
1836,-0.78,1645111948.078125,P12,D12,1,1,1
1837,-0.59,1645111948.09375,P12,D12,1,1,1
1838,-0.4,1645111948.109375,P12,D12,1,1,1
1839,-0.24,1645111948.125,P12,D12,1,1,1
1840,-0.14,1645111948.140625,P12,D12,1,1,1
1841,-0.07,1645111948.15625,P12,D12,1,1,1
1842,-0.02,1645111948.171875,P12,D12,1,1,1
1843,0.03,1645111948.1875,P12,D12,1,1,1
1844,0.05,1645111948.203125,P12,D12,1,1,1
1845,-0.02,1645111948.21875,P12,D12,1,1,1
1846,-0.19,1645111948.234375,P12,D12,1,1,1
1847,-0.43,1645111948.25,P12,D12,1,1,1
1848,-0.6,1645111948.265625,P12,D12,1,1,1
1849,-0.59,1645111948.28125,P12,D12,1,1,1
1850,-0.33,1645111948.296875,P12,D12,1,1,1
1851,0.07,1645111948.3125,P12,D12,1,1,1
1852,0.43,1645111948.328125,P12,D12,1,1,1
1853,0.57,1645111948.34375,P12,D12,1,1,1
1854,0.41,1645111948.359375,P12,D12,1,1,1
1855,0.05,1645111948.375,P12,D12,1,1,1
1856,-0.35,1645111948.390625,P12,D12,1,1,1
1857,-0.61,1645111948.40625,P12,D12,1,1,1
1858,-0.66,1645111948.421875,P12,D12,1,1,1
1859,-0.57,1645111948.4375,P12,D12,1,1,1
1860,-0.43,1645111948.453125,P12,D12,1,1,1
1861,-0.3,1645111948.46875,P12,D12,1,1,1
1862,-0.19,1645111948.484375,P12,D12,1,1,1
1863,-0.05,1645111948.5,P12,D12,1,1,1
1864,0.15,1645111948.515625,P12,D12,1,1,1
1865,0.42,1645111948.53125,P12,D12,1,1,1
1866,0.71,1645111948.546875,P12,D12,1,1,1
1867,0.97,1645111948.5625,P12,D12,1,1,1
1868,1.16,1645111948.578125,P12,D12,1,1,1
1869,1.24,1645111948.59375,P12,D12,1,1,1
1870,1.2,1645111948.609375,P12,D12,1,1,1
1871,1.02,1645111948.625,P12,D12,1,1,1
1872,0.74,1645111948.640625,P12,D12,1,1,1
1873,0.42,1645111948.65625,P12,D12,1,1,1
1874,0.15,1645111948.671875,P12,D12,1,1,1
1875,-0.02,1645111948.6875,P12,D12,1,1,1
1876,-0.07,1645111948.703125,P12,D12,1,1,1
1877,-0.09,1645111948.71875,P12,D12,1,1,1
1878,-0.15,1645111948.734375,P12,D12,1,1,1
1879,-0.28,1645111948.75,P12,D12,1,1,1
1880,-0.44,1645111948.765625,P12,D12,1,1,1
1881,-0.52,1645111948.78125,P12,D12,1,1,1
1882,-0.44,1645111948.796875,P12,D12,1,1,1
1883,-0.23,1645111948.8125,P12,D12,1,1,1
1884,-0.01,1645111948.828125,P12,D12,1,1,1
1885,0.07,1645111948.84375,P12,D12,1,1,1
1886,-0.06,1645111948.859375,P12,D12,1,1,1
1887,-0.34,1645111948.875,P12,D12,1,1,1
1888,-0.59,1645111948.890625,P12,D12,1,1,1
1889,-0.66,1645111948.90625,P12,D12,1,1,1
1890,-0.47,1645111948.921875,P12,D12,1,1,1
1891,-0.13,1645111948.9375,P12,D12,1,1,1
1892,0.19,1645111948.953125,P12,D12,1,1,1
1893,0.32,1645111948.96875,P12,D12,1,1,1
1894,0.21,1645111948.984375,P12,D12,1,1,1
1895,-0.03,1645111949.0,P12,D12,1,1,1
1896,-0.2,1645111949.015625,P12,D12,1,1,1
1897,-0.16,1645111949.03125,P12,D12,1,1,1
1898,0.13,1645111949.046875,P12,D12,1,1,1
1899,0.54,1645111949.0625,P12,D12,1,1,1
1900,0.85,1645111949.078125,P12,D12,1,1,1
1901,0.87,1645111949.09375,P12,D12,1,1,1
1902,0.55,1645111949.109375,P12,D12,1,1,1
1903,0.01,1645111949.125,P12,D12,1,1,1
1904,-0.51,1645111949.140625,P12,D12,1,1,1
1905,-0.82,1645111949.15625,P12,D12,1,1,1
1906,-0.83,1645111949.171875,P12,D12,1,1,1
1907,-0.61,1645111949.1875,P12,D12,1,1,1
1908,-0.31,1645111949.203125,P12,D12,1,1,1
1909,-0.06,1645111949.21875,P12,D12,1,1,1
1910,0.08,1645111949.234375,P12,D12,1,1,1
1911,0.15,1645111949.25,P12,D12,1,1,1
1912,0.2,1645111949.265625,P12,D12,1,1,1
1913,0.25,1645111949.28125,P12,D12,1,1,1
1914,0.26,1645111949.296875,P12,D12,1,1,1
1915,0.16,1645111949.3125,P12,D12,1,1,1
1916,-0.06,1645111949.328125,P12,D12,1,1,1
1917,-0.33,1645111949.34375,P12,D12,1,1,1
1918,-0.52,1645111949.359375,P12,D12,1,1,1
1919,-0.53,1645111949.375,P12,D12,1,1,1
1920,-0.36,1645111949.390625,P12,D12,1,1,1
1921,-0.09,1645111949.40625,P12,D12,1,1,1
1922,0.15,1645111949.421875,P12,D12,1,1,1
1923,0.27,1645111949.4375,P12,D12,1,1,1
1924,0.27,1645111949.453125,P12,D12,1,1,1
1925,0.27,1645111949.46875,P12,D12,1,1,1
1926,0.35,1645111949.484375,P12,D12,1,1,1
1927,0.54,1645111949.5,P12,D12,1,1,1
1928,0.78,1645111949.515625,P12,D12,1,1,1
1929,0.94,1645111949.53125,P12,D12,1,1,1
1930,0.93,1645111949.546875,P12,D12,1,1,1
1931,0.73,1645111949.5625,P12,D12,1,1,1
1932,0.42,1645111949.578125,P12,D12,1,1,1
1933,0.11,1645111949.59375,P12,D12,1,1,1
1934,-0.12,1645111949.609375,P12,D12,1,1,1
1935,-0.3,1645111949.625,P12,D12,1,1,1
1936,-0.48,1645111949.640625,P12,D12,1,1,1
1937,-0.72,1645111949.65625,P12,D12,1,1,1
1938,-0.99,1645111949.671875,P12,D12,1,1,1
1939,-1.19,1645111949.6875,P12,D12,1,1,1
1940,-1.17,1645111949.703125,P12,D12,1,1,1
1941,-0.86,1645111949.71875,P12,D12,1,1,1
1942,-0.31,1645111949.734375,P12,D12,1,1,1
1943,0.31,1645111949.75,P12,D12,1,1,1
1944,0.82,1645111949.765625,P12,D12,1,1,1
1945,1.14,1645111949.78125,P12,D12,1,1,1
1946,1.27,1645111949.796875,P12,D12,1,1,1
1947,1.29,1645111949.8125,P12,D12,1,1,1
1948,1.28,1645111949.828125,P12,D12,1,1,1
1949,1.25,1645111949.84375,P12,D12,1,1,1
1950,1.14,1645111949.859375,P12,D12,1,1,1
1951,0.9,1645111949.875,P12,D12,1,1,1
1952,0.53,1645111949.890625,P12,D12,1,1,1
1953,0.1,1645111949.90625,P12,D12,1,1,1
1954,-0.28,1645111949.921875,P12,D12,1,1,1
1955,-0.5,1645111949.9375,P12,D12,1,1,1
1956,-0.56,1645111949.953125,P12,D12,1,1,1
1957,-0.51,1645111949.96875,P12,D12,1,1,1
1958,-0.43,1645111949.984375,P12,D12,1,1,1
1959,-0.37,1645111950.0,P12,D12,1,1,1
1960,-0.37,1645111950.015625,P12,D12,1,1,1
1961,-0.44,1645111950.03125,P12,D12,1,1,1
1962,-0.59,1645111950.046875,P12,D12,1,1,1
1963,-0.8,1645111950.0625,P12,D12,1,1,1
1964,-1.06,1645111950.078125,P12,D12,1,1,1
1965,-1.27,1645111950.09375,P12,D12,1,1,1
1966,-1.36,1645111950.109375,P12,D12,1,1,1
1967,-1.23,1645111950.125,P12,D12,1,1,1
1968,-0.84,1645111950.140625,P12,D12,1,1,1
1969,-0.23,1645111950.15625,P12,D12,1,1,1
1970,0.45,1645111950.171875,P12,D12,1,1,1
1971,1.0,1645111950.1875,P12,D12,1,1,1
1972,1.26,1645111950.203125,P12,D12,1,1,1
1973,1.15,1645111950.21875,P12,D12,1,1,1
1974,0.72,1645111950.234375,P12,D12,1,1,1
1975,0.15,1645111950.25,P12,D12,1,1,1
1976,-0.37,1645111950.265625,P12,D12,1,1,1
1977,-0.67,1645111950.28125,P12,D12,1,1,1
1978,-0.7,1645111950.296875,P12,D12,1,1,1
1979,-0.52,1645111950.3125,P12,D12,1,1,1
1980,-0.27,1645111950.328125,P12,D12,1,1,1
1981,-0.09,1645111950.34375,P12,D12,1,1,1
1982,-0.01,1645111950.359375,P12,D12,1,1,1
1983,-0.05,1645111950.375,P12,D12,1,1,1
1984,-0.11,1645111950.390625,P12,D12,1,1,1
1985,-0.14,1645111950.40625,P12,D12,1,1,1
1986,-0.1,1645111950.421875,P12,D12,1,1,1
1987,-0.01,1645111950.4375,P12,D12,1,1,1
1988,0.08,1645111950.453125,P12,D12,1,1,1
1989,0.13,1645111950.46875,P12,D12,1,1,1
1990,0.13,1645111950.484375,P12,D12,1,1,1
1991,0.1,1645111950.5,P12,D12,1,1,1
1992,0.07,1645111950.515625,P12,D12,1,1,1
1993,0.07,1645111950.53125,P12,D12,1,1,1
1994,0.09,1645111950.546875,P12,D12,1,1,1
1995,0.1,1645111950.5625,P12,D12,1,1,1
1996,0.11,1645111950.578125,P12,D12,1,1,1
1997,0.12,1645111950.59375,P12,D12,1,1,1
1998,0.15,1645111950.609375,P12,D12,1,1,1
1999,0.24,1645111950.625,P12,D12,1,1,1
2000,0.38,1645111950.640625,P12,D12,1,1,1
2001,0.52,1645111950.65625,P12,D12,1,1,1
2002,0.59,1645111950.671875,P12,D12,1,1,1
2003,0.54,1645111950.6875,P12,D12,1,1,1
2004,0.35,1645111950.703125,P12,D12,1,1,1
2005,0.05,1645111950.71875,P12,D12,1,1,1
2006,-0.29,1645111950.734375,P12,D12,1,1,1
2007,-0.58,1645111950.75,P12,D12,1,1,1
2008,-0.74,1645111950.765625,P12,D12,1,1,1
2009,-0.75,1645111950.78125,P12,D12,1,1,1
2010,-0.6,1645111950.796875,P12,D12,1,1,1
2011,-0.32,1645111950.8125,P12,D12,1,1,1
2012,0.02,1645111950.828125,P12,D12,1,1,1
2013,0.34,1645111950.84375,P12,D12,1,1,1
2014,0.55,1645111950.859375,P12,D12,1,1,1
2015,0.6,1645111950.875,P12,D12,1,1,1
2016,0.48,1645111950.890625,P12,D12,1,1,1
2017,0.24,1645111950.90625,P12,D12,1,1,1
2018,-0.06,1645111950.921875,P12,D12,1,1,1
2019,-0.35,1645111950.9375,P12,D12,1,1,1
2020,-0.56,1645111950.953125,P12,D12,1,1,1
2021,-0.64,1645111950.96875,P12,D12,1,1,1
2022,-0.59,1645111950.984375,P12,D12,1,1,1
2023,-0.45,1645111951.0,P12,D12,1,1,1
2024,-0.29,1645111951.015625,P12,D12,1,1,1
2025,-0.19,1645111951.03125,P12,D12,1,1,1
2026,-0.2,1645111951.046875,P12,D12,1,1,1
2027,-0.31,1645111951.0625,P12,D12,1,1,1
2028,-0.46,1645111951.078125,P12,D12,1,1,1
2029,-0.56,1645111951.09375,P12,D12,1,1,1
2030,-0.57,1645111951.109375,P12,D12,1,1,1
2031,-0.45,1645111951.125,P12,D12,1,1,1
2032,-0.25,1645111951.140625,P12,D12,1,1,1
2033,-0.02,1645111951.15625,P12,D12,1,1,1
2034,0.17,1645111951.171875,P12,D12,1,1,1
2035,0.31,1645111951.1875,P12,D12,1,1,1
2036,0.42,1645111951.203125,P12,D12,1,1,1
2037,0.53,1645111951.21875,P12,D12,1,1,1
2038,0.66,1645111951.234375,P12,D12,1,1,1
2039,0.8,1645111951.25,P12,D12,1,1,1
2040,0.91,1645111951.265625,P12,D12,1,1,1
2041,0.92,1645111951.28125,P12,D12,1,1,1
2042,0.81,1645111951.296875,P12,D12,1,1,1
2043,0.57,1645111951.3125,P12,D12,1,1,1
2044,0.24,1645111951.328125,P12,D12,1,1,1
2045,-0.1,1645111951.34375,P12,D12,1,1,1
2046,-0.37,1645111951.359375,P12,D12,1,1,1
2047,-0.49,1645111951.375,P12,D12,1,1,1
2048,-0.44,1645111951.390625,P12,D12,1,1,1
2049,-0.29,1645111951.40625,P12,D12,1,1,1
2050,-0.14,1645111951.421875,P12,D12,1,1,1
2051,-0.11,1645111951.4375,P12,D12,1,1,1
2052,-0.24,1645111951.453125,P12,D12,1,1,1
2053,-0.47,1645111951.46875,P12,D12,1,1,1
2054,-0.67,1645111951.484375,P12,D12,1,1,1
2055,-0.72,1645111951.5,P12,D12,1,1,1
2056,-0.58,1645111951.515625,P12,D12,1,1,1
2057,-0.29,1645111951.53125,P12,D12,1,1,1
2058,0.03,1645111951.546875,P12,D12,1,1,1
2059,0.3,1645111951.5625,P12,D12,1,1,1
2060,0.49,1645111951.578125,P12,D12,1,1,1
2061,0.61,1645111951.59375,P12,D12,1,1,1
2062,0.69,1645111951.609375,P12,D12,1,1,1
2063,0.72,1645111951.625,P12,D12,1,1,1
2064,0.63,1645111951.640625,P12,D12,1,1,1
2065,0.36,1645111951.65625,P12,D12,1,1,1
2066,-0.09,1645111951.671875,P12,D12,1,1,1
2067,-0.6,1645111951.6875,P12,D12,1,1,1
2068,-1.0,1645111951.703125,P12,D12,1,1,1
2069,-1.13,1645111951.71875,P12,D12,1,1,1
2070,-0.97,1645111951.734375,P12,D12,1,1,1
2071,-0.59,1645111951.75,P12,D12,1,1,1
2072,-0.17,1645111951.765625,P12,D12,1,1,1
2073,0.15,1645111951.78125,P12,D12,1,1,1
2074,0.31,1645111951.796875,P12,D12,1,1,1
2075,0.36,1645111951.8125,P12,D12,1,1,1
2076,0.41,1645111951.828125,P12,D12,1,1,1
2077,0.54,1645111951.84375,P12,D12,1,1,1
2078,0.74,1645111951.859375,P12,D12,1,1,1
2079,0.94,1645111951.875,P12,D12,1,1,1
2080,1.03,1645111951.890625,P12,D12,1,1,1
2081,0.96,1645111951.90625,P12,D12,1,1,1
2082,0.76,1645111951.921875,P12,D12,1,1,1
2083,0.54,1645111951.9375,P12,D12,1,1,1
2084,0.41,1645111951.953125,P12,D12,1,1,1
2085,0.4,1645111951.96875,P12,D12,1,1,1
2086,0.46,1645111951.984375,P12,D12,1,1,1
2087,0.48,1645111952.0,P12,D12,1,1,1
2088,0.38,1645111952.015625,P12,D12,1,1,1
2089,0.14,1645111952.03125,P12,D12,1,1,1
2090,-0.17,1645111952.046875,P12,D12,1,1,1
2091,-0.46,1645111952.0625,P12,D12,1,1,1
2092,-0.66,1645111952.078125,P12,D12,1,1,1
2093,-0.75,1645111952.09375,P12,D12,1,1,1
2094,-0.8,1645111952.109375,P12,D12,1,1,1
2095,-0.86,1645111952.125,P12,D12,1,1,1
2096,-0.98,1645111952.140625,P12,D12,1,1,1
2097,-1.12,1645111952.15625,P12,D12,1,1,1
2098,-1.2,1645111952.171875,P12,D12,1,1,1
2099,-1.13,1645111952.1875,P12,D12,1,1,1
2100,-0.92,1645111952.203125,P12,D12,1,1,1
2101,-0.63,1645111952.21875,P12,D12,1,1,1
2102,-0.35,1645111952.234375,P12,D12,1,1,1
2103,-0.19,1645111952.25,P12,D12,1,1,1
2104,-0.13,1645111952.265625,P12,D12,1,1,1
2105,-0.1,1645111952.28125,P12,D12,1,1,1
2106,0.01,1645111952.296875,P12,D12,1,1,1
2107,0.26,1645111952.3125,P12,D12,1,1,1
2108,0.64,1645111952.328125,P12,D12,1,1,1
2109,1.05,1645111952.34375,P12,D12,1,1,1
2110,1.37,1645111952.359375,P12,D12,1,1,1
2111,1.49,1645111952.375,P12,D12,1,1,1
2112,1.42,1645111952.390625,P12,D12,1,1,1
2113,1.24,1645111952.40625,P12,D12,1,1,1
2114,1.03,1645111952.421875,P12,D12,1,1,1
2115,0.86,1645111952.4375,P12,D12,1,1,1
2116,0.7,1645111952.453125,P12,D12,1,1,1
2117,0.51,1645111952.46875,P12,D12,1,1,1
2118,0.22,1645111952.484375,P12,D12,1,1,1
2119,-0.18,1645111952.5,P12,D12,1,1,1
2120,-0.64,1645111952.515625,P12,D12,1,1,1
2121,-1.06,1645111952.53125,P12,D12,1,1,1
2122,-1.34,1645111952.546875,P12,D12,1,1,1
2123,-1.42,1645111952.5625,P12,D12,1,1,1
2124,-1.29,1645111952.578125,P12,D12,1,1,1
2125,-1.0,1645111952.59375,P12,D12,1,1,1
2126,-0.66,1645111952.609375,P12,D12,1,1,1
2127,-0.35,1645111952.625,P12,D12,1,1,1
2128,-0.17,1645111952.640625,P12,D12,1,1,1
2129,-0.16,1645111952.65625,P12,D12,1,1,1
2130,-0.28,1645111952.671875,P12,D12,1,1,1
2131,-0.45,1645111952.6875,P12,D12,1,1,1
2132,-0.57,1645111952.703125,P12,D12,1,1,1
2133,-0.56,1645111952.71875,P12,D12,1,1,1
2134,-0.42,1645111952.734375,P12,D12,1,1,1
2135,-0.21,1645111952.75,P12,D12,1,1,1
2136,-0.04,1645111952.765625,P12,D12,1,1,1
2137,0.04,1645111952.78125,P12,D12,1,1,1
2138,0.09,1645111952.796875,P12,D12,1,1,1
2139,0.17,1645111952.8125,P12,D12,1,1,1
2140,0.35,1645111952.828125,P12,D12,1,1,1
2141,0.58,1645111952.84375,P12,D12,1,1,1
2142,0.75,1645111952.859375,P12,D12,1,1,1
2143,0.72,1645111952.875,P12,D12,1,1,1
2144,0.45,1645111952.890625,P12,D12,1,1,1
2145,0.01,1645111952.90625,P12,D12,1,1,1
2146,-0.41,1645111952.921875,P12,D12,1,1,1
2147,-0.6,1645111952.9375,P12,D12,1,1,1
2148,-0.45,1645111952.953125,P12,D12,1,1,1
2149,0.01,1645111952.96875,P12,D12,1,1,1
2150,0.66,1645111952.984375,P12,D12,1,1,1
2151,1.26,1645111953.0,P12,D12,1,1,1
2152,1.66,1645111953.015625,P12,D12,1,1,1
2153,1.73,1645111953.03125,P12,D12,1,1,1
2154,1.5,1645111953.046875,P12,D12,1,1,1
2155,1.08,1645111953.0625,P12,D12,1,1,1
2156,0.6,1645111953.078125,P12,D12,1,1,1
2157,0.22,1645111953.09375,P12,D12,1,1,1
2158,-0.03,1645111953.109375,P12,D12,1,1,1
2159,-0.16,1645111953.125,P12,D12,1,1,1
2160,-0.24,1645111953.140625,P12,D12,1,1,1
2161,-0.35,1645111953.15625,P12,D12,1,1,1
2162,-0.49,1645111953.171875,P12,D12,1,1,1
2163,-0.61,1645111953.1875,P12,D12,1,1,1
2164,-0.66,1645111953.203125,P12,D12,1,1,1
2165,-0.59,1645111953.21875,P12,D12,1,1,1
2166,-0.44,1645111953.234375,P12,D12,1,1,1
2167,-0.25,1645111953.25,P12,D12,1,1,1
2168,-0.08,1645111953.265625,P12,D12,1,1,1
2169,0.02,1645111953.28125,P12,D12,1,1,1
2170,0.06,1645111953.296875,P12,D12,1,1,1
2171,0.08,1645111953.3125,P12,D12,1,1,1
2172,0.14,1645111953.328125,P12,D12,1,1,1
2173,0.28,1645111953.34375,P12,D12,1,1,1
2174,0.46,1645111953.359375,P12,D12,1,1,1
2175,0.63,1645111953.375,P12,D12,1,1,1
2176,0.69,1645111953.390625,P12,D12,1,1,1
2177,0.54,1645111953.40625,P12,D12,1,1,1
2178,0.18,1645111953.421875,P12,D12,1,1,1
2179,-0.31,1645111953.4375,P12,D12,1,1,1
2180,-0.78,1645111953.453125,P12,D12,1,1,1
2181,-1.08,1645111953.46875,P12,D12,1,1,1
2182,-1.11,1645111953.484375,P12,D12,1,1,1
2183,-0.92,1645111953.5,P12,D12,1,1,1
2184,-0.59,1645111953.515625,P12,D12,1,1,1
2185,-0.29,1645111953.53125,P12,D12,1,1,1
2186,-0.08,1645111953.546875,P12,D12,1,1,1
2187,0.03,1645111953.5625,P12,D12,1,1,1
2188,0.09,1645111953.578125,P12,D12,1,1,1
2189,0.16,1645111953.59375,P12,D12,1,1,1
2190,0.24,1645111953.609375,P12,D12,1,1,1
2191,0.27,1645111953.625,P12,D12,1,1,1
2192,0.19,1645111953.640625,P12,D12,1,1,1
2193,-0.01,1645111953.65625,P12,D12,1,1,1
2194,-0.31,1645111953.671875,P12,D12,1,1,1
2195,-0.6,1645111953.6875,P12,D12,1,1,1
2196,-0.77,1645111953.703125,P12,D12,1,1,1
2197,-0.78,1645111953.71875,P12,D12,1,1,1
2198,-0.65,1645111953.734375,P12,D12,1,1,1
2199,-0.45,1645111953.75,P12,D12,1,1,1
2200,-0.26,1645111953.765625,P12,D12,1,1,1
2201,-0.11,1645111953.78125,P12,D12,1,1,1
2202,0.02,1645111953.796875,P12,D12,1,1,1
2203,0.17,1645111953.8125,P12,D12,1,1,1
2204,0.37,1645111953.828125,P12,D12,1,1,1
2205,0.56,1645111953.84375,P12,D12,1,1,1
2206,0.67,1645111953.859375,P12,D12,1,1,1
2207,0.6,1645111953.875,P12,D12,1,1,1
2208,0.35,1645111953.890625,P12,D12,1,1,1
2209,0.02,1645111953.90625,P12,D12,1,1,1
2210,-0.24,1645111953.921875,P12,D12,1,1,1
2211,-0.31,1645111953.9375,P12,D12,1,1,1
2212,-0.18,1645111953.953125,P12,D12,1,1,1
2213,0.09,1645111953.96875,P12,D12,1,1,1
2214,0.36,1645111953.984375,P12,D12,1,1,1
2215,0.54,1645111954.0,P12,D12,1,1,1
2216,0.6,1645111954.015625,P12,D12,1,1,1
2217,0.56,1645111954.03125,P12,D12,1,1,1
2218,0.5,1645111954.046875,P12,D12,1,1,1
2219,0.42,1645111954.0625,P12,D12,1,1,1
2220,0.36,1645111954.078125,P12,D12,1,1,1
2221,0.32,1645111954.09375,P12,D12,1,1,1
2222,0.32,1645111954.109375,P12,D12,1,1,1
2223,0.4,1645111954.125,P12,D12,1,1,1
2224,0.53,1645111954.140625,P12,D12,1,1,1
2225,0.64,1645111954.15625,P12,D12,1,1,1
2226,0.63,1645111954.171875,P12,D12,1,1,1
2227,0.43,1645111954.1875,P12,D12,1,1,1
2228,0.07,1645111954.203125,P12,D12,1,1,1
2229,-0.34,1645111954.21875,P12,D12,1,1,1
2230,-0.65,1645111954.234375,P12,D12,1,1,1
2231,-0.72,1645111954.25,P12,D12,1,1,1
2232,-0.56,1645111954.265625,P12,D12,1,1,1
2233,-0.24,1645111954.28125,P12,D12,1,1,1
2234,0.06,1645111954.296875,P12,D12,1,1,1
2235,0.21,1645111954.3125,P12,D12,1,1,1
2236,0.12,1645111954.328125,P12,D12,1,1,1
2237,-0.18,1645111954.34375,P12,D12,1,1,1
2238,-0.6,1645111954.359375,P12,D12,1,1,1
2239,-0.98,1645111954.375,P12,D12,1,1,1
2240,-1.17,1645111954.390625,P12,D12,1,1,1
2241,-1.08,1645111954.40625,P12,D12,1,1,1
2242,-0.7,1645111954.421875,P12,D12,1,1,1
2243,-0.12,1645111954.4375,P12,D12,1,1,1
2244,0.44,1645111954.453125,P12,D12,1,1,1
2245,0.8,1645111954.46875,P12,D12,1,1,1
2246,0.8,1645111954.484375,P12,D12,1,1,1
2247,0.47,1645111954.5,P12,D12,1,1,1
2248,-0.06,1645111954.515625,P12,D12,1,1,1
2249,-0.54,1645111954.53125,P12,D12,1,1,1
2250,-0.78,1645111954.546875,P12,D12,1,1,1
2251,-0.71,1645111954.5625,P12,D12,1,1,1
2252,-0.39,1645111954.578125,P12,D12,1,1,1
2253,-0.0,1645111954.59375,P12,D12,1,1,1
2254,0.28,1645111954.609375,P12,D12,1,1,1
2255,0.38,1645111954.625,P12,D12,1,1,1
2256,0.28,1645111954.640625,P12,D12,1,1,1
2257,0.09,1645111954.65625,P12,D12,1,1,1
2258,-0.09,1645111954.671875,P12,D12,1,1,1
2259,-0.18,1645111954.6875,P12,D12,1,1,1
2260,-0.16,1645111954.703125,P12,D12,1,1,1
2261,-0.03,1645111954.71875,P12,D12,1,1,1
2262,0.17,1645111954.734375,P12,D12,1,1,1
2263,0.37,1645111954.75,P12,D12,1,1,1
2264,0.51,1645111954.765625,P12,D12,1,1,1
2265,0.52,1645111954.78125,P12,D12,1,1,1
2266,0.39,1645111954.796875,P12,D12,1,1,1
2267,0.15,1645111954.8125,P12,D12,1,1,1
2268,-0.1,1645111954.828125,P12,D12,1,1,1
2269,-0.27,1645111954.84375,P12,D12,1,1,1
2270,-0.32,1645111954.859375,P12,D12,1,1,1
2271,-0.29,1645111954.875,P12,D12,1,1,1
2272,-0.21,1645111954.890625,P12,D12,1,1,1
2273,-0.13,1645111954.90625,P12,D12,1,1,1
2274,-0.01,1645111954.921875,P12,D12,1,1,1
2275,0.21,1645111954.9375,P12,D12,1,1,1
2276,0.58,1645111954.953125,P12,D12,1,1,1
2277,1.04,1645111954.96875,P12,D12,1,1,1
2278,1.45,1645111954.984375,P12,D12,1,1,1
2279,1.64,1645111955.0,P12,D12,1,1,1
2280,1.47,1645111955.015625,P12,D12,1,1,1
2281,0.99,1645111955.03125,P12,D12,1,1,1
2282,0.34,1645111955.046875,P12,D12,1,1,1
2283,-0.27,1645111955.0625,P12,D12,1,1,1
2284,-0.71,1645111955.078125,P12,D12,1,1,1
2285,-0.95,1645111955.09375,P12,D12,1,1,1
2286,-1.05,1645111955.109375,P12,D12,1,1,1
2287,-1.07,1645111955.125,P12,D12,1,1,1
2288,-1.03,1645111955.140625,P12,D12,1,1,1
2289,-0.91,1645111955.15625,P12,D12,1,1,1
2290,-0.66,1645111955.171875,P12,D12,1,1,1
2291,-0.32,1645111955.1875,P12,D12,1,1,1
2292,0.03,1645111955.203125,P12,D12,1,1,1
2293,0.27,1645111955.21875,P12,D12,1,1,1
2294,0.34,1645111955.234375,P12,D12,1,1,1
2295,0.26,1645111955.25,P12,D12,1,1,1
2296,0.15,1645111955.265625,P12,D12,1,1,1
2297,0.11,1645111955.28125,P12,D12,1,1,1
2298,0.2,1645111955.296875,P12,D12,1,1,1
2299,0.36,1645111955.3125,P12,D12,1,1,1
2300,0.47,1645111955.328125,P12,D12,1,1,1
2301,0.42,1645111955.34375,P12,D12,1,1,1
2302,0.2,1645111955.359375,P12,D12,1,1,1
2303,-0.14,1645111955.375,P12,D12,1,1,1
2304,-0.49,1645111955.390625,P12,D12,1,1,1
2305,-0.77,1645111955.40625,P12,D12,1,1,1
2306,-0.95,1645111955.421875,P12,D12,1,1,1
2307,-1.02,1645111955.4375,P12,D12,1,1,1
2308,-1.03,1645111955.453125,P12,D12,1,1,1
2309,-0.97,1645111955.46875,P12,D12,1,1,1
2310,-0.84,1645111955.484375,P12,D12,1,1,1
2311,-0.62,1645111955.5,P12,D12,1,1,1
2312,-0.33,1645111955.515625,P12,D12,1,1,1
2313,-0.0,1645111955.53125,P12,D12,1,1,1
2314,0.29,1645111955.546875,P12,D12,1,1,1
2315,0.48,1645111955.5625,P12,D12,1,1,1
2316,0.53,1645111955.578125,P12,D12,1,1,1
2317,0.47,1645111955.59375,P12,D12,1,1,1
2318,0.36,1645111955.609375,P12,D12,1,1,1
2319,0.3,1645111955.625,P12,D12,1,1,1
2320,0.34,1645111955.640625,P12,D12,1,1,1
2321,0.48,1645111955.65625,P12,D12,1,1,1
2322,0.64,1645111955.671875,P12,D12,1,1,1
2323,0.71,1645111955.6875,P12,D12,1,1,1
2324,0.6,1645111955.703125,P12,D12,1,1,1
2325,0.32,1645111955.71875,P12,D12,1,1,1
2326,-0.04,1645111955.734375,P12,D12,1,1,1
2327,-0.32,1645111955.75,P12,D12,1,1,1
2328,-0.39,1645111955.765625,P12,D12,1,1,1
2329,-0.23,1645111955.78125,P12,D12,1,1,1
2330,0.06,1645111955.796875,P12,D12,1,1,1
2331,0.32,1645111955.8125,P12,D12,1,1,1
2332,0.39,1645111955.828125,P12,D12,1,1,1
2333,0.24,1645111955.84375,P12,D12,1,1,1
2334,-0.06,1645111955.859375,P12,D12,1,1,1
2335,-0.38,1645111955.875,P12,D12,1,1,1
2336,-0.6,1645111955.890625,P12,D12,1,1,1
2337,-0.68,1645111955.90625,P12,D12,1,1,1
2338,-0.66,1645111955.921875,P12,D12,1,1,1
2339,-0.61,1645111955.9375,P12,D12,1,1,1
2340,-0.57,1645111955.953125,P12,D12,1,1,1
2341,-0.52,1645111955.96875,P12,D12,1,1,1
2342,-0.38,1645111955.984375,P12,D12,1,1,1
2343,-0.13,1645111956.0,P12,D12,1,1,1
2344,0.16,1645111956.015625,P12,D12,1,1,1
2345,0.37,1645111956.03125,P12,D12,1,1,1
2346,0.39,1645111956.046875,P12,D12,1,1,1
2347,0.19,1645111956.0625,P12,D12,1,1,1
2348,-0.11,1645111956.078125,P12,D12,1,1,1
2349,-0.31,1645111956.09375,P12,D12,1,1,1
2350,-0.28,1645111956.109375,P12,D12,1,1,1
2351,0.03,1645111956.125,P12,D12,1,1,1
2352,0.49,1645111956.140625,P12,D12,1,1,1
2353,0.91,1645111956.15625,P12,D12,1,1,1
2354,1.11,1645111956.171875,P12,D12,1,1,1
2355,1.05,1645111956.1875,P12,D12,1,1,1
2356,0.79,1645111956.203125,P12,D12,1,1,1
2357,0.48,1645111956.21875,P12,D12,1,1,1
2358,0.21,1645111956.234375,P12,D12,1,1,1
2359,0.06,1645111956.25,P12,D12,1,1,1
2360,-0.02,1645111956.265625,P12,D12,1,1,1
2361,-0.08,1645111956.28125,P12,D12,1,1,1
2362,-0.13,1645111956.296875,P12,D12,1,1,1
2363,-0.16,1645111956.3125,P12,D12,1,1,1
2364,-0.16,1645111956.328125,P12,D12,1,1,1
2365,-0.09,1645111956.34375,P12,D12,1,1,1
2366,0.0,1645111956.359375,P12,D12,1,1,1
2367,0.06,1645111956.375,P12,D12,1,1,1
2368,0.03,1645111956.390625,P12,D12,1,1,1
2369,-0.11,1645111956.40625,P12,D12,1,1,1
2370,-0.3,1645111956.421875,P12,D12,1,1,1
2371,-0.47,1645111956.4375,P12,D12,1,1,1
2372,-0.54,1645111956.453125,P12,D12,1,1,1
2373,-0.47,1645111956.46875,P12,D12,1,1,1
2374,-0.29,1645111956.484375,P12,D12,1,1,1
2375,-0.08,1645111956.5,P12,D12,1,1,1
2376,0.09,1645111956.515625,P12,D12,1,1,1
2377,0.14,1645111956.53125,P12,D12,1,1,1
2378,0.04,1645111956.546875,P12,D12,1,1,1
2379,-0.17,1645111956.5625,P12,D12,1,1,1
2380,-0.44,1645111956.578125,P12,D12,1,1,1
2381,-0.67,1645111956.59375,P12,D12,1,1,1
2382,-0.8,1645111956.609375,P12,D12,1,1,1
2383,-0.81,1645111956.625,P12,D12,1,1,1
2384,-0.74,1645111956.640625,P12,D12,1,1,1
2385,-0.64,1645111956.65625,P12,D12,1,1,1
2386,-0.56,1645111956.671875,P12,D12,1,1,1
2387,-0.49,1645111956.6875,P12,D12,1,1,1
2388,-0.43,1645111956.703125,P12,D12,1,1,1
2389,-0.35,1645111956.71875,P12,D12,1,1,1
2390,-0.27,1645111956.734375,P12,D12,1,1,1
2391,-0.19,1645111956.75,P12,D12,1,1,1
2392,-0.14,1645111956.765625,P12,D12,1,1,1
2393,-0.08,1645111956.78125,P12,D12,1,1,1
2394,0.01,1645111956.796875,P12,D12,1,1,1
2395,0.17,1645111956.8125,P12,D12,1,1,1
2396,0.37,1645111956.828125,P12,D12,1,1,1
2397,0.54,1645111956.84375,P12,D12,1,1,1
2398,0.62,1645111956.859375,P12,D12,1,1,1
2399,0.57,1645111956.875,P12,D12,1,1,1
2400,0.46,1645111956.890625,P12,D12,1,1,1
2401,0.38,1645111956.90625,P12,D12,1,1,1
2402,0.4,1645111956.921875,P12,D12,1,1,1
2403,0.53,1645111956.9375,P12,D12,1,1,1
2404,0.7,1645111956.953125,P12,D12,1,1,1
2405,0.78,1645111956.96875,P12,D12,1,1,1
2406,0.67,1645111956.984375,P12,D12,1,1,1
2407,0.35,1645111957.0,P12,D12,1,1,1
2408,-0.08,1645111957.015625,P12,D12,1,1,1
2409,-0.51,1645111957.03125,P12,D12,1,1,1
2410,-0.85,1645111957.046875,P12,D12,1,1,1
2411,-1.04,1645111957.0625,P12,D12,1,1,1
2412,-1.09,1645111957.078125,P12,D12,1,1,1
2413,-1.02,1645111957.09375,P12,D12,1,1,1
2414,-0.86,1645111957.109375,P12,D12,1,1,1
2415,-0.58,1645111957.125,P12,D12,1,1,1
2416,-0.21,1645111957.140625,P12,D12,1,1,1
2417,0.24,1645111957.15625,P12,D12,1,1,1
2418,0.66,1645111957.171875,P12,D12,1,1,1
2419,0.95,1645111957.1875,P12,D12,1,1,1
2420,1.01,1645111957.203125,P12,D12,1,1,1
2421,0.87,1645111957.21875,P12,D12,1,1,1
2422,0.59,1645111957.234375,P12,D12,1,1,1
2423,0.3,1645111957.25,P12,D12,1,1,1
2424,0.14,1645111957.265625,P12,D12,1,1,1
2425,0.14,1645111957.28125,P12,D12,1,1,1
2426,0.28,1645111957.296875,P12,D12,1,1,1
2427,0.46,1645111957.3125,P12,D12,1,1,1
2428,0.58,1645111957.328125,P12,D12,1,1,1
2429,0.57,1645111957.34375,P12,D12,1,1,1
2430,0.45,1645111957.359375,P12,D12,1,1,1
2431,0.29,1645111957.375,P12,D12,1,1,1
2432,0.17,1645111957.390625,P12,D12,1,1,1
2433,0.13,1645111957.40625,P12,D12,1,1,1
2434,0.17,1645111957.421875,P12,D12,1,1,1
2435,0.24,1645111957.4375,P12,D12,1,1,1
2436,0.29,1645111957.453125,P12,D12,1,1,1
2437,0.27,1645111957.46875,P12,D12,1,1,1
2438,0.22,1645111957.484375,P12,D12,1,1,1
2439,0.17,1645111957.5,P12,D12,1,1,1
2440,0.14,1645111957.515625,P12,D12,1,1,1
2441,0.12,1645111957.53125,P12,D12,1,1,1
2442,0.04,1645111957.546875,P12,D12,1,1,1
2443,-0.14,1645111957.5625,P12,D12,1,1,1
2444,-0.4,1645111957.578125,P12,D12,1,1,1
2445,-0.63,1645111957.59375,P12,D12,1,1,1
2446,-0.69,1645111957.609375,P12,D12,1,1,1
2447,-0.49,1645111957.625,P12,D12,1,1,1
2448,-0.05,1645111957.640625,P12,D12,1,1,1
2449,0.46,1645111957.65625,P12,D12,1,1,1
2450,0.81,1645111957.671875,P12,D12,1,1,1
2451,0.82,1645111957.6875,P12,D12,1,1,1
2452,0.45,1645111957.703125,P12,D12,1,1,1
2453,-0.12,1645111957.71875,P12,D12,1,1,1
2454,-0.65,1645111957.734375,P12,D12,1,1,1
2455,-0.9,1645111957.75,P12,D12,1,1,1
2456,-0.76,1645111957.765625,P12,D12,1,1,1
2457,-0.34,1645111957.78125,P12,D12,1,1,1
2458,0.15,1645111957.796875,P12,D12,1,1,1
2459,0.49,1645111957.8125,P12,D12,1,1,1
2460,0.58,1645111957.828125,P12,D12,1,1,1
2461,0.44,1645111957.84375,P12,D12,1,1,1
2462,0.18,1645111957.859375,P12,D12,1,1,1
2463,-0.06,1645111957.875,P12,D12,1,1,1
2464,-0.2,1645111957.890625,P12,D12,1,1,1
2465,-0.21,1645111957.90625,P12,D12,1,1,1
2466,-0.15,1645111957.921875,P12,D12,1,1,1
2467,-0.06,1645111957.9375,P12,D12,1,1,1
2468,-0.02,1645111957.953125,P12,D12,1,1,1
2469,-0.06,1645111957.96875,P12,D12,1,1,1
2470,-0.15,1645111957.984375,P12,D12,1,1,1
2471,-0.24,1645111958.0,P12,D12,1,1,1
2472,-0.29,1645111958.015625,P12,D12,1,1,1
2473,-0.26,1645111958.03125,P12,D12,1,1,1
2474,-0.17,1645111958.046875,P12,D12,1,1,1
2475,-0.05,1645111958.0625,P12,D12,1,1,1
2476,0.03,1645111958.078125,P12,D12,1,1,1
2477,0.07,1645111958.09375,P12,D12,1,1,1
2478,0.08,1645111958.109375,P12,D12,1,1,1
2479,0.12,1645111958.125,P12,D12,1,1,1
2480,0.23,1645111958.140625,P12,D12,1,1,1
2481,0.39,1645111958.15625,P12,D12,1,1,1
2482,0.56,1645111958.171875,P12,D12,1,1,1
2483,0.66,1645111958.1875,P12,D12,1,1,1
2484,0.64,1645111958.203125,P12,D12,1,1,1
2485,0.51,1645111958.21875,P12,D12,1,1,1
2486,0.29,1645111958.234375,P12,D12,1,1,1
2487,0.04,1645111958.25,P12,D12,1,1,1
2488,-0.18,1645111958.265625,P12,D12,1,1,1
2489,-0.35,1645111958.28125,P12,D12,1,1,1
2490,-0.47,1645111958.296875,P12,D12,1,1,1
2491,-0.54,1645111958.3125,P12,D12,1,1,1
2492,-0.57,1645111958.328125,P12,D12,1,1,1
2493,-0.55,1645111958.34375,P12,D12,1,1,1
2494,-0.48,1645111958.359375,P12,D12,1,1,1
2495,-0.38,1645111958.375,P12,D12,1,1,1
2496,-0.24,1645111958.390625,P12,D12,1,1,1
2497,-0.09,1645111958.40625,P12,D12,1,1,1
2498,0.06,1645111958.421875,P12,D12,1,1,1
2499,0.18,1645111958.4375,P12,D12,1,1,1
2500,0.28,1645111958.453125,P12,D12,1,1,1
2501,0.36,1645111958.46875,P12,D12,1,1,1
2502,0.44,1645111958.484375,P12,D12,1,1,1
2503,0.51,1645111958.5,P12,D12,1,1,1
2504,0.55,1645111958.515625,P12,D12,1,1,1
2505,0.51,1645111958.53125,P12,D12,1,1,1
2506,0.35,1645111958.546875,P12,D12,1,1,1
2507,0.07,1645111958.5625,P12,D12,1,1,1
2508,-0.27,1645111958.578125,P12,D12,1,1,1
2509,-0.58,1645111958.59375,P12,D12,1,1,1
2510,-0.73,1645111958.609375,P12,D12,1,1,1
2511,-0.65,1645111958.625,P12,D12,1,1,1
2512,-0.38,1645111958.640625,P12,D12,1,1,1
2513,-0.03,1645111958.65625,P12,D12,1,1,1
2514,0.25,1645111958.671875,P12,D12,1,1,1
2515,0.34,1645111958.6875,P12,D12,1,1,1
2516,0.22,1645111958.703125,P12,D12,1,1,1
2517,0.0,1645111958.71875,P12,D12,1,1,1
2518,-0.19,1645111958.734375,P12,D12,1,1,1
2519,-0.25,1645111958.75,P12,D12,1,1,1
2520,-0.21,1645111958.765625,P12,D12,1,1,1
2521,-0.15,1645111958.78125,P12,D12,1,1,1
2522,-0.16,1645111958.796875,P12,D12,1,1,1
2523,-0.3,1645111958.8125,P12,D12,1,1,1
2524,-0.5,1645111958.828125,P12,D12,1,1,1
2525,-0.68,1645111958.84375,P12,D12,1,1,1
2526,-0.73,1645111958.859375,P12,D12,1,1,1
2527,-0.64,1645111958.875,P12,D12,1,1,1
2528,-0.46,1645111958.890625,P12,D12,1,1,1
2529,-0.25,1645111958.90625,P12,D12,1,1,1
2530,-0.06,1645111958.921875,P12,D12,1,1,1
2531,0.12,1645111958.9375,P12,D12,1,1,1
2532,0.29,1645111958.953125,P12,D12,1,1,1
2533,0.45,1645111958.96875,P12,D12,1,1,1
2534,0.54,1645111958.984375,P12,D12,1,1,1
2535,0.49,1645111959.0,P12,D12,1,1,1
2536,0.26,1645111959.015625,P12,D12,1,1,1
2537,-0.08,1645111959.03125,P12,D12,1,1,1
2538,-0.4,1645111959.046875,P12,D12,1,1,1
2539,-0.55,1645111959.0625,P12,D12,1,1,1
2540,-0.44,1645111959.078125,P12,D12,1,1,1
2541,-0.12,1645111959.09375,P12,D12,1,1,1
2542,0.31,1645111959.109375,P12,D12,1,1,1
2543,0.66,1645111959.125,P12,D12,1,1,1
2544,0.81,1645111959.140625,P12,D12,1,1,1
2545,0.71,1645111959.15625,P12,D12,1,1,1
2546,0.38,1645111959.171875,P12,D12,1,1,1
2547,-0.07,1645111959.1875,P12,D12,1,1,1
2548,-0.52,1645111959.203125,P12,D12,1,1,1
2549,-0.88,1645111959.21875,P12,D12,1,1,1
2550,-1.07,1645111959.234375,P12,D12,1,1,1
2551,-1.1,1645111959.25,P12,D12,1,1,1
2552,-0.99,1645111959.265625,P12,D12,1,1,1
2553,-0.8,1645111959.28125,P12,D12,1,1,1
2554,-0.57,1645111959.296875,P12,D12,1,1,1
2555,-0.36,1645111959.3125,P12,D12,1,1,1
2556,-0.18,1645111959.328125,P12,D12,1,1,1
2557,-0.01,1645111959.34375,P12,D12,1,1,1
2558,0.15,1645111959.359375,P12,D12,1,1,1
2559,0.31,1645111959.375,P12,D12,1,1,1
2560,0.48,1645111959.390625,P12,D12,1,1,1
2561,0.66,1645111959.40625,P12,D12,1,1,1
2562,0.87,1645111959.421875,P12,D12,1,1,1
2563,1.11,1645111959.4375,P12,D12,1,1,1
2564,1.37,1645111959.453125,P12,D12,1,1,1
2565,1.6,1645111959.46875,P12,D12,1,1,1
2566,1.72,1645111959.484375,P12,D12,1,1,1
2567,1.65,1645111959.5,P12,D12,1,1,1
2568,1.38,1645111959.515625,P12,D12,1,1,1
2569,0.94,1645111959.53125,P12,D12,1,1,1
2570,0.43,1645111959.546875,P12,D12,1,1,1
2571,-0.03,1645111959.5625,P12,D12,1,1,1
2572,-0.34,1645111959.578125,P12,D12,1,1,1
2573,-0.49,1645111959.59375,P12,D12,1,1,1
2574,-0.53,1645111959.609375,P12,D12,1,1,1
2575,-0.53,1645111959.625,P12,D12,1,1,1
2576,-0.54,1645111959.640625,P12,D12,1,1,1
2577,-0.57,1645111959.65625,P12,D12,1,1,1
2578,-0.58,1645111959.671875,P12,D12,1,1,1
2579,-0.55,1645111959.6875,P12,D12,1,1,1
2580,-0.51,1645111959.703125,P12,D12,1,1,1
2581,-0.51,1645111959.71875,P12,D12,1,1,1
2582,-0.6,1645111959.734375,P12,D12,1,1,1
2583,-0.78,1645111959.75,P12,D12,1,1,1
2584,-0.98,1645111959.765625,P12,D12,1,1,1
2585,-1.1,1645111959.78125,P12,D12,1,1,1
2586,-1.08,1645111959.796875,P12,D12,1,1,1
2587,-0.89,1645111959.8125,P12,D12,1,1,1
2588,-0.59,1645111959.828125,P12,D12,1,1,1
2589,-0.27,1645111959.84375,P12,D12,1,1,1
2590,0.0,1645111959.859375,P12,D12,1,1,1
2591,0.2,1645111959.875,P12,D12,1,1,1
2592,0.34,1645111959.890625,P12,D12,1,1,1
2593,0.45,1645111959.90625,P12,D12,1,1,1
2594,0.54,1645111959.921875,P12,D12,1,1,1
2595,0.59,1645111959.9375,P12,D12,1,1,1
2596,0.57,1645111959.953125,P12,D12,1,1,1
2597,0.47,1645111959.96875,P12,D12,1,1,1
2598,0.31,1645111959.984375,P12,D12,1,1,1
2599,0.16,1645111960.0,P12,D12,1,1,1
2600,0.1,1645111960.015625,P12,D12,1,1,1
2601,0.16,1645111960.03125,P12,D12,1,1,1
2602,0.34,1645111960.046875,P12,D12,1,1,1
2603,0.53,1645111960.0625,P12,D12,1,1,1
2604,0.64,1645111960.078125,P12,D12,1,1,1
2605,0.61,1645111960.09375,P12,D12,1,1,1
2606,0.43,1645111960.109375,P12,D12,1,1,1
2607,0.16,1645111960.125,P12,D12,1,1,1
2608,-0.09,1645111960.140625,P12,D12,1,1,1
2609,-0.23,1645111960.15625,P12,D12,1,1,1
2610,-0.23,1645111960.171875,P12,D12,1,1,1
2611,-0.1,1645111960.1875,P12,D12,1,1,1
2612,0.1,1645111960.203125,P12,D12,1,1,1
2613,0.28,1645111960.21875,P12,D12,1,1,1
2614,0.38,1645111960.234375,P12,D12,1,1,1
2615,0.39,1645111960.25,P12,D12,1,1,1
2616,0.35,1645111960.265625,P12,D12,1,1,1
2617,0.3,1645111960.28125,P12,D12,1,1,1
2618,0.3,1645111960.296875,P12,D12,1,1,1
2619,0.34,1645111960.3125,P12,D12,1,1,1
2620,0.4,1645111960.328125,P12,D12,1,1,1
2621,0.42,1645111960.34375,P12,D12,1,1,1
2622,0.4,1645111960.359375,P12,D12,1,1,1
2623,0.33,1645111960.375,P12,D12,1,1,1
2624,0.22,1645111960.390625,P12,D12,1,1,1
2625,0.11,1645111960.40625,P12,D12,1,1,1
2626,-0.01,1645111960.421875,P12,D12,1,1,1
2627,-0.15,1645111960.4375,P12,D12,1,1,1
2628,-0.32,1645111960.453125,P12,D12,1,1,1
2629,-0.51,1645111960.46875,P12,D12,1,1,1
2630,-0.66,1645111960.484375,P12,D12,1,1,1
2631,-0.73,1645111960.5,P12,D12,1,1,1
2632,-0.67,1645111960.515625,P12,D12,1,1,1
2633,-0.48,1645111960.53125,P12,D12,1,1,1
2634,-0.23,1645111960.546875,P12,D12,1,1,1
2635,0.01,1645111960.5625,P12,D12,1,1,1
2636,0.17,1645111960.578125,P12,D12,1,1,1
2637,0.2,1645111960.59375,P12,D12,1,1,1
2638,0.13,1645111960.609375,P12,D12,1,1,1
2639,0.03,1645111960.625,P12,D12,1,1,1
2640,-0.06,1645111960.640625,P12,D12,1,1,1
2641,-0.07,1645111960.65625,P12,D12,1,1,1
2642,-0.04,1645111960.671875,P12,D12,1,1,1
2643,0.02,1645111960.6875,P12,D12,1,1,1
2644,0.05,1645111960.703125,P12,D12,1,1,1
2645,0.05,1645111960.71875,P12,D12,1,1,1
2646,0.03,1645111960.734375,P12,D12,1,1,1
2647,0.01,1645111960.75,P12,D12,1,1,1
2648,0.01,1645111960.765625,P12,D12,1,1,1
2649,0.02,1645111960.78125,P12,D12,1,1,1
2650,0.03,1645111960.796875,P12,D12,1,1,1
2651,0.03,1645111960.8125,P12,D12,1,1,1
2652,0.02,1645111960.828125,P12,D12,1,1,1
2653,-0.01,1645111960.84375,P12,D12,1,1,1
2654,-0.03,1645111960.859375,P12,D12,1,1,1
2655,-0.03,1645111960.875,P12,D12,1,1,1
2656,-0.02,1645111960.890625,P12,D12,1,1,1
2657,0.01,1645111960.90625,P12,D12,1,1,1
2658,0.02,1645111960.921875,P12,D12,1,1,1
2659,0.01,1645111960.9375,P12,D12,1,1,1
2660,-0.04,1645111960.953125,P12,D12,1,1,1
2661,-0.11,1645111960.96875,P12,D12,1,1,1
2662,-0.18,1645111960.984375,P12,D12,1,1,1
2663,-0.23,1645111961.0,P12,D12,1,1,1
2664,-0.23,1645111961.015625,P12,D12,1,1,1
2665,-0.14,1645111961.03125,P12,D12,1,1,1
2666,0.03,1645111961.046875,P12,D12,1,1,1
2667,0.28,1645111961.0625,P12,D12,1,1,1
2668,0.54,1645111961.078125,P12,D12,1,1,1
2669,0.75,1645111961.09375,P12,D12,1,1,1
2670,0.84,1645111961.109375,P12,D12,1,1,1
2671,0.79,1645111961.125,P12,D12,1,1,1
2672,0.62,1645111961.140625,P12,D12,1,1,1
2673,0.37,1645111961.15625,P12,D12,1,1,1
2674,0.11,1645111961.171875,P12,D12,1,1,1
2675,-0.15,1645111961.1875,P12,D12,1,1,1
2676,-0.42,1645111961.203125,P12,D12,1,1,1
2677,-0.73,1645111961.21875,P12,D12,1,1,1
2678,-1.05,1645111961.234375,P12,D12,1,1,1
2679,-1.33,1645111961.25,P12,D12,1,1,1
2680,-1.49,1645111961.265625,P12,D12,1,1,1
2681,-1.48,1645111961.28125,P12,D12,1,1,1
2682,-1.3,1645111961.296875,P12,D12,1,1,1
2683,-1.03,1645111961.3125,P12,D12,1,1,1
2684,-0.77,1645111961.328125,P12,D12,1,1,1
2685,-0.61,1645111961.34375,P12,D12,1,1,1
2686,-0.56,1645111961.359375,P12,D12,1,1,1
2687,-0.58,1645111961.375,P12,D12,1,1,1
2688,-0.61,1645111961.390625,P12,D12,1,1,1
2689,-0.6,1645111961.40625,P12,D12,1,1,1
2690,-0.52,1645111961.421875,P12,D12,1,1,1
2691,-0.38,1645111961.4375,P12,D12,1,1,1
2692,-0.19,1645111961.453125,P12,D12,1,1,1
2693,0.05,1645111961.46875,P12,D12,1,1,1
2694,0.35,1645111961.484375,P12,D12,1,1,1
2695,0.66,1645111961.5,P12,D12,1,1,1
2696,0.92,1645111961.515625,P12,D12,1,1,1
2697,1.06,1645111961.53125,P12,D12,1,1,1
2698,1.04,1645111961.546875,P12,D12,1,1,1
2699,0.89,1645111961.5625,P12,D12,1,1,1
2700,0.65,1645111961.578125,P12,D12,1,1,1
2701,0.45,1645111961.59375,P12,D12,1,1,1
2702,0.34,1645111961.609375,P12,D12,1,1,1
2703,0.33,1645111961.625,P12,D12,1,1,1
2704,0.41,1645111961.640625,P12,D12,1,1,1
2705,0.5,1645111961.65625,P12,D12,1,1,1
2706,0.57,1645111961.671875,P12,D12,1,1,1
2707,0.55,1645111961.6875,P12,D12,1,1,1
2708,0.45,1645111961.703125,P12,D12,1,1,1
2709,0.25,1645111961.71875,P12,D12,1,1,1
2710,0.0,1645111961.734375,P12,D12,1,1,1
2711,-0.24,1645111961.75,P12,D12,1,1,1
2712,-0.41,1645111961.765625,P12,D12,1,1,1
2713,-0.47,1645111961.78125,P12,D12,1,1,1
2714,-0.4,1645111961.796875,P12,D12,1,1,1
2715,-0.27,1645111961.8125,P12,D12,1,1,1
2716,-0.12,1645111961.828125,P12,D12,1,1,1
2717,-0.02,1645111961.84375,P12,D12,1,1,1
2718,-0.0,1645111961.859375,P12,D12,1,1,1
2719,-0.03,1645111961.875,P12,D12,1,1,1
2720,-0.06,1645111961.890625,P12,D12,1,1,1
2721,-0.03,1645111961.90625,P12,D12,1,1,1
2722,0.07,1645111961.921875,P12,D12,1,1,1
2723,0.2,1645111961.9375,P12,D12,1,1,1
2724,0.32,1645111961.953125,P12,D12,1,1,1
2725,0.37,1645111961.96875,P12,D12,1,1,1
2726,0.34,1645111961.984375,P12,D12,1,1,1
2727,0.28,1645111962.0,P12,D12,1,1,1
2728,0.22,1645111962.015625,P12,D12,1,1,1
2729,0.22,1645111962.03125,P12,D12,1,1,1
2730,0.24,1645111962.046875,P12,D12,1,1,1
2731,0.27,1645111962.0625,P12,D12,1,1,1
2732,0.23,1645111962.078125,P12,D12,1,1,1
2733,0.11,1645111962.09375,P12,D12,1,1,1
2734,-0.07,1645111962.109375,P12,D12,1,1,1
2735,-0.27,1645111962.125,P12,D12,1,1,1
2736,-0.43,1645111962.140625,P12,D12,1,1,1
2737,-0.53,1645111962.15625,P12,D12,1,1,1
2738,-0.54,1645111962.171875,P12,D12,1,1,1
2739,-0.49,1645111962.1875,P12,D12,1,1,1
2740,-0.38,1645111962.203125,P12,D12,1,1,1
2741,-0.23,1645111962.21875,P12,D12,1,1,1
2742,-0.06,1645111962.234375,P12,D12,1,1,1
2743,0.1,1645111962.25,P12,D12,1,1,1
2744,0.25,1645111962.265625,P12,D12,1,1,1
2745,0.38,1645111962.28125,P12,D12,1,1,1
2746,0.47,1645111962.296875,P12,D12,1,1,1
2747,0.52,1645111962.3125,P12,D12,1,1,1
2748,0.49,1645111962.328125,P12,D12,1,1,1
2749,0.38,1645111962.34375,P12,D12,1,1,1
2750,0.21,1645111962.359375,P12,D12,1,1,1
2751,0.02,1645111962.375,P12,D12,1,1,1
2752,-0.11,1645111962.390625,P12,D12,1,1,1
2753,-0.14,1645111962.40625,P12,D12,1,1,1
2754,-0.04,1645111962.421875,P12,D12,1,1,1
2755,0.12,1645111962.4375,P12,D12,1,1,1
2756,0.29,1645111962.453125,P12,D12,1,1,1
2757,0.4,1645111962.46875,P12,D12,1,1,1
2758,0.42,1645111962.484375,P12,D12,1,1,1
2759,0.34,1645111962.5,P12,D12,1,1,1
2760,0.18,1645111962.515625,P12,D12,1,1,1
2761,-0.02,1645111962.53125,P12,D12,1,1,1
2762,-0.25,1645111962.546875,P12,D12,1,1,1
2763,-0.47,1645111962.5625,P12,D12,1,1,1
2764,-0.64,1645111962.578125,P12,D12,1,1,1
2765,-0.73,1645111962.59375,P12,D12,1,1,1
2766,-0.74,1645111962.609375,P12,D12,1,1,1
2767,-0.68,1645111962.625,P12,D12,1,1,1
2768,-0.56,1645111962.640625,P12,D12,1,1,1
2769,-0.43,1645111962.65625,P12,D12,1,1,1
2770,-0.29,1645111962.671875,P12,D12,1,1,1
2771,-0.17,1645111962.6875,P12,D12,1,1,1
2772,-0.05,1645111962.703125,P12,D12,1,1,1
2773,0.04,1645111962.71875,P12,D12,1,1,1
2774,0.1,1645111962.734375,P12,D12,1,1,1
2775,0.09,1645111962.75,P12,D12,1,1,1
2776,0.04,1645111962.765625,P12,D12,1,1,1
2777,-0.03,1645111962.78125,P12,D12,1,1,1
2778,-0.05,1645111962.796875,P12,D12,1,1,1
2779,0.01,1645111962.8125,P12,D12,1,1,1
2780,0.14,1645111962.828125,P12,D12,1,1,1
2781,0.3,1645111962.84375,P12,D12,1,1,1
2782,0.38,1645111962.859375,P12,D12,1,1,1
2783,0.34,1645111962.875,P12,D12,1,1,1
2784,0.2,1645111962.890625,P12,D12,1,1,1
2785,0.04,1645111962.90625,P12,D12,1,1,1
2786,-0.04,1645111962.921875,P12,D12,1,1,1
2787,0.01,1645111962.9375,P12,D12,1,1,1
2788,0.17,1645111962.953125,P12,D12,1,1,1
2789,0.36,1645111962.96875,P12,D12,1,1,1
2790,0.51,1645111962.984375,P12,D12,1,1,1
2791,0.58,1645111963.0,P12,D12,1,1,1
2792,0.54,1645111963.015625,P12,D12,1,1,1
2793,0.39,1645111963.03125,P12,D12,1,1,1
2794,0.15,1645111963.046875,P12,D12,1,1,1
2795,-0.14,1645111963.0625,P12,D12,1,1,1
2796,-0.45,1645111963.078125,P12,D12,1,1,1
2797,-0.69,1645111963.09375,P12,D12,1,1,1
2798,-0.82,1645111963.109375,P12,D12,1,1,1
2799,-0.8,1645111963.125,P12,D12,1,1,1
2800,-0.66,1645111963.140625,P12,D12,1,1,1
2801,-0.45,1645111963.15625,P12,D12,1,1,1
2802,-0.21,1645111963.171875,P12,D12,1,1,1
2803,0.03,1645111963.1875,P12,D12,1,1,1
2804,0.26,1645111963.203125,P12,D12,1,1,1
2805,0.47,1645111963.21875,P12,D12,1,1,1
2806,0.63,1645111963.234375,P12,D12,1,1,1
2807,0.69,1645111963.25,P12,D12,1,1,1
2808,0.61,1645111963.265625,P12,D12,1,1,1
2809,0.4,1645111963.28125,P12,D12,1,1,1
2810,0.12,1645111963.296875,P12,D12,1,1,1
2811,-0.17,1645111963.3125,P12,D12,1,1,1
2812,-0.4,1645111963.328125,P12,D12,1,1,1
2813,-0.52,1645111963.34375,P12,D12,1,1,1
2814,-0.52,1645111963.359375,P12,D12,1,1,1
2815,-0.42,1645111963.375,P12,D12,1,1,1
2816,-0.24,1645111963.390625,P12,D12,1,1,1
2817,-0.07,1645111963.40625,P12,D12,1,1,1
2818,0.03,1645111963.421875,P12,D12,1,1,1
2819,0.02,1645111963.4375,P12,D12,1,1,1
2820,-0.09,1645111963.453125,P12,D12,1,1,1
2821,-0.24,1645111963.46875,P12,D12,1,1,1
2822,-0.32,1645111963.484375,P12,D12,1,1,1
2823,-0.26,1645111963.5,P12,D12,1,1,1
2824,-0.05,1645111963.515625,P12,D12,1,1,1
2825,0.3,1645111963.53125,P12,D12,1,1,1
2826,0.72,1645111963.546875,P12,D12,1,1,1
2827,1.1,1645111963.5625,P12,D12,1,1,1
2828,1.37,1645111963.578125,P12,D12,1,1,1
2829,1.46,1645111963.59375,P12,D12,1,1,1
2830,1.32,1645111963.609375,P12,D12,1,1,1
2831,0.96,1645111963.625,P12,D12,1,1,1
2832,0.45,1645111963.640625,P12,D12,1,1,1
2833,-0.09,1645111963.65625,P12,D12,1,1,1
2834,-0.52,1645111963.671875,P12,D12,1,1,1
2835,-0.74,1645111963.6875,P12,D12,1,1,1
2836,-0.72,1645111963.703125,P12,D12,1,1,1
2837,-0.57,1645111963.71875,P12,D12,1,1,1
2838,-0.43,1645111963.734375,P12,D12,1,1,1
2839,-0.43,1645111963.75,P12,D12,1,1,1
2840,-0.59,1645111963.765625,P12,D12,1,1,1
2841,-0.84,1645111963.78125,P12,D12,1,1,1
2842,-1.02,1645111963.796875,P12,D12,1,1,1
2843,-1.02,1645111963.8125,P12,D12,1,1,1
2844,-0.81,1645111963.828125,P12,D12,1,1,1
2845,-0.47,1645111963.84375,P12,D12,1,1,1
2846,-0.12,1645111963.859375,P12,D12,1,1,1
2847,0.15,1645111963.875,P12,D12,1,1,1
2848,0.31,1645111963.890625,P12,D12,1,1,1
2849,0.4,1645111963.90625,P12,D12,1,1,1
2850,0.45,1645111963.921875,P12,D12,1,1,1
2851,0.48,1645111963.9375,P12,D12,1,1,1
2852,0.47,1645111963.953125,P12,D12,1,1,1
2853,0.38,1645111963.96875,P12,D12,1,1,1
2854,0.18,1645111963.984375,P12,D12,1,1,1
2855,-0.09,1645111964.0,P12,D12,1,1,1
2856,-0.38,1645111964.015625,P12,D12,1,1,1
2857,-0.61,1645111964.03125,P12,D12,1,1,1
2858,-0.71,1645111964.046875,P12,D12,1,1,1
2859,-0.7,1645111964.0625,P12,D12,1,1,1
2860,-0.61,1645111964.078125,P12,D12,1,1,1
2861,-0.5,1645111964.09375,P12,D12,1,1,1
2862,-0.4,1645111964.109375,P12,D12,1,1,1
2863,-0.33,1645111964.125,P12,D12,1,1,1
2864,-0.24,1645111964.140625,P12,D12,1,1,1
2865,-0.12,1645111964.15625,P12,D12,1,1,1
2866,0.03,1645111964.171875,P12,D12,1,1,1
2867,0.16,1645111964.1875,P12,D12,1,1,1
2868,0.2,1645111964.203125,P12,D12,1,1,1
2869,0.11,1645111964.21875,P12,D12,1,1,1
2870,-0.09,1645111964.234375,P12,D12,1,1,1
2871,-0.28,1645111964.25,P12,D12,1,1,1
2872,-0.35,1645111964.265625,P12,D12,1,1,1
2873,-0.28,1645111964.28125,P12,D12,1,1,1
2874,-0.07,1645111964.296875,P12,D12,1,1,1
2875,0.17,1645111964.3125,P12,D12,1,1,1
2876,0.36,1645111964.328125,P12,D12,1,1,1
2877,0.45,1645111964.34375,P12,D12,1,1,1
2878,0.49,1645111964.359375,P12,D12,1,1,1
2879,0.52,1645111964.375,P12,D12,1,1,1
2880,0.55,1645111964.390625,P12,D12,1,1,1
2881,0.58,1645111964.40625,P12,D12,1,1,1
2882,0.53,1645111964.421875,P12,D12,1,1,1
2883,0.36,1645111964.4375,P12,D12,1,1,1
2884,0.07,1645111964.453125,P12,D12,1,1,1
2885,-0.25,1645111964.46875,P12,D12,1,1,1
2886,-0.47,1645111964.484375,P12,D12,1,1,1
2887,-0.49,1645111964.5,P12,D12,1,1,1
2888,-0.3,1645111964.515625,P12,D12,1,1,1
2889,0.04,1645111964.53125,P12,D12,1,1,1
2890,0.43,1645111964.546875,P12,D12,1,1,1
2891,0.73,1645111964.5625,P12,D12,1,1,1
2892,0.87,1645111964.578125,P12,D12,1,1,1
2893,0.83,1645111964.59375,P12,D12,1,1,1
2894,0.65,1645111964.609375,P12,D12,1,1,1
2895,0.37,1645111964.625,P12,D12,1,1,1
2896,0.05,1645111964.640625,P12,D12,1,1,1
2897,-0.28,1645111964.65625,P12,D12,1,1,1
2898,-0.56,1645111964.671875,P12,D12,1,1,1
2899,-0.74,1645111964.6875,P12,D12,1,1,1
2900,-0.76,1645111964.703125,P12,D12,1,1,1
2901,-0.61,1645111964.71875,P12,D12,1,1,1
2902,-0.33,1645111964.734375,P12,D12,1,1,1
2903,-0.0,1645111964.75,P12,D12,1,1,1
2904,0.31,1645111964.765625,P12,D12,1,1,1
2905,0.53,1645111964.78125,P12,D12,1,1,1
2906,0.66,1645111964.796875,P12,D12,1,1,1
2907,0.73,1645111964.8125,P12,D12,1,1,1
2908,0.76,1645111964.828125,P12,D12,1,1,1
2909,0.77,1645111964.84375,P12,D12,1,1,1
2910,0.73,1645111964.859375,P12,D12,1,1,1
2911,0.62,1645111964.875,P12,D12,1,1,1
2912,0.45,1645111964.890625,P12,D12,1,1,1
2913,0.26,1645111964.90625,P12,D12,1,1,1
2914,0.09,1645111964.921875,P12,D12,1,1,1
2915,-0.02,1645111964.9375,P12,D12,1,1,1
2916,-0.06,1645111964.953125,P12,D12,1,1,1
2917,-0.08,1645111964.96875,P12,D12,1,1,1
2918,-0.14,1645111964.984375,P12,D12,1,1,1
2919,-0.24,1645111965.0,P12,D12,1,1,1
