,data,timestamp,participant,document,val,arou,eng
0,0.57,1645110314.171875,P12,D06,0,0,0
1,0.52,1645110314.1875,P12,D06,0,0,0
2,0.4,1645110314.203125,P12,D06,0,0,0
3,0.23,1645110314.21875,P12,D06,0,0,0
4,0.0,1645110314.234375,P12,D06,0,0,0
5,-0.26,1645110314.25,P12,D06,0,0,0
6,-0.52,1645110314.265625,P12,D06,0,0,0
7,-0.72,1645110314.28125,P12,D06,0,0,0
8,-0.83,1645110314.296875,P12,D06,0,0,0
9,-0.86,1645110314.3125,P12,D06,0,0,0
10,-0.84,1645110314.328125,P12,D06,0,0,0
11,-0.83,1645110314.34375,P12,D06,0,0,0
12,-0.85,1645110314.359375,P12,D06,0,0,0
13,-0.88,1645110314.375,P12,D06,0,0,0
14,-0.89,1645110314.390625,P12,D06,0,0,0
15,-0.84,1645110314.40625,P12,D06,0,0,0
16,-0.76,1645110314.421875,P12,D06,0,0,0
17,-0.7,1645110314.4375,P12,D06,0,0,0
18,-0.69,1645110314.453125,P12,D06,0,0,0
19,-0.73,1645110314.46875,P12,D06,0,0,0
20,-0.75,1645110314.484375,P12,D06,0,0,0
21,-0.68,1645110314.5,P12,D06,0,0,0
22,-0.46,1645110314.515625,P12,D06,0,0,0
23,-0.1,1645110314.53125,P12,D06,0,0,0
24,0.32,1645110314.546875,P12,D06,0,0,0
25,0.69,1645110314.5625,P12,D06,0,0,0
26,0.94,1645110314.578125,P12,D06,0,0,0
27,1.02,1645110314.59375,P12,D06,0,0,0
28,0.92,1645110314.609375,P12,D06,0,0,0
29,0.71,1645110314.625,P12,D06,0,0,0
30,0.45,1645110314.640625,P12,D06,0,0,0
31,0.22,1645110314.65625,P12,D06,0,0,0
32,0.04,1645110314.671875,P12,D06,0,0,0
33,-0.12,1645110314.6875,P12,D06,0,0,0
34,-0.29,1645110314.703125,P12,D06,0,0,0
35,-0.47,1645110314.71875,P12,D06,0,0,0
36,-0.63,1645110314.734375,P12,D06,0,0,0
37,-0.68,1645110314.75,P12,D06,0,0,0
38,-0.54,1645110314.765625,P12,D06,0,0,0
39,-0.22,1645110314.78125,P12,D06,0,0,0
40,0.2,1645110314.796875,P12,D06,0,0,0
41,0.56,1645110314.8125,P12,D06,0,0,0
42,0.75,1645110314.828125,P12,D06,0,0,0
43,0.74,1645110314.84375,P12,D06,0,0,0
44,0.61,1645110314.859375,P12,D06,0,0,0
45,0.45,1645110314.875,P12,D06,0,0,0
46,0.32,1645110314.890625,P12,D06,0,0,0
47,0.23,1645110314.90625,P12,D06,0,0,0
48,0.14,1645110314.921875,P12,D06,0,0,0
49,0.05,1645110314.9375,P12,D06,0,0,0
50,-0.01,1645110314.953125,P12,D06,0,0,0
51,0.03,1645110314.96875,P12,D06,0,0,0
52,0.2,1645110314.984375,P12,D06,0,0,0
53,0.46,1645110315.0,P12,D06,0,0,0
54,0.71,1645110315.015625,P12,D06,0,0,0
55,0.89,1645110315.03125,P12,D06,0,0,0
56,0.98,1645110315.046875,P12,D06,0,0,0
57,1.0,1645110315.0625,P12,D06,0,0,0
58,1.01,1645110315.078125,P12,D06,0,0,0
59,1.03,1645110315.09375,P12,D06,0,0,0
60,1.04,1645110315.109375,P12,D06,0,0,0
61,1.0,1645110315.125,P12,D06,0,0,0
62,0.89,1645110315.140625,P12,D06,0,0,0
63,0.75,1645110315.15625,P12,D06,0,0,0
64,0.66,1645110315.171875,P12,D06,0,0,0
65,0.66,1645110315.1875,P12,D06,0,0,0
66,0.76,1645110315.203125,P12,D06,0,0,0
67,0.89,1645110315.21875,P12,D06,0,0,0
68,0.99,1645110315.234375,P12,D06,0,0,0
69,1.04,1645110315.25,P12,D06,0,0,0
70,1.07,1645110315.265625,P12,D06,0,0,0
71,1.16,1645110315.28125,P12,D06,0,0,0
72,1.37,1645110315.296875,P12,D06,0,0,0
73,1.7,1645110315.3125,P12,D06,0,0,0
74,2.11,1645110315.328125,P12,D06,0,0,0
75,2.54,1645110315.34375,P12,D06,0,0,0
76,2.96,1645110315.359375,P12,D06,0,0,0
77,3.37,1645110315.375,P12,D06,0,0,0
78,3.77,1645110315.390625,P12,D06,0,0,0
79,4.17,1645110315.40625,P12,D06,0,0,0
80,4.54,1645110315.421875,P12,D06,0,0,0
81,4.83,1645110315.4375,P12,D06,0,0,0
82,5.02,1645110315.453125,P12,D06,0,0,0
83,5.14,1645110315.46875,P12,D06,0,0,0
84,5.31,1645110315.484375,P12,D06,0,0,0
85,5.65,1645110315.5,P12,D06,0,0,0
86,6.26,1645110315.515625,P12,D06,0,0,0
87,7.14,1645110315.53125,P12,D06,0,0,0
88,8.17,1645110315.546875,P12,D06,0,0,0
89,9.17,1645110315.5625,P12,D06,0,0,0
90,10.02,1645110315.578125,P12,D06,0,0,0
91,10.68,1645110315.59375,P12,D06,0,0,0
92,11.27,1645110315.609375,P12,D06,0,0,0
93,11.93,1645110315.625,P12,D06,0,0,0
94,12.77,1645110315.640625,P12,D06,0,0,0
95,13.8,1645110315.65625,P12,D06,0,0,0
96,14.93,1645110315.671875,P12,D06,0,0,0
97,16.07,1645110315.6875,P12,D06,0,0,0
98,17.2,1645110315.703125,P12,D06,0,0,0
99,18.39,1645110315.71875,P12,D06,0,0,0
100,19.74,1645110315.734375,P12,D06,0,0,0
101,21.25,1645110315.75,P12,D06,0,0,0
102,22.69,1645110315.765625,P12,D06,0,0,0
103,23.67,1645110315.78125,P12,D06,0,0,0
104,23.75,1645110315.796875,P12,D06,0,0,0
105,22.67,1645110315.8125,P12,D06,0,0,0
106,20.48,1645110315.828125,P12,D06,0,0,0
107,17.54,1645110315.84375,P12,D06,0,0,0
108,14.3,1645110315.859375,P12,D06,0,0,0
109,11.13,1645110315.875,P12,D06,0,0,0
110,8.19,1645110315.890625,P12,D06,0,0,0
111,5.44,1645110315.90625,P12,D06,0,0,0
112,2.82,1645110315.921875,P12,D06,0,0,0
113,0.38,1645110315.9375,P12,D06,0,0,0
114,-1.76,1645110315.953125,P12,D06,0,0,0
115,-3.43,1645110315.96875,P12,D06,0,0,0
116,-4.64,1645110315.984375,P12,D06,0,0,0
117,-5.54,1645110316.0,P12,D06,0,0,0
118,-6.43,1645110316.015625,P12,D06,0,0,0
119,-7.55,1645110316.03125,P12,D06,0,0,0
120,-9.0,1645110316.046875,P12,D06,0,0,0
121,-10.7,1645110316.0625,P12,D06,0,0,0
122,-12.47,1645110316.078125,P12,D06,0,0,0
123,-14.14,1645110316.09375,P12,D06,0,0,0
124,-15.63,1645110316.109375,P12,D06,0,0,0
125,-16.9,1645110316.125,P12,D06,0,0,0
126,-17.94,1645110316.140625,P12,D06,0,0,0
127,-18.69,1645110316.15625,P12,D06,0,0,0
128,-19.09,1645110316.171875,P12,D06,0,0,0
129,-19.08,1645110316.1875,P12,D06,0,0,0
130,-18.64,1645110316.203125,P12,D06,0,0,0
131,-17.83,1645110316.21875,P12,D06,0,0,0
132,-16.68,1645110316.234375,P12,D06,0,0,0
133,-15.3,1645110316.25,P12,D06,0,0,0
134,-13.77,1645110316.265625,P12,D06,0,0,0
135,-12.25,1645110316.28125,P12,D06,0,0,0
136,-10.87,1645110316.296875,P12,D06,0,0,0
137,-9.72,1645110316.3125,P12,D06,0,0,0
138,-8.83,1645110316.328125,P12,D06,0,0,0
139,-8.13,1645110316.34375,P12,D06,0,0,0
140,-7.51,1645110316.359375,P12,D06,0,0,0
141,-6.86,1645110316.375,P12,D06,0,0,0
142,-6.19,1645110316.390625,P12,D06,0,0,0
143,-5.62,1645110316.40625,P12,D06,0,0,0
144,-5.37,1645110316.421875,P12,D06,0,0,0
145,-5.68,1645110316.4375,P12,D06,0,0,0
146,-6.7,1645110316.453125,P12,D06,0,0,0
147,-8.42,1645110316.46875,P12,D06,0,0,0
148,-10.63,1645110316.484375,P12,D06,0,0,0
149,-13.01,1645110316.5,P12,D06,0,0,0
150,-15.15,1645110316.515625,P12,D06,0,0,0
151,-16.69,1645110316.53125,P12,D06,0,0,0
152,-17.4,1645110316.546875,P12,D06,0,0,0
153,-17.23,1645110316.5625,P12,D06,0,0,0
154,-16.3,1645110316.578125,P12,D06,0,0,0
155,-14.99,1645110316.59375,P12,D06,0,0,0
156,-13.87,1645110316.609375,P12,D06,0,0,0
157,-13.7,1645110316.625,P12,D06,0,0,0
158,-15.2,1645110316.640625,P12,D06,0,0,0
159,-18.73,1645110316.65625,P12,D06,0,0,0
160,-24.05,1645110316.671875,P12,D06,0,0,0
161,-30.27,1645110316.6875,P12,D06,0,0,0
162,-36.15,1645110316.703125,P12,D06,0,0,0
163,-40.53,1645110316.71875,P12,D06,0,0,0
164,-42.81,1645110316.734375,P12,D06,0,0,0
165,-43.09,1645110316.75,P12,D06,0,0,0
166,-42.06,1645110316.765625,P12,D06,0,0,0
167,-40.62,1645110316.78125,P12,D06,0,0,0
168,-39.44,1645110316.796875,P12,D06,0,0,0
169,-38.89,1645110316.8125,P12,D06,0,0,0
170,-38.91,1645110316.828125,P12,D06,0,0,0
171,-39.22,1645110316.84375,P12,D06,0,0,0
172,-39.34,1645110316.859375,P12,D06,0,0,0
173,-38.73,1645110316.875,P12,D06,0,0,0
174,-36.87,1645110316.890625,P12,D06,0,0,0
175,-33.55,1645110316.90625,P12,D06,0,0,0
176,-29.05,1645110316.921875,P12,D06,0,0,0
177,-24.24,1645110316.9375,P12,D06,0,0,0
178,-20.39,1645110316.953125,P12,D06,0,0,0
179,-18.64,1645110316.96875,P12,D06,0,0,0
180,-19.64,1645110316.984375,P12,D06,0,0,0
181,-23.2,1645110317.0,P12,D06,0,0,0
182,-28.52,1645110317.015625,P12,D06,0,0,0
183,-34.58,1645110317.03125,P12,D06,0,0,0
184,-40.6,1645110317.046875,P12,D06,0,0,0
185,-46.28,1645110317.0625,P12,D06,0,0,0
186,-51.7,1645110317.078125,P12,D06,0,0,0
187,-57.1,1645110317.09375,P12,D06,0,0,0
188,-62.59,1645110317.109375,P12,D06,0,0,0
189,-68.12,1645110317.125,P12,D06,0,0,0
190,-73.43,1645110317.140625,P12,D06,0,0,0
191,-78.12,1645110317.15625,P12,D06,0,0,0
192,-81.53,1645110317.171875,P12,D06,0,0,0
193,-82.58,1645110317.1875,P12,D06,0,0,0
194,-79.7,1645110317.203125,P12,D06,0,0,0
195,-71.16,1645110317.21875,P12,D06,0,0,0
196,-55.75,1645110317.234375,P12,D06,0,0,0
197,-33.51,1645110317.25,P12,D06,0,0,0
198,-6.11,1645110317.265625,P12,D06,0,0,0
199,23.47,1645110317.28125,P12,D06,0,0,0
200,51.77,1645110317.296875,P12,D06,0,0,0
201,75.89,1645110317.3125,P12,D06,0,0,0
202,94.17,1645110317.328125,P12,D06,0,0,0
203,106.35,1645110317.34375,P12,D06,0,0,0
204,113.27,1645110317.359375,P12,D06,0,0,0
205,116.34,1645110317.375,P12,D06,0,0,0
206,117.07,1645110317.390625,P12,D06,0,0,0
207,116.83,1645110317.40625,P12,D06,0,0,0
208,116.77,1645110317.421875,P12,D06,0,0,0
209,117.61,1645110317.4375,P12,D06,0,0,0
210,119.57,1645110317.453125,P12,D06,0,0,0
211,122.37,1645110317.46875,P12,D06,0,0,0
212,125.28,1645110317.484375,P12,D06,0,0,0
213,127.55,1645110317.5,P12,D06,0,0,0
214,128.77,1645110317.515625,P12,D06,0,0,0
215,128.99,1645110317.53125,P12,D06,0,0,0
216,128.76,1645110317.546875,P12,D06,0,0,0
217,128.98,1645110317.5625,P12,D06,0,0,0
218,130.66,1645110317.578125,P12,D06,0,0,0
219,134.36,1645110317.59375,P12,D06,0,0,0
220,139.53,1645110317.609375,P12,D06,0,0,0
221,144.08,1645110317.625,P12,D06,0,0,0
222,144.65,1645110317.640625,P12,D06,0,0,0
223,137.77,1645110317.65625,P12,D06,0,0,0
224,121.58,1645110317.671875,P12,D06,0,0,0
225,97.19,1645110317.6875,P12,D06,0,0,0
226,68.65,1645110317.703125,P12,D06,0,0,0
227,41.52,1645110317.71875,P12,D06,0,0,0
228,20.55,1645110317.734375,P12,D06,0,0,0
229,7.71,1645110317.75,P12,D06,0,0,0
230,1.61,1645110317.765625,P12,D06,0,0,0
231,-1.31,1645110317.78125,P12,D06,0,0,0
232,-4.8,1645110317.796875,P12,D06,0,0,0
233,-11.06,1645110317.8125,P12,D06,0,0,0
234,-20.16,1645110317.828125,P12,D06,0,0,0
235,-30.74,1645110317.84375,P12,D06,0,0,0
236,-41.33,1645110317.859375,P12,D06,0,0,0
237,-51.21,1645110317.875,P12,D06,0,0,0
238,-60.51,1645110317.890625,P12,D06,0,0,0
239,-69.61,1645110317.90625,P12,D06,0,0,0
240,-78.37,1645110317.921875,P12,D06,0,0,0
241,-85.92,1645110317.9375,P12,D06,0,0,0
242,-90.97,1645110317.953125,P12,D06,0,0,0
243,-92.41,1645110317.96875,P12,D06,0,0,0
244,-90.05,1645110317.984375,P12,D06,0,0,0
245,-84.9,1645110318.0,P12,D06,0,0,0
246,-78.91,1645110318.015625,P12,D06,0,0,0
247,-74.2,1645110318.03125,P12,D06,0,0,0
248,-72.38,1645110318.046875,P12,D06,0,0,0
249,-73.83,1645110318.0625,P12,D06,0,0,0
250,-77.67,1645110318.078125,P12,D06,0,0,0
251,-82.2,1645110318.09375,P12,D06,0,0,0
252,-85.65,1645110318.109375,P12,D06,0,0,0
253,-87.03,1645110318.125,P12,D06,0,0,0
254,-86.44,1645110318.140625,P12,D06,0,0,0
255,-84.86,1645110318.15625,P12,D06,0,0,0
256,-83.44,1645110318.171875,P12,D06,0,0,0
257,-82.64,1645110318.1875,P12,D06,0,0,0
258,-81.92,1645110318.203125,P12,D06,0,0,0
259,-79.95,1645110318.21875,P12,D06,0,0,0
260,-75.36,1645110318.234375,P12,D06,0,0,0
261,-67.39,1645110318.25,P12,D06,0,0,0
262,-56.29,1645110318.265625,P12,D06,0,0,0
263,-42.99,1645110318.28125,P12,D06,0,0,0
264,-28.61,1645110318.296875,P12,D06,0,0,0
265,-13.99,1645110318.3125,P12,D06,0,0,0
266,0.33,1645110318.328125,P12,D06,0,0,0
267,13.93,1645110318.34375,P12,D06,0,0,0
268,26.26,1645110318.359375,P12,D06,0,0,0
269,36.66,1645110318.375,P12,D06,0,0,0
270,44.67,1645110318.390625,P12,D06,0,0,0
271,50.27,1645110318.40625,P12,D06,0,0,0
272,54.02,1645110318.421875,P12,D06,0,0,0
273,56.88,1645110318.4375,P12,D06,0,0,0
274,59.85,1645110318.453125,P12,D06,0,0,0
275,63.61,1645110318.46875,P12,D06,0,0,0
276,68.41,1645110318.484375,P12,D06,0,0,0
277,74.04,1645110318.5,P12,D06,0,0,0
278,79.92,1645110318.515625,P12,D06,0,0,0
279,85.24,1645110318.53125,P12,D06,0,0,0
280,89.15,1645110318.546875,P12,D06,0,0,0
281,91.07,1645110318.5625,P12,D06,0,0,0
282,91.0,1645110318.578125,P12,D06,0,0,0
283,89.6,1645110318.59375,P12,D06,0,0,0
284,87.99,1645110318.609375,P12,D06,0,0,0
285,87.27,1645110318.625,P12,D06,0,0,0
286,87.99,1645110318.640625,P12,D06,0,0,0
287,89.9,1645110318.65625,P12,D06,0,0,0
288,92.21,1645110318.671875,P12,D06,0,0,0
289,93.87,1645110318.6875,P12,D06,0,0,0
290,94.16,1645110318.703125,P12,D06,0,0,0
291,92.78,1645110318.71875,P12,D06,0,0,0
292,89.8,1645110318.734375,P12,D06,0,0,0
293,85.57,1645110318.75,P12,D06,0,0,0
294,80.5,1645110318.765625,P12,D06,0,0,0
295,75.04,1645110318.78125,P12,D06,0,0,0
296,69.79,1645110318.796875,P12,D06,0,0,0
297,65.44,1645110318.8125,P12,D06,0,0,0
298,62.43,1645110318.828125,P12,D06,0,0,0
299,60.23,1645110318.84375,P12,D06,0,0,0
300,56.97,1645110318.859375,P12,D06,0,0,0
301,49.73,1645110318.875,P12,D06,0,0,0
302,35.71,1645110318.890625,P12,D06,0,0,0
303,13.89,1645110318.90625,P12,D06,0,0,0
304,-13.89,1645110318.921875,P12,D06,0,0,0
305,-43.22,1645110318.9375,P12,D06,0,0,0
306,-68.73,1645110318.953125,P12,D06,0,0,0
307,-86.32,1645110318.96875,P12,D06,0,0,0
308,-94.75,1645110318.984375,P12,D06,0,0,0
309,-95.75,1645110319.0,P12,D06,0,0,0
310,-92.66,1645110319.015625,P12,D06,0,0,0
311,-88.5,1645110319.03125,P12,D06,0,0,0
312,-84.67,1645110319.046875,P12,D06,0,0,0
313,-80.9,1645110319.0625,P12,D06,0,0,0
314,-76.27,1645110319.078125,P12,D06,0,0,0
315,-70.46,1645110319.09375,P12,D06,0,0,0
316,-64.26,1645110319.109375,P12,D06,0,0,0
317,-59.08,1645110319.125,P12,D06,0,0,0
318,-56.02,1645110319.140625,P12,D06,0,0,0
319,-55.14,1645110319.15625,P12,D06,0,0,0
320,-55.4,1645110319.171875,P12,D06,0,0,0
321,-55.36,1645110319.1875,P12,D06,0,0,0
322,-53.87,1645110319.203125,P12,D06,0,0,0
323,-50.67,1645110319.21875,P12,D06,0,0,0
324,-46.38,1645110319.234375,P12,D06,0,0,0
325,-42.07,1645110319.25,P12,D06,0,0,0
326,-38.68,1645110319.265625,P12,D06,0,0,0
327,-36.62,1645110319.28125,P12,D06,0,0,0
328,-35.62,1645110319.296875,P12,D06,0,0,0
329,-34.98,1645110319.3125,P12,D06,0,0,0
330,-33.89,1645110319.328125,P12,D06,0,0,0
331,-31.87,1645110319.34375,P12,D06,0,0,0
332,-28.91,1645110319.359375,P12,D06,0,0,0
333,-25.45,1645110319.375,P12,D06,0,0,0
334,-22.14,1645110319.390625,P12,D06,0,0,0
335,-19.51,1645110319.40625,P12,D06,0,0,0
336,-17.78,1645110319.421875,P12,D06,0,0,0
337,-16.8,1645110319.4375,P12,D06,0,0,0
338,-16.18,1645110319.453125,P12,D06,0,0,0
339,-15.52,1645110319.46875,P12,D06,0,0,0
340,-14.56,1645110319.484375,P12,D06,0,0,0
341,-13.32,1645110319.5,P12,D06,0,0,0
342,-11.97,1645110319.515625,P12,D06,0,0,0
343,-10.76,1645110319.53125,P12,D06,0,0,0
344,-9.82,1645110319.546875,P12,D06,0,0,0
345,-9.15,1645110319.5625,P12,D06,0,0,0
346,-8.61,1645110319.578125,P12,D06,0,0,0
347,-8.0,1645110319.59375,P12,D06,0,0,0
348,-7.21,1645110319.609375,P12,D06,0,0,0
349,-6.22,1645110319.625,P12,D06,0,0,0
350,-5.14,1645110319.640625,P12,D06,0,0,0
351,-4.11,1645110319.65625,P12,D06,0,0,0
352,-3.2,1645110319.671875,P12,D06,0,0,0
353,-2.36,1645110319.6875,P12,D06,0,0,0
354,-1.45,1645110319.703125,P12,D06,0,0,0
355,-0.34,1645110319.71875,P12,D06,0,0,0
356,1.01,1645110319.734375,P12,D06,0,0,0
357,2.45,1645110319.75,P12,D06,0,0,0
358,3.72,1645110319.765625,P12,D06,0,0,0
359,4.57,1645110319.78125,P12,D06,0,0,0
360,4.89,1645110319.796875,P12,D06,0,0,0
361,4.75,1645110319.8125,P12,D06,0,0,0
362,4.42,1645110319.828125,P12,D06,0,0,0
363,4.16,1645110319.84375,P12,D06,0,0,0
364,4.14,1645110319.859375,P12,D06,0,0,0
365,4.37,1645110319.875,P12,D06,0,0,0
366,4.71,1645110319.890625,P12,D06,0,0,0
367,5.04,1645110319.90625,P12,D06,0,0,0
368,5.33,1645110319.921875,P12,D06,0,0,0
369,5.61,1645110319.9375,P12,D06,0,0,0
370,5.99,1645110319.953125,P12,D06,0,0,0
371,6.45,1645110319.96875,P12,D06,0,0,0
372,6.88,1645110319.984375,P12,D06,0,0,0
373,7.09,1645110320.0,P12,D06,0,0,0
374,6.93,1645110320.015625,P12,D06,0,0,0
375,6.38,1645110320.03125,P12,D06,0,0,0
376,5.56,1645110320.046875,P12,D06,0,0,0
377,4.68,1645110320.0625,P12,D06,0,0,0
378,3.88,1645110320.078125,P12,D06,0,0,0
379,3.22,1645110320.09375,P12,D06,0,0,0
380,2.6,1645110320.109375,P12,D06,0,0,0
381,1.89,1645110320.125,P12,D06,0,0,0
382,0.95,1645110320.140625,P12,D06,0,0,0
383,-0.26,1645110320.15625,P12,D06,0,0,0
384,-1.68,1645110320.171875,P12,D06,0,0,0
385,-3.15,1645110320.1875,P12,D06,0,0,0
386,-4.47,1645110320.203125,P12,D06,0,0,0
387,-5.5,1645110320.21875,P12,D06,0,0,0
388,-6.16,1645110320.234375,P12,D06,0,0,0
389,-6.52,1645110320.25,P12,D06,0,0,0
390,-6.77,1645110320.265625,P12,D06,0,0,0
391,-7.14,1645110320.28125,P12,D06,0,0,0
392,-7.84,1645110320.296875,P12,D06,0,0,0
393,-8.93,1645110320.3125,P12,D06,0,0,0
394,-10.3,1645110320.328125,P12,D06,0,0,0
395,-11.75,1645110320.34375,P12,D06,0,0,0
396,-13.03,1645110320.359375,P12,D06,0,0,0
397,-13.99,1645110320.375,P12,D06,0,0,0
398,-14.72,1645110320.390625,P12,D06,0,0,0
399,-15.54,1645110320.40625,P12,D06,0,0,0
400,-16.92,1645110320.421875,P12,D06,0,0,0
401,-19.26,1645110320.4375,P12,D06,0,0,0
402,-22.72,1645110320.453125,P12,D06,0,0,0
403,-27.08,1645110320.46875,P12,D06,0,0,0
404,-31.7,1645110320.484375,P12,D06,0,0,0
405,-35.82,1645110320.5,P12,D06,0,0,0
406,-38.8,1645110320.515625,P12,D06,0,0,0
407,-40.47,1645110320.53125,P12,D06,0,0,0
408,-41.25,1645110320.546875,P12,D06,0,0,0
409,-41.95,1645110320.5625,P12,D06,0,0,0
410,-43.47,1645110320.578125,P12,D06,0,0,0
411,-46.34,1645110320.59375,P12,D06,0,0,0
412,-50.49,1645110320.609375,P12,D06,0,0,0
413,-55.32,1645110320.625,P12,D06,0,0,0
414,-59.98,1645110320.640625,P12,D06,0,0,0
415,-63.79,1645110320.65625,P12,D06,0,0,0
416,-66.53,1645110320.671875,P12,D06,0,0,0
417,-68.44,1645110320.6875,P12,D06,0,0,0
418,-70.13,1645110320.703125,P12,D06,0,0,0
419,-72.51,1645110320.71875,P12,D06,0,0,0
420,-76.59,1645110320.734375,P12,D06,0,0,0
421,-83.26,1645110320.75,P12,D06,0,0,0
422,-92.7,1645110320.765625,P12,D06,0,0,0
423,-103.61,1645110320.78125,P12,D06,0,0,0
424,-112.71,1645110320.796875,P12,D06,0,0,0
425,-115.21,1645110320.8125,P12,D06,0,0,0
426,-106.24,1645110320.828125,P12,D06,0,0,0
427,-83.0,1645110320.84375,P12,D06,0,0,0
428,-46.32,1645110320.859375,P12,D06,0,0,0
429,-0.78,1645110320.875,P12,D06,0,0,0
430,46.83,1645110320.890625,P12,D06,0,0,0
431,90.05,1645110320.90625,P12,D06,0,0,0
432,124.81,1645110320.921875,P12,D06,0,0,0
433,150.21,1645110320.9375,P12,D06,0,0,0
434,167.61,1645110320.953125,P12,D06,0,0,0
435,179.02,1645110320.96875,P12,D06,0,0,0
436,185.82,1645110320.984375,P12,D06,0,0,0
437,188.51,1645110321.0,P12,D06,0,0,0
438,187.29,1645110321.015625,P12,D06,0,0,0
439,182.67,1645110321.03125,P12,D06,0,0,0
440,175.55,1645110321.046875,P12,D06,0,0,0
441,166.46,1645110321.0625,P12,D06,0,0,0
442,154.92,1645110321.078125,P12,D06,0,0,0
443,139.44,1645110321.09375,P12,D06,0,0,0
444,118.51,1645110321.109375,P12,D06,0,0,0
445,91.95,1645110321.125,P12,D06,0,0,0
446,61.78,1645110321.140625,P12,D06,0,0,0
447,31.87,1645110321.15625,P12,D06,0,0,0
448,6.36,1645110321.171875,P12,D06,0,0,0
449,-12.06,1645110321.1875,P12,D06,0,0,0
450,-23.18,1645110321.203125,P12,D06,0,0,0
451,-29.04,1645110321.21875,P12,D06,0,0,0
452,-32.55,1645110321.234375,P12,D06,0,0,0
453,-35.96,1645110321.25,P12,D06,0,0,0
454,-39.94,1645110321.265625,P12,D06,0,0,0
455,-43.75,1645110321.28125,P12,D06,0,0,0
456,-46.17,1645110321.296875,P12,D06,0,0,0
457,-46.54,1645110321.3125,P12,D06,0,0,0
458,-45.11,1645110321.328125,P12,D06,0,0,0
459,-42.76,1645110321.34375,P12,D06,0,0,0
460,-40.34,1645110321.359375,P12,D06,0,0,0
461,-38.08,1645110321.375,P12,D06,0,0,0
462,-35.6,1645110321.390625,P12,D06,0,0,0
463,-32.28,1645110321.40625,P12,D06,0,0,0
464,-27.84,1645110321.421875,P12,D06,0,0,0
465,-22.61,1645110321.4375,P12,D06,0,0,0
466,-17.39,1645110321.453125,P12,D06,0,0,0
467,-13.08,1645110321.46875,P12,D06,0,0,0
468,-10.25,1645110321.484375,P12,D06,0,0,0
469,-8.88,1645110321.5,P12,D06,0,0,0
470,-8.38,1645110321.515625,P12,D06,0,0,0
471,-8.01,1645110321.53125,P12,D06,0,0,0
472,-7.17,1645110321.546875,P12,D06,0,0,0
473,-5.72,1645110321.5625,P12,D06,0,0,0
474,-3.99,1645110321.578125,P12,D06,0,0,0
475,-2.55,1645110321.59375,P12,D06,0,0,0
476,-1.87,1645110321.609375,P12,D06,0,0,0
477,-2.09,1645110321.625,P12,D06,0,0,0
478,-2.95,1645110321.640625,P12,D06,0,0,0
479,-3.96,1645110321.65625,P12,D06,0,0,0
480,-4.62,1645110321.671875,P12,D06,0,0,0
481,-4.72,1645110321.6875,P12,D06,0,0,0
482,-4.37,1645110321.703125,P12,D06,0,0,0
483,-3.89,1645110321.71875,P12,D06,0,0,0
484,-3.67,1645110321.734375,P12,D06,0,0,0
485,-3.91,1645110321.75,P12,D06,0,0,0
486,-4.57,1645110321.765625,P12,D06,0,0,0
487,-5.38,1645110321.78125,P12,D06,0,0,0
488,-6.04,1645110321.796875,P12,D06,0,0,0
489,-6.31,1645110321.8125,P12,D06,0,0,0
490,-6.15,1645110321.828125,P12,D06,0,0,0
491,-5.66,1645110321.84375,P12,D06,0,0,0
492,-5.07,1645110321.859375,P12,D06,0,0,0
493,-4.55,1645110321.875,P12,D06,0,0,0
494,-4.23,1645110321.890625,P12,D06,0,0,0
495,-4.09,1645110321.90625,P12,D06,0,0,0
496,-3.98,1645110321.921875,P12,D06,0,0,0
497,-3.7,1645110321.9375,P12,D06,0,0,0
498,-3.05,1645110321.953125,P12,D06,0,0,0
499,-1.95,1645110321.96875,P12,D06,0,0,0
500,-0.46,1645110321.984375,P12,D06,0,0,0
501,1.17,1645110322.0,P12,D06,0,0,0
502,2.67,1645110322.015625,P12,D06,0,0,0
503,3.75,1645110322.03125,P12,D06,0,0,0
504,4.28,1645110322.046875,P12,D06,0,0,0
505,4.32,1645110322.0625,P12,D06,0,0,0
506,4.12,1645110322.078125,P12,D06,0,0,0
507,3.97,1645110322.09375,P12,D06,0,0,0
508,4.13,1645110322.109375,P12,D06,0,0,0
509,4.74,1645110322.125,P12,D06,0,0,0
510,5.74,1645110322.140625,P12,D06,0,0,0
511,6.97,1645110322.15625,P12,D06,0,0,0
512,8.22,1645110322.171875,P12,D06,0,0,0
513,9.39,1645110322.1875,P12,D06,0,0,0
514,10.41,1645110322.203125,P12,D06,0,0,0
515,11.28,1645110322.21875,P12,D06,0,0,0
516,11.94,1645110322.234375,P12,D06,0,0,0
517,12.31,1645110322.25,P12,D06,0,0,0
518,12.26,1645110322.265625,P12,D06,0,0,0
519,11.73,1645110322.28125,P12,D06,0,0,0
520,10.77,1645110322.296875,P12,D06,0,0,0
521,9.55,1645110322.3125,P12,D06,0,0,0
522,8.29,1645110322.328125,P12,D06,0,0,0
523,7.18,1645110322.34375,P12,D06,0,0,0
524,6.3,1645110322.359375,P12,D06,0,0,0
525,5.59,1645110322.375,P12,D06,0,0,0
526,5.01,1645110322.390625,P12,D06,0,0,0
527,4.46,1645110322.40625,P12,D06,0,0,0
528,3.95,1645110322.421875,P12,D06,0,0,0
529,3.47,1645110322.4375,P12,D06,0,0,0
530,3.04,1645110322.453125,P12,D06,0,0,0
531,2.64,1645110322.46875,P12,D06,0,0,0
532,2.27,1645110322.484375,P12,D06,0,0,0
533,1.95,1645110322.5,P12,D06,0,0,0
534,1.73,1645110322.515625,P12,D06,0,0,0
535,1.66,1645110322.53125,P12,D06,0,0,0
536,1.75,1645110322.546875,P12,D06,0,0,0
537,1.93,1645110322.5625,P12,D06,0,0,0
538,2.1,1645110322.578125,P12,D06,0,0,0
539,2.19,1645110322.59375,P12,D06,0,0,0
540,2.14,1645110322.609375,P12,D06,0,0,0
541,2.0,1645110322.625,P12,D06,0,0,0
542,1.82,1645110322.640625,P12,D06,0,0,0
543,1.64,1645110322.65625,P12,D06,0,0,0
544,1.48,1645110322.671875,P12,D06,0,0,0
545,1.35,1645110322.6875,P12,D06,0,0,0
546,1.24,1645110322.703125,P12,D06,0,0,0
547,1.19,1645110322.71875,P12,D06,0,0,0
548,1.22,1645110322.734375,P12,D06,0,0,0
549,1.31,1645110322.75,P12,D06,0,0,0
550,1.41,1645110322.765625,P12,D06,0,0,0
551,1.46,1645110322.78125,P12,D06,0,0,0
552,1.44,1645110322.796875,P12,D06,0,0,0
553,1.37,1645110322.8125,P12,D06,0,0,0
554,1.3,1645110322.828125,P12,D06,0,0,0
555,1.25,1645110322.84375,P12,D06,0,0,0
556,1.24,1645110322.859375,P12,D06,0,0,0
557,1.2,1645110322.875,P12,D06,0,0,0
558,1.08,1645110322.890625,P12,D06,0,0,0
559,0.88,1645110322.90625,P12,D06,0,0,0
560,0.63,1645110322.921875,P12,D06,0,0,0
561,0.38,1645110322.9375,P12,D06,0,0,0
562,0.18,1645110322.953125,P12,D06,0,0,0
563,0.03,1645110322.96875,P12,D06,0,0,0
564,-0.1,1645110322.984375,P12,D06,0,0,0
565,-0.22,1645110323.0,P12,D06,0,0,0
566,-0.32,1645110323.015625,P12,D06,0,0,0
567,-0.36,1645110323.03125,P12,D06,0,0,0
568,-0.32,1645110323.046875,P12,D06,0,0,0
569,-0.22,1645110323.0625,P12,D06,0,0,0
570,-0.12,1645110323.078125,P12,D06,0,0,0
571,-0.08,1645110323.09375,P12,D06,0,0,0
572,-0.14,1645110323.109375,P12,D06,0,0,0
573,-0.29,1645110323.125,P12,D06,0,0,0
574,-0.51,1645110323.140625,P12,D06,0,0,0
575,-0.75,1645110323.15625,P12,D06,0,0,0
576,-1.01,1645110323.171875,P12,D06,0,0,0
577,-1.24,1645110323.1875,P12,D06,0,0,0
578,-1.42,1645110323.203125,P12,D06,0,0,0
579,-1.51,1645110323.21875,P12,D06,0,0,0
580,-1.46,1645110323.234375,P12,D06,0,0,0
581,-1.29,1645110323.25,P12,D06,0,0,0
582,-1.07,1645110323.265625,P12,D06,0,0,0
583,-0.88,1645110323.28125,P12,D06,0,0,0
584,-0.78,1645110323.296875,P12,D06,0,0,0
585,-0.77,1645110323.3125,P12,D06,0,0,0
586,-0.8,1645110323.328125,P12,D06,0,0,0
587,-0.8,1645110323.34375,P12,D06,0,0,0
588,-0.72,1645110323.359375,P12,D06,0,0,0
589,-0.55,1645110323.375,P12,D06,0,0,0
590,-0.33,1645110323.390625,P12,D06,0,0,0
591,-0.11,1645110323.40625,P12,D06,0,0,0
592,0.09,1645110323.421875,P12,D06,0,0,0
593,0.27,1645110323.4375,P12,D06,0,0,0
594,0.43,1645110323.453125,P12,D06,0,0,0
595,0.59,1645110323.46875,P12,D06,0,0,0
596,0.72,1645110323.484375,P12,D06,0,0,0
597,0.81,1645110323.5,P12,D06,0,0,0
598,0.83,1645110323.515625,P12,D06,0,0,0
599,0.76,1645110323.53125,P12,D06,0,0,0
600,0.61,1645110323.546875,P12,D06,0,0,0
601,0.4,1645110323.5625,P12,D06,0,0,0
602,0.18,1645110323.578125,P12,D06,0,0,0
603,0.01,1645110323.59375,P12,D06,0,0,0
604,-0.05,1645110323.609375,P12,D06,0,0,0
605,0.02,1645110323.625,P12,D06,0,0,0
606,0.2,1645110323.640625,P12,D06,0,0,0
607,0.42,1645110323.65625,P12,D06,0,0,0
608,0.56,1645110323.671875,P12,D06,0,0,0
609,0.54,1645110323.6875,P12,D06,0,0,0
610,0.33,1645110323.703125,P12,D06,0,0,0
611,-0.01,1645110323.71875,P12,D06,0,0,0
612,-0.38,1645110323.734375,P12,D06,0,0,0
613,-0.65,1645110323.75,P12,D06,0,0,0
614,-0.75,1645110323.765625,P12,D06,0,0,0
615,-0.67,1645110323.78125,P12,D06,0,0,0
616,-0.5,1645110323.796875,P12,D06,0,0,0
617,-0.32,1645110323.8125,P12,D06,0,0,0
618,-0.19,1645110323.828125,P12,D06,0,0,0
619,-0.16,1645110323.84375,P12,D06,0,0,0
620,-0.19,1645110323.859375,P12,D06,0,0,0
621,-0.22,1645110323.875,P12,D06,0,0,0
622,-0.22,1645110323.890625,P12,D06,0,0,0
623,-0.17,1645110323.90625,P12,D06,0,0,0
624,-0.09,1645110323.921875,P12,D06,0,0,0
625,-0.02,1645110323.9375,P12,D06,0,0,0
626,0.02,1645110323.953125,P12,D06,0,0,0
627,0.05,1645110323.96875,P12,D06,0,0,0
628,0.09,1645110323.984375,P12,D06,0,0,0
629,0.16,1645110324.0,P12,D06,0,0,0
630,0.27,1645110324.015625,P12,D06,0,0,0
631,0.39,1645110324.03125,P12,D06,0,0,0
632,0.48,1645110324.046875,P12,D06,0,0,0
633,0.46,1645110324.0625,P12,D06,0,0,0
634,0.3,1645110324.078125,P12,D06,0,0,0
635,0.02,1645110324.09375,P12,D06,0,0,0
636,-0.32,1645110324.109375,P12,D06,0,0,0
637,-0.58,1645110324.125,P12,D06,0,0,0
638,-0.66,1645110324.140625,P12,D06,0,0,0
639,-0.5,1645110324.15625,P12,D06,0,0,0
640,-0.13,1645110324.171875,P12,D06,0,0,0
641,0.33,1645110324.1875,P12,D06,0,0,0
642,0.72,1645110324.203125,P12,D06,0,0,0
643,0.93,1645110324.21875,P12,D06,0,0,0
644,0.93,1645110324.234375,P12,D06,0,0,0
645,0.77,1645110324.25,P12,D06,0,0,0
646,0.53,1645110324.265625,P12,D06,0,0,0
647,0.27,1645110324.28125,P12,D06,0,0,0
648,-0.01,1645110324.296875,P12,D06,0,0,0
649,-0.33,1645110324.3125,P12,D06,0,0,0
650,-0.67,1645110324.328125,P12,D06,0,0,0
651,-0.98,1645110324.34375,P12,D06,0,0,0
652,-1.18,1645110324.359375,P12,D06,0,0,0
653,-1.18,1645110324.375,P12,D06,0,0,0
654,-0.96,1645110324.390625,P12,D06,0,0,0
655,-0.61,1645110324.40625,P12,D06,0,0,0
656,-0.25,1645110324.421875,P12,D06,0,0,0
657,-0.01,1645110324.4375,P12,D06,0,0,0
658,0.06,1645110324.453125,P12,D06,0,0,0
659,0.0,1645110324.46875,P12,D06,0,0,0
660,-0.11,1645110324.484375,P12,D06,0,0,0
661,-0.23,1645110324.5,P12,D06,0,0,0
662,-0.34,1645110324.515625,P12,D06,0,0,0
663,-0.46,1645110324.53125,P12,D06,0,0,0
664,-0.59,1645110324.546875,P12,D06,0,0,0
665,-0.68,1645110324.5625,P12,D06,0,0,0
666,-0.65,1645110324.578125,P12,D06,0,0,0
667,-0.47,1645110324.59375,P12,D06,0,0,0
668,-0.16,1645110324.609375,P12,D06,0,0,0
669,0.17,1645110324.625,P12,D06,0,0,0
670,0.38,1645110324.640625,P12,D06,0,0,0
671,0.39,1645110324.65625,P12,D06,0,0,0
672,0.23,1645110324.671875,P12,D06,0,0,0
673,0.0,1645110324.6875,P12,D06,0,0,0
674,-0.16,1645110324.703125,P12,D06,0,0,0
675,-0.17,1645110324.71875,P12,D06,0,0,0
676,-0.03,1645110324.734375,P12,D06,0,0,0
677,0.2,1645110324.75,P12,D06,0,0,0
678,0.41,1645110324.765625,P12,D06,0,0,0
679,0.56,1645110324.78125,P12,D06,0,0,0
680,0.63,1645110324.796875,P12,D06,0,0,0
681,0.62,1645110324.8125,P12,D06,0,0,0
682,0.57,1645110324.828125,P12,D06,0,0,0
683,0.47,1645110324.84375,P12,D06,0,0,0
684,0.31,1645110324.859375,P12,D06,0,0,0
685,0.08,1645110324.875,P12,D06,0,0,0
686,-0.21,1645110324.890625,P12,D06,0,0,0
687,-0.5,1645110324.90625,P12,D06,0,0,0
688,-0.7,1645110324.921875,P12,D06,0,0,0
689,-0.72,1645110324.9375,P12,D06,0,0,0
690,-0.53,1645110324.953125,P12,D06,0,0,0
691,-0.2,1645110324.96875,P12,D06,0,0,0
692,0.14,1645110324.984375,P12,D06,0,0,0
693,0.33,1645110325.0,P12,D06,0,0,0
694,0.29,1645110325.015625,P12,D06,0,0,0
695,0.04,1645110325.03125,P12,D06,0,0,0
696,-0.29,1645110325.046875,P12,D06,0,0,0
697,-0.53,1645110325.0625,P12,D06,0,0,0
698,-0.58,1645110325.078125,P12,D06,0,0,0
699,-0.42,1645110325.09375,P12,D06,0,0,0
700,-0.14,1645110325.109375,P12,D06,0,0,0
701,0.11,1645110325.125,P12,D06,0,0,0
702,0.23,1645110325.140625,P12,D06,0,0,0
703,0.19,1645110325.15625,P12,D06,0,0,0
704,0.03,1645110325.171875,P12,D06,0,0,0
705,-0.18,1645110325.1875,P12,D06,0,0,0
706,-0.37,1645110325.203125,P12,D06,0,0,0
707,-0.5,1645110325.21875,P12,D06,0,0,0
708,-0.52,1645110325.234375,P12,D06,0,0,0
709,-0.42,1645110325.25,P12,D06,0,0,0
710,-0.19,1645110325.265625,P12,D06,0,0,0
711,0.11,1645110325.28125,P12,D06,0,0,0
712,0.43,1645110325.296875,P12,D06,0,0,0
713,0.7,1645110325.3125,P12,D06,0,0,0
714,0.83,1645110325.328125,P12,D06,0,0,0
715,0.82,1645110325.34375,P12,D06,0,0,0
716,0.68,1645110325.359375,P12,D06,0,0,0
717,0.48,1645110325.375,P12,D06,0,0,0
718,0.3,1645110325.390625,P12,D06,0,0,0
719,0.19,1645110325.40625,P12,D06,0,0,0
720,0.18,1645110325.421875,P12,D06,0,0,0
721,0.22,1645110325.4375,P12,D06,0,0,0
722,0.27,1645110325.453125,P12,D06,0,0,0
723,0.23,1645110325.46875,P12,D06,0,0,0
724,0.11,1645110325.484375,P12,D06,0,0,0
725,-0.08,1645110325.5,P12,D06,0,0,0
726,-0.22,1645110325.515625,P12,D06,0,0,0
727,-0.22,1645110325.53125,P12,D06,0,0,0
728,-0.03,1645110325.546875,P12,D06,0,0,0
729,0.31,1645110325.5625,P12,D06,0,0,0
730,0.7,1645110325.578125,P12,D06,0,0,0
731,1.0,1645110325.59375,P12,D06,0,0,0
732,1.14,1645110325.609375,P12,D06,0,0,0
733,1.09,1645110325.625,P12,D06,0,0,0
734,0.89,1645110325.640625,P12,D06,0,0,0
735,0.58,1645110325.65625,P12,D06,0,0,0
736,0.22,1645110325.671875,P12,D06,0,0,0
737,-0.15,1645110325.6875,P12,D06,0,0,0
738,-0.45,1645110325.703125,P12,D06,0,0,0
739,-0.64,1645110325.71875,P12,D06,0,0,0
740,-0.68,1645110325.734375,P12,D06,0,0,0
741,-0.59,1645110325.75,P12,D06,0,0,0
742,-0.43,1645110325.765625,P12,D06,0,0,0
743,-0.3,1645110325.78125,P12,D06,0,0,0
744,-0.28,1645110325.796875,P12,D06,0,0,0
745,-0.38,1645110325.8125,P12,D06,0,0,0
746,-0.53,1645110325.828125,P12,D06,0,0,0
747,-0.63,1645110325.84375,P12,D06,0,0,0
748,-0.59,1645110325.859375,P12,D06,0,0,0
749,-0.39,1645110325.875,P12,D06,0,0,0
750,-0.1,1645110325.890625,P12,D06,0,0,0
751,0.17,1645110325.90625,P12,D06,0,0,0
752,0.32,1645110325.921875,P12,D06,0,0,0
753,0.3,1645110325.9375,P12,D06,0,0,0
754,0.11,1645110325.953125,P12,D06,0,0,0
755,-0.17,1645110325.96875,P12,D06,0,0,0
756,-0.45,1645110325.984375,P12,D06,0,0,0
757,-0.63,1645110326.0,P12,D06,0,0,0
758,-0.67,1645110326.015625,P12,D06,0,0,0
759,-0.54,1645110326.03125,P12,D06,0,0,0
760,-0.28,1645110326.046875,P12,D06,0,0,0
761,0.03,1645110326.0625,P12,D06,0,0,0
762,0.3,1645110326.078125,P12,D06,0,0,0
763,0.46,1645110326.09375,P12,D06,0,0,0
764,0.47,1645110326.109375,P12,D06,0,0,0
765,0.35,1645110326.125,P12,D06,0,0,0
766,0.2,1645110326.140625,P12,D06,0,0,0
767,0.11,1645110326.15625,P12,D06,0,0,0
768,0.13,1645110326.171875,P12,D06,0,0,0
769,0.24,1645110326.1875,P12,D06,0,0,0
770,0.41,1645110326.203125,P12,D06,0,0,0
771,0.53,1645110326.21875,P12,D06,0,0,0
772,0.59,1645110326.234375,P12,D06,0,0,0
773,0.59,1645110326.25,P12,D06,0,0,0
774,0.59,1645110326.265625,P12,D06,0,0,0
775,0.59,1645110326.28125,P12,D06,0,0,0
776,0.57,1645110326.296875,P12,D06,0,0,0
777,0.47,1645110326.3125,P12,D06,0,0,0
778,0.24,1645110326.328125,P12,D06,0,0,0
779,-0.09,1645110326.34375,P12,D06,0,0,0
780,-0.43,1645110326.359375,P12,D06,0,0,0
781,-0.66,1645110326.375,P12,D06,0,0,0
782,-0.66,1645110326.390625,P12,D06,0,0,0
783,-0.45,1645110326.40625,P12,D06,0,0,0
784,-0.07,1645110326.421875,P12,D06,0,0,0
785,0.33,1645110326.4375,P12,D06,0,0,0
786,0.64,1645110326.453125,P12,D06,0,0,0
787,0.82,1645110326.46875,P12,D06,0,0,0
788,0.87,1645110326.484375,P12,D06,0,0,0
789,0.8,1645110326.5,P12,D06,0,0,0
790,0.63,1645110326.515625,P12,D06,0,0,0
791,0.4,1645110326.53125,P12,D06,0,0,0
792,0.11,1645110326.546875,P12,D06,0,0,0
793,-0.2,1645110326.5625,P12,D06,0,0,0
794,-0.45,1645110326.578125,P12,D06,0,0,0
795,-0.58,1645110326.59375,P12,D06,0,0,0
796,-0.58,1645110326.609375,P12,D06,0,0,0
797,-0.47,1645110326.625,P12,D06,0,0,0
798,-0.36,1645110326.640625,P12,D06,0,0,0
799,-0.32,1645110326.65625,P12,D06,0,0,0
800,-0.39,1645110326.671875,P12,D06,0,0,0
801,-0.53,1645110326.6875,P12,D06,0,0,0
802,-0.66,1645110326.703125,P12,D06,0,0,0
803,-0.69,1645110326.71875,P12,D06,0,0,0
804,-0.58,1645110326.734375,P12,D06,0,0,0
805,-0.35,1645110326.75,P12,D06,0,0,0
806,-0.09,1645110326.765625,P12,D06,0,0,0
807,0.09,1645110326.78125,P12,D06,0,0,0
808,0.1,1645110326.796875,P12,D06,0,0,0
809,-0.04,1645110326.8125,P12,D06,0,0,0
810,-0.29,1645110326.828125,P12,D06,0,0,0
811,-0.49,1645110326.84375,P12,D06,0,0,0
812,-0.54,1645110326.859375,P12,D06,0,0,0
813,-0.41,1645110326.875,P12,D06,0,0,0
814,-0.18,1645110326.890625,P12,D06,0,0,0
815,0.03,1645110326.90625,P12,D06,0,0,0
816,0.08,1645110326.921875,P12,D06,0,0,0
817,-0.05,1645110326.9375,P12,D06,0,0,0
818,-0.27,1645110326.953125,P12,D06,0,0,0
819,-0.45,1645110326.96875,P12,D06,0,0,0
820,-0.5,1645110326.984375,P12,D06,0,0,0
821,-0.39,1645110327.0,P12,D06,0,0,0
822,-0.18,1645110327.015625,P12,D06,0,0,0
823,0.05,1645110327.03125,P12,D06,0,0,0
824,0.23,1645110327.046875,P12,D06,0,0,0
825,0.35,1645110327.0625,P12,D06,0,0,0
826,0.41,1645110327.078125,P12,D06,0,0,0
827,0.41,1645110327.09375,P12,D06,0,0,0
828,0.32,1645110327.109375,P12,D06,0,0,0
829,0.14,1645110327.125,P12,D06,0,0,0
830,-0.1,1645110327.140625,P12,D06,0,0,0
831,-0.3,1645110327.15625,P12,D06,0,0,0
832,-0.34,1645110327.171875,P12,D06,0,0,0
833,-0.18,1645110327.1875,P12,D06,0,0,0
834,0.11,1645110327.203125,P12,D06,0,0,0
835,0.4,1645110327.21875,P12,D06,0,0,0
836,0.51,1645110327.234375,P12,D06,0,0,0
837,0.35,1645110327.25,P12,D06,0,0,0
838,-0.06,1645110327.265625,P12,D06,0,0,0
839,-0.58,1645110327.28125,P12,D06,0,0,0
840,-1.0,1645110327.296875,P12,D06,0,0,0
841,-1.14,1645110327.3125,P12,D06,0,0,0
842,-0.95,1645110327.328125,P12,D06,0,0,0
843,-0.53,1645110327.34375,P12,D06,0,0,0
844,-0.03,1645110327.359375,P12,D06,0,0,0
845,0.37,1645110327.375,P12,D06,0,0,0
846,0.6,1645110327.390625,P12,D06,0,0,0
847,0.67,1645110327.40625,P12,D06,0,0,0
848,0.66,1645110327.421875,P12,D06,0,0,0
849,0.65,1645110327.4375,P12,D06,0,0,0
850,0.68,1645110327.453125,P12,D06,0,0,0
851,0.69,1645110327.46875,P12,D06,0,0,0
852,0.63,1645110327.484375,P12,D06,0,0,0
853,0.48,1645110327.5,P12,D06,0,0,0
854,0.25,1645110327.515625,P12,D06,0,0,0
855,0.04,1645110327.53125,P12,D06,0,0,0
856,-0.07,1645110327.546875,P12,D06,0,0,0
857,-0.04,1645110327.5625,P12,D06,0,0,0
858,0.11,1645110327.578125,P12,D06,0,0,0
859,0.34,1645110327.59375,P12,D06,0,0,0
860,0.6,1645110327.609375,P12,D06,0,0,0
861,0.82,1645110327.625,P12,D06,0,0,0
862,0.94,1645110327.640625,P12,D06,0,0,0
863,0.89,1645110327.65625,P12,D06,0,0,0
864,0.66,1645110327.671875,P12,D06,0,0,0
865,0.29,1645110327.6875,P12,D06,0,0,0
866,-0.1,1645110327.703125,P12,D06,0,0,0
867,-0.38,1645110327.71875,P12,D06,0,0,0
868,-0.46,1645110327.734375,P12,D06,0,0,0
869,-0.38,1645110327.75,P12,D06,0,0,0
870,-0.27,1645110327.765625,P12,D06,0,0,0
871,-0.26,1645110327.78125,P12,D06,0,0,0
872,-0.43,1645110327.796875,P12,D06,0,0,0
873,-0.74,1645110327.8125,P12,D06,0,0,0
874,-1.04,1645110327.828125,P12,D06,0,0,0
875,-1.16,1645110327.84375,P12,D06,0,0,0
876,-1.02,1645110327.859375,P12,D06,0,0,0
877,-0.7,1645110327.875,P12,D06,0,0,0
878,-0.38,1645110327.890625,P12,D06,0,0,0
879,-0.2,1645110327.90625,P12,D06,0,0,0
880,-0.25,1645110327.921875,P12,D06,0,0,0
881,-0.46,1645110327.9375,P12,D06,0,0,0
882,-0.69,1645110327.953125,P12,D06,0,0,0
883,-0.84,1645110327.96875,P12,D06,0,0,0
884,-0.87,1645110327.984375,P12,D06,0,0,0
885,-0.83,1645110328.0,P12,D06,0,0,0
886,-0.81,1645110328.015625,P12,D06,0,0,0
887,-0.84,1645110328.03125,P12,D06,0,0,0
888,-0.92,1645110328.046875,P12,D06,0,0,0
889,-0.96,1645110328.0625,P12,D06,0,0,0
890,-0.89,1645110328.078125,P12,D06,0,0,0
891,-0.72,1645110328.09375,P12,D06,0,0,0
892,-0.49,1645110328.109375,P12,D06,0,0,0
893,-0.3,1645110328.125,P12,D06,0,0,0
894,-0.19,1645110328.140625,P12,D06,0,0,0
895,-0.16,1645110328.15625,P12,D06,0,0,0
896,-0.16,1645110328.171875,P12,D06,0,0,0
897,-0.15,1645110328.1875,P12,D06,0,0,0
898,-0.09,1645110328.203125,P12,D06,0,0,0
899,0.02,1645110328.21875,P12,D06,0,0,0
900,0.15,1645110328.234375,P12,D06,0,0,0
901,0.3,1645110328.25,P12,D06,0,0,0
902,0.45,1645110328.265625,P12,D06,0,0,0
903,0.62,1645110328.28125,P12,D06,0,0,0
904,0.83,1645110328.296875,P12,D06,0,0,0
905,1.05,1645110328.3125,P12,D06,0,0,0
906,1.25,1645110328.328125,P12,D06,0,0,0
907,1.37,1645110328.34375,P12,D06,0,0,0
908,1.34,1645110328.359375,P12,D06,0,0,0
909,1.14,1645110328.375,P12,D06,0,0,0
910,0.8,1645110328.390625,P12,D06,0,0,0
911,0.38,1645110328.40625,P12,D06,0,0,0
912,0.01,1645110328.421875,P12,D06,0,0,0
913,-0.22,1645110328.4375,P12,D06,0,0,0
914,-0.26,1645110328.453125,P12,D06,0,0,0
915,-0.16,1645110328.46875,P12,D06,0,0,0
916,-0.03,1645110328.484375,P12,D06,0,0,0
917,0.05,1645110328.5,P12,D06,0,0,0
918,0.01,1645110328.515625,P12,D06,0,0,0
919,-0.12,1645110328.53125,P12,D06,0,0,0
920,-0.27,1645110328.546875,P12,D06,0,0,0
921,-0.36,1645110328.5625,P12,D06,0,0,0
922,-0.38,1645110328.578125,P12,D06,0,0,0
923,-0.34,1645110328.59375,P12,D06,0,0,0
924,-0.33,1645110328.609375,P12,D06,0,0,0
925,-0.4,1645110328.625,P12,D06,0,0,0
926,-0.55,1645110328.640625,P12,D06,0,0,0
927,-0.67,1645110328.65625,P12,D06,0,0,0
928,-0.65,1645110328.671875,P12,D06,0,0,0
929,-0.4,1645110328.6875,P12,D06,0,0,0
930,0.09,1645110328.703125,P12,D06,0,0,0
931,0.68,1645110328.71875,P12,D06,0,0,0
932,1.2,1645110328.734375,P12,D06,0,0,0
933,1.49,1645110328.75,P12,D06,0,0,0
934,1.47,1645110328.765625,P12,D06,0,0,0
935,1.18,1645110328.78125,P12,D06,0,0,0
936,0.75,1645110328.796875,P12,D06,0,0,0
937,0.31,1645110328.8125,P12,D06,0,0,0
938,-0.04,1645110328.828125,P12,D06,0,0,0
939,-0.26,1645110328.84375,P12,D06,0,0,0
940,-0.39,1645110328.859375,P12,D06,0,0,0
941,-0.44,1645110328.875,P12,D06,0,0,0
942,-0.45,1645110328.890625,P12,D06,0,0,0
943,-0.41,1645110328.90625,P12,D06,0,0,0
944,-0.34,1645110328.921875,P12,D06,0,0,0
945,-0.24,1645110328.9375,P12,D06,0,0,0
946,-0.14,1645110328.953125,P12,D06,0,0,0
947,-0.06,1645110328.96875,P12,D06,0,0,0
948,0.0,1645110328.984375,P12,D06,0,0,0
949,0.06,1645110329.0,P12,D06,0,0,0
950,0.12,1645110329.015625,P12,D06,0,0,0
951,0.2,1645110329.03125,P12,D06,0,0,0
952,0.28,1645110329.046875,P12,D06,0,0,0
953,0.34,1645110329.0625,P12,D06,0,0,0
954,0.4,1645110329.078125,P12,D06,0,0,0
955,0.47,1645110329.09375,P12,D06,0,0,0
956,0.55,1645110329.109375,P12,D06,0,0,0
957,0.63,1645110329.125,P12,D06,0,0,0
958,0.64,1645110329.140625,P12,D06,0,0,0
959,0.52,1645110329.15625,P12,D06,0,0,0
960,0.25,1645110329.171875,P12,D06,0,0,0
961,-0.12,1645110329.1875,P12,D06,0,0,0
962,-0.48,1645110329.203125,P12,D06,0,0,0
963,-0.68,1645110329.21875,P12,D06,0,0,0
964,-0.68,1645110329.234375,P12,D06,0,0,0
965,-0.49,1645110329.25,P12,D06,0,0,0
966,-0.23,1645110329.265625,P12,D06,0,0,0
967,-0.03,1645110329.28125,P12,D06,0,0,0
968,0.04,1645110329.296875,P12,D06,0,0,0
969,-0.01,1645110329.3125,P12,D06,0,0,0
970,-0.09,1645110329.328125,P12,D06,0,0,0
971,-0.16,1645110329.34375,P12,D06,0,0,0
972,-0.18,1645110329.359375,P12,D06,0,0,0
973,-0.18,1645110329.375,P12,D06,0,0,0
974,-0.23,1645110329.390625,P12,D06,0,0,0
975,-0.31,1645110329.40625,P12,D06,0,0,0
976,-0.41,1645110329.421875,P12,D06,0,0,0
977,-0.43,1645110329.4375,P12,D06,0,0,0
978,-0.34,1645110329.453125,P12,D06,0,0,0
979,-0.15,1645110329.46875,P12,D06,0,0,0
980,0.06,1645110329.484375,P12,D06,0,0,0
981,0.18,1645110329.5,P12,D06,0,0,0
982,0.15,1645110329.515625,P12,D06,0,0,0
983,-0.04,1645110329.53125,P12,D06,0,0,0
984,-0.31,1645110329.546875,P12,D06,0,0,0
985,-0.55,1645110329.5625,P12,D06,0,0,0
986,-0.63,1645110329.578125,P12,D06,0,0,0
987,-0.5,1645110329.59375,P12,D06,0,0,0
988,-0.19,1645110329.609375,P12,D06,0,0,0
989,0.21,1645110329.625,P12,D06,0,0,0
990,0.53,1645110329.640625,P12,D06,0,0,0
991,0.67,1645110329.65625,P12,D06,0,0,0
992,0.61,1645110329.671875,P12,D06,0,0,0
993,0.44,1645110329.6875,P12,D06,0,0,0
994,0.3,1645110329.703125,P12,D06,0,0,0
995,0.28,1645110329.71875,P12,D06,0,0,0
996,0.4,1645110329.734375,P12,D06,0,0,0
997,0.54,1645110329.75,P12,D06,0,0,0
998,0.59,1645110329.765625,P12,D06,0,0,0
999,0.49,1645110329.78125,P12,D06,0,0,0
1000,0.31,1645110329.796875,P12,D06,0,0,0
1001,0.16,1645110329.8125,P12,D06,0,0,0
1002,0.14,1645110329.828125,P12,D06,0,0,0
1003,0.25,1645110329.84375,P12,D06,0,0,0
1004,0.41,1645110329.859375,P12,D06,0,0,0
1005,0.48,1645110329.875,P12,D06,0,0,0
1006,0.36,1645110329.890625,P12,D06,0,0,0
1007,0.06,1645110329.90625,P12,D06,0,0,0
1008,-0.36,1645110329.921875,P12,D06,0,0,0
1009,-0.8,1645110329.9375,P12,D06,0,0,0
1010,-1.18,1645110329.953125,P12,D06,0,0,0
1011,-1.42,1645110329.96875,P12,D06,0,0,0
1012,-1.51,1645110329.984375,P12,D06,0,0,0
1013,-1.41,1645110330.0,P12,D06,0,0,0
1014,-1.14,1645110330.015625,P12,D06,0,0,0
1015,-0.75,1645110330.03125,P12,D06,0,0,0
1016,-0.34,1645110330.046875,P12,D06,0,0,0
1017,-0.01,1645110330.0625,P12,D06,0,0,0
1018,0.17,1645110330.078125,P12,D06,0,0,0
1019,0.19,1645110330.09375,P12,D06,0,0,0
1020,0.1,1645110330.109375,P12,D06,0,0,0
1021,-0.02,1645110330.125,P12,D06,0,0,0
1022,-0.12,1645110330.140625,P12,D06,0,0,0
1023,-0.17,1645110330.15625,P12,D06,0,0,0
1024,-0.18,1645110330.171875,P12,D06,0,0,0
1025,-0.13,1645110330.1875,P12,D06,0,0,0
1026,-0.03,1645110330.203125,P12,D06,0,0,0
1027,0.14,1645110330.21875,P12,D06,0,0,0
1028,0.37,1645110330.234375,P12,D06,0,0,0
1029,0.63,1645110330.25,P12,D06,0,0,0
1030,0.85,1645110330.265625,P12,D06,0,0,0
1031,0.97,1645110330.28125,P12,D06,0,0,0
1032,0.95,1645110330.296875,P12,D06,0,0,0
1033,0.79,1645110330.3125,P12,D06,0,0,0
1034,0.51,1645110330.328125,P12,D06,0,0,0
1035,0.2,1645110330.34375,P12,D06,0,0,0
1036,-0.08,1645110330.359375,P12,D06,0,0,0
1037,-0.27,1645110330.375,P12,D06,0,0,0
1038,-0.35,1645110330.390625,P12,D06,0,0,0
1039,-0.33,1645110330.40625,P12,D06,0,0,0
1040,-0.27,1645110330.421875,P12,D06,0,0,0
1041,-0.21,1645110330.4375,P12,D06,0,0,0
1042,-0.19,1645110330.453125,P12,D06,0,0,0
1043,-0.19,1645110330.46875,P12,D06,0,0,0
1044,-0.17,1645110330.484375,P12,D06,0,0,0
1045,-0.1,1645110330.5,P12,D06,0,0,0
1046,0.05,1645110330.515625,P12,D06,0,0,0
1047,0.24,1645110330.53125,P12,D06,0,0,0
1048,0.38,1645110330.546875,P12,D06,0,0,0
1049,0.44,1645110330.5625,P12,D06,0,0,0
1050,0.38,1645110330.578125,P12,D06,0,0,0
1051,0.24,1645110330.59375,P12,D06,0,0,0
1052,0.06,1645110330.609375,P12,D06,0,0,0
1053,-0.07,1645110330.625,P12,D06,0,0,0
1054,-0.14,1645110330.640625,P12,D06,0,0,0
1055,-0.11,1645110330.65625,P12,D06,0,0,0
1056,0.0,1645110330.671875,P12,D06,0,0,0
1057,0.14,1645110330.6875,P12,D06,0,0,0
1058,0.23,1645110330.703125,P12,D06,0,0,0
1059,0.21,1645110330.71875,P12,D06,0,0,0
1060,0.02,1645110330.734375,P12,D06,0,0,0
1061,-0.3,1645110330.75,P12,D06,0,0,0
1062,-0.63,1645110330.765625,P12,D06,0,0,0
1063,-0.81,1645110330.78125,P12,D06,0,0,0
1064,-0.72,1645110330.796875,P12,D06,0,0,0
1065,-0.35,1645110330.8125,P12,D06,0,0,0
1066,0.18,1645110330.828125,P12,D06,0,0,0
1067,0.68,1645110330.84375,P12,D06,0,0,0
1068,0.99,1645110330.859375,P12,D06,0,0,0
1069,1.06,1645110330.875,P12,D06,0,0,0
1070,0.94,1645110330.890625,P12,D06,0,0,0
1071,0.77,1645110330.90625,P12,D06,0,0,0
1072,0.61,1645110330.921875,P12,D06,0,0,0
1073,0.47,1645110330.9375,P12,D06,0,0,0
1074,0.28,1645110330.953125,P12,D06,0,0,0
1075,0.01,1645110330.96875,P12,D06,0,0,0
1076,-0.31,1645110330.984375,P12,D06,0,0,0
1077,-0.57,1645110331.0,P12,D06,0,0,0
1078,-0.64,1645110331.015625,P12,D06,0,0,0
1079,-0.46,1645110331.03125,P12,D06,0,0,0
1080,-0.07,1645110331.046875,P12,D06,0,0,0
1081,0.38,1645110331.0625,P12,D06,0,0,0
1082,0.72,1645110331.078125,P12,D06,0,0,0
1083,0.86,1645110331.09375,P12,D06,0,0,0
1084,0.8,1645110331.109375,P12,D06,0,0,0
1085,0.61,1645110331.125,P12,D06,0,0,0
1086,0.41,1645110331.140625,P12,D06,0,0,0
1087,0.28,1645110331.15625,P12,D06,0,0,0
1088,0.24,1645110331.171875,P12,D06,0,0,0
1089,0.24,1645110331.1875,P12,D06,0,0,0
1090,0.26,1645110331.203125,P12,D06,0,0,0
1091,0.24,1645110331.21875,P12,D06,0,0,0
1092,0.15,1645110331.234375,P12,D06,0,0,0
1093,-0.01,1645110331.25,P12,D06,0,0,0
1094,-0.24,1645110331.265625,P12,D06,0,0,0
1095,-0.51,1645110331.28125,P12,D06,0,0,0
1096,-0.78,1645110331.296875,P12,D06,0,0,0
1097,-0.98,1645110331.3125,P12,D06,0,0,0
1098,-1.05,1645110331.328125,P12,D06,0,0,0
1099,-0.98,1645110331.34375,P12,D06,0,0,0
1100,-0.81,1645110331.359375,P12,D06,0,0,0
1101,-0.56,1645110331.375,P12,D06,0,0,0
1102,-0.3,1645110331.390625,P12,D06,0,0,0
1103,-0.05,1645110331.40625,P12,D06,0,0,0
1104,0.17,1645110331.421875,P12,D06,0,0,0
1105,0.33,1645110331.4375,P12,D06,0,0,0
1106,0.42,1645110331.453125,P12,D06,0,0,0
1107,0.41,1645110331.46875,P12,D06,0,0,0
1108,0.29,1645110331.484375,P12,D06,0,0,0
1109,0.11,1645110331.5,P12,D06,0,0,0
1110,-0.06,1645110331.515625,P12,D06,0,0,0
1111,-0.16,1645110331.53125,P12,D06,0,0,0
1112,-0.17,1645110331.546875,P12,D06,0,0,0
1113,-0.13,1645110331.5625,P12,D06,0,0,0
1114,-0.1,1645110331.578125,P12,D06,0,0,0
1115,-0.14,1645110331.59375,P12,D06,0,0,0
1116,-0.24,1645110331.609375,P12,D06,0,0,0
1117,-0.36,1645110331.625,P12,D06,0,0,0
1118,-0.42,1645110331.640625,P12,D06,0,0,0
1119,-0.37,1645110331.65625,P12,D06,0,0,0
1120,-0.19,1645110331.671875,P12,D06,0,0,0
1121,0.08,1645110331.6875,P12,D06,0,0,0
1122,0.34,1645110331.703125,P12,D06,0,0,0
1123,0.51,1645110331.71875,P12,D06,0,0,0
1124,0.51,1645110331.734375,P12,D06,0,0,0
1125,0.37,1645110331.75,P12,D06,0,0,0
1126,0.15,1645110331.765625,P12,D06,0,0,0
1127,-0.05,1645110331.78125,P12,D06,0,0,0
1128,-0.15,1645110331.796875,P12,D06,0,0,0
1129,-0.13,1645110331.8125,P12,D06,0,0,0
1130,-0.04,1645110331.828125,P12,D06,0,0,0
1131,0.02,1645110331.84375,P12,D06,0,0,0
1132,0.0,1645110331.859375,P12,D06,0,0,0
1133,-0.09,1645110331.875,P12,D06,0,0,0
1134,-0.16,1645110331.890625,P12,D06,0,0,0
1135,-0.13,1645110331.90625,P12,D06,0,0,0
1136,0.04,1645110331.921875,P12,D06,0,0,0
1137,0.3,1645110331.9375,P12,D06,0,0,0
1138,0.52,1645110331.953125,P12,D06,0,0,0
1139,0.58,1645110331.96875,P12,D06,0,0,0
1140,0.44,1645110331.984375,P12,D06,0,0,0
1141,0.17,1645110332.0,P12,D06,0,0,0
1142,-0.09,1645110332.015625,P12,D06,0,0,0
1143,-0.23,1645110332.03125,P12,D06,0,0,0
1144,-0.2,1645110332.046875,P12,D06,0,0,0
1145,-0.05,1645110332.0625,P12,D06,0,0,0
1146,0.08,1645110332.078125,P12,D06,0,0,0
1147,0.07,1645110332.09375,P12,D06,0,0,0
1148,-0.12,1645110332.109375,P12,D06,0,0,0
1149,-0.43,1645110332.125,P12,D06,0,0,0
1150,-0.71,1645110332.140625,P12,D06,0,0,0
1151,-0.81,1645110332.15625,P12,D06,0,0,0
1152,-0.65,1645110332.171875,P12,D06,0,0,0
1153,-0.27,1645110332.1875,P12,D06,0,0,0
1154,0.15,1645110332.203125,P12,D06,0,0,0
1155,0.44,1645110332.21875,P12,D06,0,0,0
1156,0.46,1645110332.234375,P12,D06,0,0,0
1157,0.26,1645110332.25,P12,D06,0,0,0
1158,-0.06,1645110332.265625,P12,D06,0,0,0
1159,-0.29,1645110332.28125,P12,D06,0,0,0
1160,-0.35,1645110332.296875,P12,D06,0,0,0
1161,-0.24,1645110332.3125,P12,D06,0,0,0
1162,-0.11,1645110332.328125,P12,D06,0,0,0
1163,-0.07,1645110332.34375,P12,D06,0,0,0
1164,-0.18,1645110332.359375,P12,D06,0,0,0
1165,-0.37,1645110332.375,P12,D06,0,0,0
1166,-0.49,1645110332.390625,P12,D06,0,0,0
1167,-0.43,1645110332.40625,P12,D06,0,0,0
1168,-0.19,1645110332.421875,P12,D06,0,0,0
1169,0.11,1645110332.4375,P12,D06,0,0,0
1170,0.29,1645110332.453125,P12,D06,0,0,0
1171,0.25,1645110332.46875,P12,D06,0,0,0
1172,0.01,1645110332.484375,P12,D06,0,0,0
1173,-0.29,1645110332.5,P12,D06,0,0,0
1174,-0.47,1645110332.515625,P12,D06,0,0,0
1175,-0.43,1645110332.53125,P12,D06,0,0,0
1176,-0.2,1645110332.546875,P12,D06,0,0,0
1177,0.13,1645110332.5625,P12,D06,0,0,0
1178,0.42,1645110332.578125,P12,D06,0,0,0
1179,0.62,1645110332.59375,P12,D06,0,0,0
1180,0.7,1645110332.609375,P12,D06,0,0,0
1181,0.67,1645110332.625,P12,D06,0,0,0
1182,0.54,1645110332.640625,P12,D06,0,0,0
1183,0.25,1645110332.65625,P12,D06,0,0,0
1184,-0.2,1645110332.671875,P12,D06,0,0,0
1185,-0.76,1645110332.6875,P12,D06,0,0,0
1186,-1.3,1645110332.703125,P12,D06,0,0,0
1187,-1.66,1645110332.71875,P12,D06,0,0,0
1188,-1.75,1645110332.734375,P12,D06,0,0,0
1189,-1.56,1645110332.75,P12,D06,0,0,0
1190,-1.18,1645110332.765625,P12,D06,0,0,0
1191,-0.78,1645110332.78125,P12,D06,0,0,0
1192,-0.48,1645110332.796875,P12,D06,0,0,0
1193,-0.34,1645110332.8125,P12,D06,0,0,0
1194,-0.31,1645110332.828125,P12,D06,0,0,0
1195,-0.31,1645110332.84375,P12,D06,0,0,0
1196,-0.21,1645110332.859375,P12,D06,0,0,0
1197,0.02,1645110332.875,P12,D06,0,0,0
1198,0.37,1645110332.890625,P12,D06,0,0,0
1199,0.77,1645110332.90625,P12,D06,0,0,0
1200,1.14,1645110332.921875,P12,D06,0,0,0
1201,1.39,1645110332.9375,P12,D06,0,0,0
1202,1.49,1645110332.953125,P12,D06,0,0,0
1203,1.44,1645110332.96875,P12,D06,0,0,0
1204,1.25,1645110332.984375,P12,D06,0,0,0
1205,0.97,1645110333.0,P12,D06,0,0,0
1206,0.65,1645110333.015625,P12,D06,0,0,0
1207,0.38,1645110333.03125,P12,D06,0,0,0
1208,0.21,1645110333.046875,P12,D06,0,0,0
1209,0.2,1645110333.0625,P12,D06,0,0,0
1210,0.31,1645110333.078125,P12,D06,0,0,0
1211,0.48,1645110333.09375,P12,D06,0,0,0
1212,0.59,1645110333.109375,P12,D06,0,0,0
1213,0.56,1645110333.125,P12,D06,0,0,0
1214,0.4,1645110333.140625,P12,D06,0,0,0
1215,0.16,1645110333.15625,P12,D06,0,0,0
1216,-0.05,1645110333.171875,P12,D06,0,0,0
1217,-0.15,1645110333.1875,P12,D06,0,0,0
1218,-0.09,1645110333.203125,P12,D06,0,0,0
1219,0.11,1645110333.21875,P12,D06,0,0,0
1220,0.38,1645110333.234375,P12,D06,0,0,0
1221,0.63,1645110333.25,P12,D06,0,0,0
1222,0.77,1645110333.265625,P12,D06,0,0,0
1223,0.74,1645110333.28125,P12,D06,0,0,0
1224,0.52,1645110333.296875,P12,D06,0,0,0
1225,0.16,1645110333.3125,P12,D06,0,0,0
1226,-0.23,1645110333.328125,P12,D06,0,0,0
1227,-0.52,1645110333.34375,P12,D06,0,0,0
1228,-0.6,1645110333.359375,P12,D06,0,0,0
1229,-0.45,1645110333.375,P12,D06,0,0,0
1230,-0.14,1645110333.390625,P12,D06,0,0,0
1231,0.22,1645110333.40625,P12,D06,0,0,0
1232,0.49,1645110333.421875,P12,D06,0,0,0
1233,0.57,1645110333.4375,P12,D06,0,0,0
1234,0.46,1645110333.453125,P12,D06,0,0,0
1235,0.2,1645110333.46875,P12,D06,0,0,0
1236,-0.13,1645110333.484375,P12,D06,0,0,0
1237,-0.43,1645110333.5,P12,D06,0,0,0
1238,-0.62,1645110333.515625,P12,D06,0,0,0
1239,-0.67,1645110333.53125,P12,D06,0,0,0
1240,-0.61,1645110333.546875,P12,D06,0,0,0
1241,-0.51,1645110333.5625,P12,D06,0,0,0
1242,-0.44,1645110333.578125,P12,D06,0,0,0
1243,-0.45,1645110333.59375,P12,D06,0,0,0
1244,-0.52,1645110333.609375,P12,D06,0,0,0
1245,-0.6,1645110333.625,P12,D06,0,0,0
1246,-0.6,1645110333.640625,P12,D06,0,0,0
1247,-0.47,1645110333.65625,P12,D06,0,0,0
1248,-0.23,1645110333.671875,P12,D06,0,0,0
1249,0.03,1645110333.6875,P12,D06,0,0,0
1250,0.2,1645110333.703125,P12,D06,0,0,0
1251,0.2,1645110333.71875,P12,D06,0,0,0
1252,0.03,1645110333.734375,P12,D06,0,0,0
1253,-0.26,1645110333.75,P12,D06,0,0,0
1254,-0.57,1645110333.765625,P12,D06,0,0,0
1255,-0.8,1645110333.78125,P12,D06,0,0,0
1256,-0.91,1645110333.796875,P12,D06,0,0,0
1257,-0.92,1645110333.8125,P12,D06,0,0,0
1258,-0.81,1645110333.828125,P12,D06,0,0,0
1259,-0.6,1645110333.84375,P12,D06,0,0,0
1260,-0.28,1645110333.859375,P12,D06,0,0,0
1261,0.13,1645110333.875,P12,D06,0,0,0
1262,0.56,1645110333.890625,P12,D06,0,0,0
1263,0.89,1645110333.90625,P12,D06,0,0,0
1264,1.01,1645110333.921875,P12,D06,0,0,0
1265,0.86,1645110333.9375,P12,D06,0,0,0
1266,0.5,1645110333.953125,P12,D06,0,0,0
1267,0.06,1645110333.96875,P12,D06,0,0,0
1268,-0.29,1645110333.984375,P12,D06,0,0,0
1269,-0.46,1645110334.0,P12,D06,0,0,0
1270,-0.45,1645110334.015625,P12,D06,0,0,0
1271,-0.36,1645110334.03125,P12,D06,0,0,0
1272,-0.29,1645110334.046875,P12,D06,0,0,0
1273,-0.29,1645110334.0625,P12,D06,0,0,0
1274,-0.33,1645110334.078125,P12,D06,0,0,0
1275,-0.36,1645110334.09375,P12,D06,0,0,0
1276,-0.31,1645110334.109375,P12,D06,0,0,0
1277,-0.21,1645110334.125,P12,D06,0,0,0
1278,-0.11,1645110334.140625,P12,D06,0,0,0
1279,-0.08,1645110334.15625,P12,D06,0,0,0
1280,-0.13,1645110334.171875,P12,D06,0,0,0
1281,-0.25,1645110334.1875,P12,D06,0,0,0
1282,-0.37,1645110334.203125,P12,D06,0,0,0
1283,-0.42,1645110334.21875,P12,D06,0,0,0
1284,-0.37,1645110334.234375,P12,D06,0,0,0
1285,-0.21,1645110334.25,P12,D06,0,0,0
1286,0.02,1645110334.265625,P12,D06,0,0,0
1287,0.3,1645110334.28125,P12,D06,0,0,0
1288,0.57,1645110334.296875,P12,D06,0,0,0
1289,0.78,1645110334.3125,P12,D06,0,0,0
1290,0.89,1645110334.328125,P12,D06,0,0,0
1291,0.89,1645110334.34375,P12,D06,0,0,0
1292,0.78,1645110334.359375,P12,D06,0,0,0
1293,0.6,1645110334.375,P12,D06,0,0,0
1294,0.39,1645110334.390625,P12,D06,0,0,0
1295,0.17,1645110334.40625,P12,D06,0,0,0
1296,-0.0,1645110334.421875,P12,D06,0,0,0
1297,-0.09,1645110334.4375,P12,D06,0,0,0
1298,-0.07,1645110334.453125,P12,D06,0,0,0
1299,0.06,1645110334.46875,P12,D06,0,0,0
1300,0.24,1645110334.484375,P12,D06,0,0,0
1301,0.42,1645110334.5,P12,D06,0,0,0
1302,0.54,1645110334.515625,P12,D06,0,0,0
1303,0.63,1645110334.53125,P12,D06,0,0,0
1304,0.68,1645110334.546875,P12,D06,0,0,0
1305,0.73,1645110334.5625,P12,D06,0,0,0
1306,0.76,1645110334.578125,P12,D06,0,0,0
1307,0.74,1645110334.59375,P12,D06,0,0,0
1308,0.66,1645110334.609375,P12,D06,0,0,0
1309,0.53,1645110334.625,P12,D06,0,0,0
1310,0.41,1645110334.640625,P12,D06,0,0,0
1311,0.33,1645110334.65625,P12,D06,0,0,0
1312,0.29,1645110334.671875,P12,D06,0,0,0
1313,0.23,1645110334.6875,P12,D06,0,0,0
1314,0.08,1645110334.703125,P12,D06,0,0,0
1315,-0.18,1645110334.71875,P12,D06,0,0,0
1316,-0.51,1645110334.734375,P12,D06,0,0,0
1317,-0.81,1645110334.75,P12,D06,0,0,0
1318,-0.99,1645110334.765625,P12,D06,0,0,0
1319,-1.02,1645110334.78125,P12,D06,0,0,0
1320,-0.94,1645110334.796875,P12,D06,0,0,0
1321,-0.8,1645110334.8125,P12,D06,0,0,0
1322,-0.63,1645110334.828125,P12,D06,0,0,0
1323,-0.44,1645110334.84375,P12,D06,0,0,0
1324,-0.25,1645110334.859375,P12,D06,0,0,0
1325,-0.07,1645110334.875,P12,D06,0,0,0
1326,0.06,1645110334.890625,P12,D06,0,0,0
1327,0.09,1645110334.90625,P12,D06,0,0,0
1328,-0.0,1645110334.921875,P12,D06,0,0,0
1329,-0.2,1645110334.9375,P12,D06,0,0,0
1330,-0.42,1645110334.953125,P12,D06,0,0,0
1331,-0.58,1645110334.96875,P12,D06,0,0,0
1332,-0.63,1645110334.984375,P12,D06,0,0,0
1333,-0.52,1645110335.0,P12,D06,0,0,0
1334,-0.31,1645110335.015625,P12,D06,0,0,0
1335,-0.06,1645110335.03125,P12,D06,0,0,0
1336,0.15,1645110335.046875,P12,D06,0,0,0
1337,0.23,1645110335.0625,P12,D06,0,0,0
1338,0.16,1645110335.078125,P12,D06,0,0,0
1339,-0.03,1645110335.09375,P12,D06,0,0,0
1340,-0.25,1645110335.109375,P12,D06,0,0,0
1341,-0.38,1645110335.125,P12,D06,0,0,0
1342,-0.35,1645110335.140625,P12,D06,0,0,0
1343,-0.15,1645110335.15625,P12,D06,0,0,0
1344,0.12,1645110335.171875,P12,D06,0,0,0
1345,0.36,1645110335.1875,P12,D06,0,0,0
1346,0.47,1645110335.203125,P12,D06,0,0,0
1347,0.44,1645110335.21875,P12,D06,0,0,0
1348,0.32,1645110335.234375,P12,D06,0,0,0
1349,0.18,1645110335.25,P12,D06,0,0,0
1350,0.07,1645110335.265625,P12,D06,0,0,0
1351,-0.03,1645110335.28125,P12,D06,0,0,0
1352,-0.18,1645110335.296875,P12,D06,0,0,0
1353,-0.38,1645110335.3125,P12,D06,0,0,0
1354,-0.62,1645110335.328125,P12,D06,0,0,0
1355,-0.81,1645110335.34375,P12,D06,0,0,0
1356,-0.91,1645110335.359375,P12,D06,0,0,0
1357,-0.92,1645110335.375,P12,D06,0,0,0
1358,-0.89,1645110335.390625,P12,D06,0,0,0
1359,-0.87,1645110335.40625,P12,D06,0,0,0
1360,-0.88,1645110335.421875,P12,D06,0,0,0
1361,-0.88,1645110335.4375,P12,D06,0,0,0
1362,-0.84,1645110335.453125,P12,D06,0,0,0
1363,-0.7,1645110335.46875,P12,D06,0,0,0
1364,-0.47,1645110335.484375,P12,D06,0,0,0
1365,-0.16,1645110335.5,P12,D06,0,0,0
1366,0.18,1645110335.515625,P12,D06,0,0,0
1367,0.52,1645110335.53125,P12,D06,0,0,0
1368,0.8,1645110335.546875,P12,D06,0,0,0
1369,0.97,1645110335.5625,P12,D06,0,0,0
1370,0.95,1645110335.578125,P12,D06,0,0,0
1371,0.73,1645110335.59375,P12,D06,0,0,0
1372,0.37,1645110335.609375,P12,D06,0,0,0
1373,-0.04,1645110335.625,P12,D06,0,0,0
1374,-0.37,1645110335.640625,P12,D06,0,0,0
1375,-0.54,1645110335.65625,P12,D06,0,0,0
1376,-0.54,1645110335.671875,P12,D06,0,0,0
1377,-0.44,1645110335.6875,P12,D06,0,0,0
1378,-0.3,1645110335.703125,P12,D06,0,0,0
1379,-0.21,1645110335.71875,P12,D06,0,0,0
1380,-0.19,1645110335.734375,P12,D06,0,0,0
1381,-0.22,1645110335.75,P12,D06,0,0,0
1382,-0.22,1645110335.765625,P12,D06,0,0,0
1383,-0.14,1645110335.78125,P12,D06,0,0,0
1384,0.05,1645110335.796875,P12,D06,0,0,0
1385,0.33,1645110335.8125,P12,D06,0,0,0
1386,0.62,1645110335.828125,P12,D06,0,0,0
1387,0.84,1645110335.84375,P12,D06,0,0,0
1388,0.93,1645110335.859375,P12,D06,0,0,0
1389,0.89,1645110335.875,P12,D06,0,0,0
1390,0.8,1645110335.890625,P12,D06,0,0,0
1391,0.75,1645110335.90625,P12,D06,0,0,0
1392,0.77,1645110335.921875,P12,D06,0,0,0
1393,0.86,1645110335.9375,P12,D06,0,0,0
1394,0.93,1645110335.953125,P12,D06,0,0,0
1395,0.93,1645110335.96875,P12,D06,0,0,0
1396,0.8,1645110335.984375,P12,D06,0,0,0
1397,0.56,1645110336.0,P12,D06,0,0,0
1398,0.3,1645110336.015625,P12,D06,0,0,0
1399,0.09,1645110336.03125,P12,D06,0,0,0
1400,-0.01,1645110336.046875,P12,D06,0,0,0
1401,-0.01,1645110336.0625,P12,D06,0,0,0
1402,0.07,1645110336.078125,P12,D06,0,0,0
1403,0.16,1645110336.09375,P12,D06,0,0,0
1404,0.23,1645110336.109375,P12,D06,0,0,0
1405,0.27,1645110336.125,P12,D06,0,0,0
1406,0.29,1645110336.140625,P12,D06,0,0,0
1407,0.31,1645110336.15625,P12,D06,0,0,0
1408,0.37,1645110336.171875,P12,D06,0,0,0
1409,0.45,1645110336.1875,P12,D06,0,0,0
1410,0.53,1645110336.203125,P12,D06,0,0,0
1411,0.57,1645110336.21875,P12,D06,0,0,0
1412,0.53,1645110336.234375,P12,D06,0,0,0
1413,0.41,1645110336.25,P12,D06,0,0,0
1414,0.23,1645110336.265625,P12,D06,0,0,0
1415,0.02,1645110336.28125,P12,D06,0,0,0
1416,-0.14,1645110336.296875,P12,D06,0,0,0
1417,-0.24,1645110336.3125,P12,D06,0,0,0
1418,-0.26,1645110336.328125,P12,D06,0,0,0
1419,-0.24,1645110336.34375,P12,D06,0,0,0
1420,-0.25,1645110336.359375,P12,D06,0,0,0
1421,-0.32,1645110336.375,P12,D06,0,0,0
1422,-0.45,1645110336.390625,P12,D06,0,0,0
1423,-0.59,1645110336.40625,P12,D06,0,0,0
1424,-0.7,1645110336.421875,P12,D06,0,0,0
1425,-0.73,1645110336.4375,P12,D06,0,0,0
1426,-0.67,1645110336.453125,P12,D06,0,0,0
1427,-0.55,1645110336.46875,P12,D06,0,0,0
1428,-0.43,1645110336.484375,P12,D06,0,0,0
1429,-0.34,1645110336.5,P12,D06,0,0,0
1430,-0.28,1645110336.515625,P12,D06,0,0,0
1431,-0.25,1645110336.53125,P12,D06,0,0,0
1432,-0.26,1645110336.546875,P12,D06,0,0,0
1433,-0.29,1645110336.5625,P12,D06,0,0,0
1434,-0.36,1645110336.578125,P12,D06,0,0,0
1435,-0.45,1645110336.59375,P12,D06,0,0,0
1436,-0.5,1645110336.609375,P12,D06,0,0,0
1437,-0.45,1645110336.625,P12,D06,0,0,0
1438,-0.28,1645110336.640625,P12,D06,0,0,0
1439,-0.05,1645110336.65625,P12,D06,0,0,0
1440,0.15,1645110336.671875,P12,D06,0,0,0
1441,0.2,1645110336.6875,P12,D06,0,0,0
1442,0.04,1645110336.703125,P12,D06,0,0,0
1443,-0.25,1645110336.71875,P12,D06,0,0,0
1444,-0.55,1645110336.734375,P12,D06,0,0,0
1445,-0.74,1645110336.75,P12,D06,0,0,0
1446,-0.73,1645110336.765625,P12,D06,0,0,0
1447,-0.55,1645110336.78125,P12,D06,0,0,0
1448,-0.3,1645110336.796875,P12,D06,0,0,0
1449,-0.11,1645110336.8125,P12,D06,0,0,0
1450,-0.01,1645110336.828125,P12,D06,0,0,0
1451,0.0,1645110336.84375,P12,D06,0,0,0
1452,0.03,1645110336.859375,P12,D06,0,0,0
1453,0.16,1645110336.875,P12,D06,0,0,0
1454,0.43,1645110336.890625,P12,D06,0,0,0
1455,0.81,1645110336.90625,P12,D06,0,0,0
1456,1.21,1645110336.921875,P12,D06,0,0,0
1457,1.52,1645110336.9375,P12,D06,0,0,0
1458,1.68,1645110336.953125,P12,D06,0,0,0
1459,1.67,1645110336.96875,P12,D06,0,0,0
1460,1.54,1645110336.984375,P12,D06,0,0,0
1461,1.34,1645110337.0,P12,D06,0,0,0
1462,1.12,1645110337.015625,P12,D06,0,0,0
1463,0.87,1645110337.03125,P12,D06,0,0,0
1464,0.54,1645110337.046875,P12,D06,0,0,0
1465,0.13,1645110337.0625,P12,D06,0,0,0
1466,-0.34,1645110337.078125,P12,D06,0,0,0
1467,-0.75,1645110337.09375,P12,D06,0,0,0
1468,-1.02,1645110337.109375,P12,D06,0,0,0
1469,-1.09,1645110337.125,P12,D06,0,0,0
1470,-1.01,1645110337.140625,P12,D06,0,0,0
1471,-0.88,1645110337.15625,P12,D06,0,0,0
1472,-0.84,1645110337.171875,P12,D06,0,0,0
1473,-0.97,1645110337.1875,P12,D06,0,0,0
1474,-1.22,1645110337.203125,P12,D06,0,0,0
1475,-1.46,1645110337.21875,P12,D06,0,0,0
1476,-1.57,1645110337.234375,P12,D06,0,0,0
1477,-1.49,1645110337.25,P12,D06,0,0,0
1478,-1.22,1645110337.265625,P12,D06,0,0,0
1479,-0.85,1645110337.28125,P12,D06,0,0,0
1480,-0.44,1645110337.296875,P12,D06,0,0,0
1481,-0.02,1645110337.3125,P12,D06,0,0,0
1482,0.43,1645110337.328125,P12,D06,0,0,0
1483,0.91,1645110337.34375,P12,D06,0,0,0
1484,1.37,1645110337.359375,P12,D06,0,0,0
1485,1.73,1645110337.375,P12,D06,0,0,0
1486,1.86,1645110337.390625,P12,D06,0,0,0
1487,1.7,1645110337.40625,P12,D06,0,0,0
1488,1.3,1645110337.421875,P12,D06,0,0,0
1489,0.78,1645110337.4375,P12,D06,0,0,0
1490,0.31,1645110337.453125,P12,D06,0,0,0
1491,0.04,1645110337.46875,P12,D06,0,0,0
1492,0.01,1645110337.484375,P12,D06,0,0,0
1493,0.19,1645110337.5,P12,D06,0,0,0
1494,0.43,1645110337.515625,P12,D06,0,0,0
1495,0.61,1645110337.53125,P12,D06,0,0,0
1496,0.61,1645110337.546875,P12,D06,0,0,0
1497,0.41,1645110337.5625,P12,D06,0,0,0
1498,0.06,1645110337.578125,P12,D06,0,0,0
1499,-0.32,1645110337.59375,P12,D06,0,0,0
1500,-0.65,1645110337.609375,P12,D06,0,0,0
1501,-0.88,1645110337.625,P12,D06,0,0,0
1502,-0.98,1645110337.640625,P12,D06,0,0,0
1503,-0.96,1645110337.65625,P12,D06,0,0,0
1504,-0.83,1645110337.671875,P12,D06,0,0,0
1505,-0.6,1645110337.6875,P12,D06,0,0,0
1506,-0.3,1645110337.703125,P12,D06,0,0,0
1507,0.02,1645110337.71875,P12,D06,0,0,0
1508,0.3,1645110337.734375,P12,D06,0,0,0
1509,0.49,1645110337.75,P12,D06,0,0,0
1510,0.54,1645110337.765625,P12,D06,0,0,0
1511,0.45,1645110337.78125,P12,D06,0,0,0
1512,0.25,1645110337.796875,P12,D06,0,0,0
1513,-0.02,1645110337.8125,P12,D06,0,0,0
1514,-0.29,1645110337.828125,P12,D06,0,0,0
1515,-0.52,1645110337.84375,P12,D06,0,0,0
1516,-0.69,1645110337.859375,P12,D06,0,0,0
1517,-0.8,1645110337.875,P12,D06,0,0,0
1518,-0.86,1645110337.890625,P12,D06,0,0,0
1519,-0.89,1645110337.90625,P12,D06,0,0,0
1520,-0.89,1645110337.921875,P12,D06,0,0,0
1521,-0.84,1645110337.9375,P12,D06,0,0,0
1522,-0.75,1645110337.953125,P12,D06,0,0,0
1523,-0.63,1645110337.96875,P12,D06,0,0,0
1524,-0.53,1645110337.984375,P12,D06,0,0,0
1525,-0.5,1645110338.0,P12,D06,0,0,0
1526,-0.55,1645110338.015625,P12,D06,0,0,0
1527,-0.63,1645110338.03125,P12,D06,0,0,0
1528,-0.64,1645110338.046875,P12,D06,0,0,0
1529,-0.53,1645110338.0625,P12,D06,0,0,0
1530,-0.28,1645110338.078125,P12,D06,0,0,0
1531,0.01,1645110338.09375,P12,D06,0,0,0
1532,0.23,1645110338.109375,P12,D06,0,0,0
1533,0.3,1645110338.125,P12,D06,0,0,0
1534,0.23,1645110338.140625,P12,D06,0,0,0
1535,0.08,1645110338.15625,P12,D06,0,0,0
1536,-0.05,1645110338.171875,P12,D06,0,0,0
1537,-0.09,1645110338.1875,P12,D06,0,0,0
1538,-0.02,1645110338.203125,P12,D06,0,0,0
1539,0.13,1645110338.21875,P12,D06,0,0,0
1540,0.31,1645110338.234375,P12,D06,0,0,0
1541,0.48,1645110338.25,P12,D06,0,0,0
1542,0.63,1645110338.265625,P12,D06,0,0,0
1543,0.76,1645110338.28125,P12,D06,0,0,0
1544,0.88,1645110338.296875,P12,D06,0,0,0
1545,0.97,1645110338.3125,P12,D06,0,0,0
1546,0.97,1645110338.328125,P12,D06,0,0,0
1547,0.85,1645110338.34375,P12,D06,0,0,0
1548,0.62,1645110338.359375,P12,D06,0,0,0
1549,0.33,1645110338.375,P12,D06,0,0,0
1550,0.08,1645110338.390625,P12,D06,0,0,0
1551,-0.04,1645110338.40625,P12,D06,0,0,0
1552,-0.0,1645110338.421875,P12,D06,0,0,0
1553,0.15,1645110338.4375,P12,D06,0,0,0
1554,0.35,1645110338.453125,P12,D06,0,0,0
1555,0.53,1645110338.46875,P12,D06,0,0,0
1556,0.68,1645110338.484375,P12,D06,0,0,0
1557,0.81,1645110338.5,P12,D06,0,0,0
1558,0.93,1645110338.515625,P12,D06,0,0,0
1559,1.0,1645110338.53125,P12,D06,0,0,0
1560,0.93,1645110338.546875,P12,D06,0,0,0
1561,0.69,1645110338.5625,P12,D06,0,0,0
1562,0.31,1645110338.578125,P12,D06,0,0,0
1563,-0.07,1645110338.59375,P12,D06,0,0,0
1564,-0.3,1645110338.609375,P12,D06,0,0,0
1565,-0.26,1645110338.625,P12,D06,0,0,0
1566,-0.01,1645110338.640625,P12,D06,0,0,0
1567,0.33,1645110338.65625,P12,D06,0,0,0
1568,0.56,1645110338.671875,P12,D06,0,0,0
1569,0.59,1645110338.6875,P12,D06,0,0,0
1570,0.41,1645110338.703125,P12,D06,0,0,0
1571,0.1,1645110338.71875,P12,D06,0,0,0
1572,-0.22,1645110338.734375,P12,D06,0,0,0
1573,-0.48,1645110338.75,P12,D06,0,0,0
1574,-0.65,1645110338.765625,P12,D06,0,0,0
1575,-0.73,1645110338.78125,P12,D06,0,0,0
1576,-0.75,1645110338.796875,P12,D06,0,0,0
1577,-0.73,1645110338.8125,P12,D06,0,0,0
1578,-0.68,1645110338.828125,P12,D06,0,0,0
1579,-0.62,1645110338.84375,P12,D06,0,0,0
1580,-0.57,1645110338.859375,P12,D06,0,0,0
1581,-0.55,1645110338.875,P12,D06,0,0,0
1582,-0.56,1645110338.890625,P12,D06,0,0,0
1583,-0.57,1645110338.90625,P12,D06,0,0,0
1584,-0.57,1645110338.921875,P12,D06,0,0,0
1585,-0.51,1645110338.9375,P12,D06,0,0,0
1586,-0.4,1645110338.953125,P12,D06,0,0,0
1587,-0.23,1645110338.96875,P12,D06,0,0,0
1588,-0.01,1645110338.984375,P12,D06,0,0,0
1589,0.22,1645110339.0,P12,D06,0,0,0
1590,0.44,1645110339.015625,P12,D06,0,0,0
1591,0.61,1645110339.03125,P12,D06,0,0,0
1592,0.69,1645110339.046875,P12,D06,0,0,0
1593,0.69,1645110339.0625,P12,D06,0,0,0
1594,0.6,1645110339.078125,P12,D06,0,0,0
1595,0.45,1645110339.09375,P12,D06,0,0,0
1596,0.3,1645110339.109375,P12,D06,0,0,0
1597,0.15,1645110339.125,P12,D06,0,0,0
1598,0.02,1645110339.140625,P12,D06,0,0,0
1599,-0.06,1645110339.15625,P12,D06,0,0,0
1600,-0.09,1645110339.171875,P12,D06,0,0,0
1601,-0.06,1645110339.1875,P12,D06,0,0,0
1602,0.02,1645110339.203125,P12,D06,0,0,0
1603,0.1,1645110339.21875,P12,D06,0,0,0
1604,0.16,1645110339.234375,P12,D06,0,0,0
1605,0.12,1645110339.25,P12,D06,0,0,0
1606,-0.03,1645110339.265625,P12,D06,0,0,0
1607,-0.26,1645110339.28125,P12,D06,0,0,0
1608,-0.5,1645110339.296875,P12,D06,0,0,0
1609,-0.65,1645110339.3125,P12,D06,0,0,0
1610,-0.69,1645110339.328125,P12,D06,0,0,0
1611,-0.62,1645110339.34375,P12,D06,0,0,0
1612,-0.52,1645110339.359375,P12,D06,0,0,0
1613,-0.47,1645110339.375,P12,D06,0,0,0
1614,-0.5,1645110339.390625,P12,D06,0,0,0
1615,-0.56,1645110339.40625,P12,D06,0,0,0
1616,-0.59,1645110339.421875,P12,D06,0,0,0
1617,-0.52,1645110339.4375,P12,D06,0,0,0
1618,-0.34,1645110339.453125,P12,D06,0,0,0
1619,-0.11,1645110339.46875,P12,D06,0,0,0
1620,0.06,1645110339.484375,P12,D06,0,0,0
1621,0.15,1645110339.5,P12,D06,0,0,0
1622,0.15,1645110339.515625,P12,D06,0,0,0
1623,0.14,1645110339.53125,P12,D06,0,0,0
1624,0.19,1645110339.546875,P12,D06,0,0,0
1625,0.31,1645110339.5625,P12,D06,0,0,0
1626,0.47,1645110339.578125,P12,D06,0,0,0
1627,0.6,1645110339.59375,P12,D06,0,0,0
1628,0.68,1645110339.609375,P12,D06,0,0,0
1629,0.69,1645110339.625,P12,D06,0,0,0
1630,0.68,1645110339.640625,P12,D06,0,0,0
1631,0.67,1645110339.65625,P12,D06,0,0,0
1632,0.65,1645110339.671875,P12,D06,0,0,0
1633,0.58,1645110339.6875,P12,D06,0,0,0
1634,0.43,1645110339.703125,P12,D06,0,0,0
1635,0.18,1645110339.71875,P12,D06,0,0,0
1636,-0.12,1645110339.734375,P12,D06,0,0,0
1637,-0.42,1645110339.75,P12,D06,0,0,0
1638,-0.66,1645110339.765625,P12,D06,0,0,0
1639,-0.78,1645110339.78125,P12,D06,0,0,0
1640,-0.78,1645110339.796875,P12,D06,0,0,0
1641,-0.66,1645110339.8125,P12,D06,0,0,0
1642,-0.45,1645110339.828125,P12,D06,0,0,0
1643,-0.2,1645110339.84375,P12,D06,0,0,0
1644,0.01,1645110339.859375,P12,D06,0,0,0
1645,0.15,1645110339.875,P12,D06,0,0,0
1646,0.18,1645110339.890625,P12,D06,0,0,0
1647,0.16,1645110339.90625,P12,D06,0,0,0
1648,0.16,1645110339.921875,P12,D06,0,0,0
1649,0.2,1645110339.9375,P12,D06,0,0,0
1650,0.3,1645110339.953125,P12,D06,0,0,0
1651,0.4,1645110339.96875,P12,D06,0,0,0
1652,0.42,1645110339.984375,P12,D06,0,0,0
1653,0.33,1645110340.0,P12,D06,0,0,0
1654,0.17,1645110340.015625,P12,D06,0,0,0
1655,0.01,1645110340.03125,P12,D06,0,0,0
1656,-0.1,1645110340.046875,P12,D06,0,0,0
1657,-0.18,1645110340.0625,P12,D06,0,0,0
1658,-0.28,1645110340.078125,P12,D06,0,0,0
1659,-0.43,1645110340.09375,P12,D06,0,0,0
1660,-0.6,1645110340.109375,P12,D06,0,0,0
1661,-0.73,1645110340.125,P12,D06,0,0,0
1662,-0.71,1645110340.140625,P12,D06,0,0,0
1663,-0.51,1645110340.15625,P12,D06,0,0,0
1664,-0.2,1645110340.171875,P12,D06,0,0,0
1665,0.13,1645110340.1875,P12,D06,0,0,0
1666,0.38,1645110340.203125,P12,D06,0,0,0
1667,0.5,1645110340.21875,P12,D06,0,0,0
1668,0.55,1645110340.234375,P12,D06,0,0,0
1669,0.59,1645110340.25,P12,D06,0,0,0
1670,0.66,1645110340.265625,P12,D06,0,0,0
1671,0.75,1645110340.28125,P12,D06,0,0,0
1672,0.82,1645110340.296875,P12,D06,0,0,0
1673,0.82,1645110340.3125,P12,D06,0,0,0
1674,0.75,1645110340.328125,P12,D06,0,0,0
1675,0.64,1645110340.34375,P12,D06,0,0,0
1676,0.51,1645110340.359375,P12,D06,0,0,0
1677,0.4,1645110340.375,P12,D06,0,0,0
1678,0.29,1645110340.390625,P12,D06,0,0,0
1679,0.17,1645110340.40625,P12,D06,0,0,0
1680,0.02,1645110340.421875,P12,D06,0,0,0
1681,-0.17,1645110340.4375,P12,D06,0,0,0
1682,-0.38,1645110340.453125,P12,D06,0,0,0
1683,-0.58,1645110340.46875,P12,D06,0,0,0
1684,-0.73,1645110340.484375,P12,D06,0,0,0
1685,-0.79,1645110340.5,P12,D06,0,0,0
1686,-0.77,1645110340.515625,P12,D06,0,0,0
1687,-0.7,1645110340.53125,P12,D06,0,0,0
1688,-0.63,1645110340.546875,P12,D06,0,0,0
1689,-0.61,1645110340.5625,P12,D06,0,0,0
1690,-0.62,1645110340.578125,P12,D06,0,0,0
1691,-0.65,1645110340.59375,P12,D06,0,0,0
1692,-0.65,1645110340.609375,P12,D06,0,0,0
1693,-0.6,1645110340.625,P12,D06,0,0,0
1694,-0.5,1645110340.640625,P12,D06,0,0,0
1695,-0.39,1645110340.65625,P12,D06,0,0,0
1696,-0.3,1645110340.671875,P12,D06,0,0,0
1697,-0.22,1645110340.6875,P12,D06,0,0,0
1698,-0.12,1645110340.703125,P12,D06,0,0,0
1699,0.01,1645110340.71875,P12,D06,0,0,0
1700,0.19,1645110340.734375,P12,D06,0,0,0
1701,0.36,1645110340.75,P12,D06,0,0,0
1702,0.45,1645110340.765625,P12,D06,0,0,0
1703,0.41,1645110340.78125,P12,D06,0,0,0
1704,0.25,1645110340.796875,P12,D06,0,0,0
1705,0.06,1645110340.8125,P12,D06,0,0,0
1706,-0.04,1645110340.828125,P12,D06,0,0,0
1707,-0.0,1645110340.84375,P12,D06,0,0,0
1708,0.16,1645110340.859375,P12,D06,0,0,0
1709,0.36,1645110340.875,P12,D06,0,0,0
1710,0.5,1645110340.890625,P12,D06,0,0,0
1711,0.5,1645110340.90625,P12,D06,0,0,0
1712,0.4,1645110340.921875,P12,D06,0,0,0
1713,0.27,1645110340.9375,P12,D06,0,0,0
1714,0.17,1645110340.953125,P12,D06,0,0,0
1715,0.14,1645110340.96875,P12,D06,0,0,0
1716,0.12,1645110340.984375,P12,D06,0,0,0
1717,0.07,1645110341.0,P12,D06,0,0,0
1718,-0.05,1645110341.015625,P12,D06,0,0,0
1719,-0.21,1645110341.03125,P12,D06,0,0,0
1720,-0.33,1645110341.046875,P12,D06,0,0,0
1721,-0.33,1645110341.0625,P12,D06,0,0,0
1722,-0.17,1645110341.078125,P12,D06,0,0,0
1723,0.1,1645110341.09375,P12,D06,0,0,0
1724,0.4,1645110341.109375,P12,D06,0,0,0
1725,0.62,1645110341.125,P12,D06,0,0,0
1726,0.67,1645110341.140625,P12,D06,0,0,0
1727,0.52,1645110341.15625,P12,D06,0,0,0
1728,0.22,1645110341.171875,P12,D06,0,0,0
1729,-0.14,1645110341.1875,P12,D06,0,0,0
1730,-0.45,1645110341.203125,P12,D06,0,0,0
1731,-0.61,1645110341.21875,P12,D06,0,0,0
1732,-0.62,1645110341.234375,P12,D06,0,0,0
1733,-0.51,1645110341.25,P12,D06,0,0,0
1734,-0.38,1645110341.265625,P12,D06,0,0,0
1735,-0.32,1645110341.28125,P12,D06,0,0,0
1736,-0.34,1645110341.296875,P12,D06,0,0,0
1737,-0.38,1645110341.3125,P12,D06,0,0,0
1738,-0.36,1645110341.328125,P12,D06,0,0,0
1739,-0.21,1645110341.34375,P12,D06,0,0,0
1740,0.06,1645110341.359375,P12,D06,0,0,0
1741,0.36,1645110341.375,P12,D06,0,0,0
1742,0.59,1645110341.390625,P12,D06,0,0,0
1743,0.67,1645110341.40625,P12,D06,0,0,0
1744,0.64,1645110341.421875,P12,D06,0,0,0
1745,0.56,1645110341.4375,P12,D06,0,0,0
1746,0.51,1645110341.453125,P12,D06,0,0,0
1747,0.52,1645110341.46875,P12,D06,0,0,0
1748,0.53,1645110341.484375,P12,D06,0,0,0
1749,0.46,1645110341.5,P12,D06,0,0,0
1750,0.25,1645110341.515625,P12,D06,0,0,0
1751,-0.05,1645110341.53125,P12,D06,0,0,0
1752,-0.34,1645110341.546875,P12,D06,0,0,0
1753,-0.47,1645110341.5625,P12,D06,0,0,0
1754,-0.34,1645110341.578125,P12,D06,0,0,0
1755,0.03,1645110341.59375,P12,D06,0,0,0
1756,0.52,1645110341.609375,P12,D06,0,0,0
1757,0.95,1645110341.625,P12,D06,0,0,0
1758,1.17,1645110341.640625,P12,D06,0,0,0
1759,1.1,1645110341.65625,P12,D06,0,0,0
1760,0.8,1645110341.671875,P12,D06,0,0,0
1761,0.41,1645110341.6875,P12,D06,0,0,0
1762,0.06,1645110341.703125,P12,D06,0,0,0
1763,-0.18,1645110341.71875,P12,D06,0,0,0
1764,-0.32,1645110341.734375,P12,D06,0,0,0
1765,-0.43,1645110341.75,P12,D06,0,0,0
1766,-0.57,1645110341.765625,P12,D06,0,0,0
1767,-0.77,1645110341.78125,P12,D06,0,0,0
1768,-0.95,1645110341.796875,P12,D06,0,0,0
1769,-1.05,1645110341.8125,P12,D06,0,0,0
1770,-1.03,1645110341.828125,P12,D06,0,0,0
1771,-0.88,1645110341.84375,P12,D06,0,0,0
1772,-0.69,1645110341.859375,P12,D06,0,0,0
1773,-0.52,1645110341.875,P12,D06,0,0,0
1774,-0.44,1645110341.890625,P12,D06,0,0,0
1775,-0.43,1645110341.90625,P12,D06,0,0,0
1776,-0.44,1645110341.921875,P12,D06,0,0,0
1777,-0.42,1645110341.9375,P12,D06,0,0,0
1778,-0.33,1645110341.953125,P12,D06,0,0,0
1779,-0.18,1645110341.96875,P12,D06,0,0,0
1780,-0.01,1645110341.984375,P12,D06,0,0,0
1781,0.11,1645110342.0,P12,D06,0,0,0
1782,0.13,1645110342.015625,P12,D06,0,0,0
1783,0.05,1645110342.03125,P12,D06,0,0,0
1784,-0.09,1645110342.046875,P12,D06,0,0,0
1785,-0.23,1645110342.0625,P12,D06,0,0,0
1786,-0.29,1645110342.078125,P12,D06,0,0,0
1787,-0.26,1645110342.09375,P12,D06,0,0,0
1788,-0.18,1645110342.109375,P12,D06,0,0,0
1789,-0.09,1645110342.125,P12,D06,0,0,0
1790,-0.05,1645110342.140625,P12,D06,0,0,0
1791,-0.04,1645110342.15625,P12,D06,0,0,0
1792,-0.02,1645110342.171875,P12,D06,0,0,0
1793,0.07,1645110342.1875,P12,D06,0,0,0
1794,0.23,1645110342.203125,P12,D06,0,0,0
1795,0.44,1645110342.21875,P12,D06,0,0,0
1796,0.59,1645110342.234375,P12,D06,0,0,0
1797,0.64,1645110342.25,P12,D06,0,0,0
1798,0.55,1645110342.265625,P12,D06,0,0,0
1799,0.36,1645110342.28125,P12,D06,0,0,0
1800,0.17,1645110342.296875,P12,D06,0,0,0
1801,0.03,1645110342.3125,P12,D06,0,0,0
1802,0.0,1645110342.328125,P12,D06,0,0,0
1803,0.07,1645110342.34375,P12,D06,0,0,0
1804,0.21,1645110342.359375,P12,D06,0,0,0
1805,0.35,1645110342.375,P12,D06,0,0,0
1806,0.45,1645110342.390625,P12,D06,0,0,0
1807,0.46,1645110342.40625,P12,D06,0,0,0
1808,0.39,1645110342.421875,P12,D06,0,0,0
1809,0.27,1645110342.4375,P12,D06,0,0,0
1810,0.13,1645110342.453125,P12,D06,0,0,0
1811,0.01,1645110342.46875,P12,D06,0,0,0
1812,-0.08,1645110342.484375,P12,D06,0,0,0
1813,-0.1,1645110342.5,P12,D06,0,0,0
1814,-0.09,1645110342.515625,P12,D06,0,0,0
1815,-0.05,1645110342.53125,P12,D06,0,0,0
1816,-0.02,1645110342.546875,P12,D06,0,0,0
1817,-0.03,1645110342.5625,P12,D06,0,0,0
1818,-0.07,1645110342.578125,P12,D06,0,0,0
1819,-0.14,1645110342.59375,P12,D06,0,0,0
1820,-0.17,1645110342.609375,P12,D06,0,0,0
1821,-0.14,1645110342.625,P12,D06,0,0,0
1822,-0.03,1645110342.640625,P12,D06,0,0,0
1823,0.15,1645110342.65625,P12,D06,0,0,0
1824,0.34,1645110342.671875,P12,D06,0,0,0
1825,0.48,1645110342.6875,P12,D06,0,0,0
1826,0.53,1645110342.703125,P12,D06,0,0,0
1827,0.48,1645110342.71875,P12,D06,0,0,0
1828,0.36,1645110342.734375,P12,D06,0,0,0
1829,0.18,1645110342.75,P12,D06,0,0,0
1830,-0.0,1645110342.765625,P12,D06,0,0,0
1831,-0.14,1645110342.78125,P12,D06,0,0,0
1832,-0.21,1645110342.796875,P12,D06,0,0,0
1833,-0.19,1645110342.8125,P12,D06,0,0,0
1834,-0.09,1645110342.828125,P12,D06,0,0,0
1835,0.06,1645110342.84375,P12,D06,0,0,0
1836,0.2,1645110342.859375,P12,D06,0,0,0
1837,0.29,1645110342.875,P12,D06,0,0,0
1838,0.28,1645110342.890625,P12,D06,0,0,0
1839,0.18,1645110342.90625,P12,D06,0,0,0
1840,0.04,1645110342.921875,P12,D06,0,0,0
1841,-0.1,1645110342.9375,P12,D06,0,0,0
1842,-0.17,1645110342.953125,P12,D06,0,0,0
1843,-0.17,1645110342.96875,P12,D06,0,0,0
1844,-0.12,1645110342.984375,P12,D06,0,0,0
1845,-0.07,1645110343.0,P12,D06,0,0,0
1846,-0.08,1645110343.015625,P12,D06,0,0,0
1847,-0.18,1645110343.03125,P12,D06,0,0,0
1848,-0.34,1645110343.046875,P12,D06,0,0,0
1849,-0.5,1645110343.0625,P12,D06,0,0,0
1850,-0.58,1645110343.078125,P12,D06,0,0,0
1851,-0.55,1645110343.09375,P12,D06,0,0,0
1852,-0.4,1645110343.109375,P12,D06,0,0,0
1853,-0.19,1645110343.125,P12,D06,0,0,0
1854,0.03,1645110343.140625,P12,D06,0,0,0
1855,0.19,1645110343.15625,P12,D06,0,0,0
1856,0.24,1645110343.171875,P12,D06,0,0,0
1857,0.2,1645110343.1875,P12,D06,0,0,0
1858,0.1,1645110343.203125,P12,D06,0,0,0
1859,0.01,1645110343.21875,P12,D06,0,0,0
1860,-0.08,1645110343.234375,P12,D06,0,0,0
1861,-0.14,1645110343.25,P12,D06,0,0,0
1862,-0.22,1645110343.265625,P12,D06,0,0,0
1863,-0.29,1645110343.28125,P12,D06,0,0,0
1864,-0.29,1645110343.296875,P12,D06,0,0,0
1865,-0.15,1645110343.3125,P12,D06,0,0,0
1866,0.17,1645110343.328125,P12,D06,0,0,0
1867,0.65,1645110343.34375,P12,D06,0,0,0
1868,1.13,1645110343.359375,P12,D06,0,0,0
1869,1.44,1645110343.375,P12,D06,0,0,0
1870,1.42,1645110343.390625,P12,D06,0,0,0
1871,1.04,1645110343.40625,P12,D06,0,0,0
1872,0.42,1645110343.421875,P12,D06,0,0,0
1873,-0.22,1645110343.4375,P12,D06,0,0,0
1874,-0.69,1645110343.453125,P12,D06,0,0,0
1875,-0.88,1645110343.46875,P12,D06,0,0,0
1876,-0.8,1645110343.484375,P12,D06,0,0,0
1877,-0.52,1645110343.5,P12,D06,0,0,0
1878,-0.19,1645110343.515625,P12,D06,0,0,0
1879,0.13,1645110343.53125,P12,D06,0,0,0
1880,0.36,1645110343.546875,P12,D06,0,0,0
1881,0.49,1645110343.5625,P12,D06,0,0,0
1882,0.5,1645110343.578125,P12,D06,0,0,0
1883,0.4,1645110343.59375,P12,D06,0,0,0
1884,0.21,1645110343.609375,P12,D06,0,0,0
1885,-0.04,1645110343.625,P12,D06,0,0,0
1886,-0.27,1645110343.640625,P12,D06,0,0,0
1887,-0.44,1645110343.65625,P12,D06,0,0,0
1888,-0.52,1645110343.671875,P12,D06,0,0,0
1889,-0.49,1645110343.6875,P12,D06,0,0,0
1890,-0.39,1645110343.703125,P12,D06,0,0,0
1891,-0.27,1645110343.71875,P12,D06,0,0,0
1892,-0.19,1645110343.734375,P12,D06,0,0,0
1893,-0.2,1645110343.75,P12,D06,0,0,0
1894,-0.3,1645110343.765625,P12,D06,0,0,0
1895,-0.51,1645110343.78125,P12,D06,0,0,0
1896,-0.73,1645110343.796875,P12,D06,0,0,0
1897,-0.9,1645110343.8125,P12,D06,0,0,0
1898,-0.95,1645110343.828125,P12,D06,0,0,0
1899,-0.84,1645110343.84375,P12,D06,0,0,0
1900,-0.63,1645110343.859375,P12,D06,0,0,0
1901,-0.4,1645110343.875,P12,D06,0,0,0
1902,-0.23,1645110343.890625,P12,D06,0,0,0
1903,-0.14,1645110343.90625,P12,D06,0,0,0
1904,-0.09,1645110343.921875,P12,D06,0,0,0
1905,-0.04,1645110343.9375,P12,D06,0,0,0
1906,0.06,1645110343.953125,P12,D06,0,0,0
1907,0.21,1645110343.96875,P12,D06,0,0,0
1908,0.42,1645110343.984375,P12,D06,0,0,0
1909,0.67,1645110344.0,P12,D06,0,0,0
1910,0.95,1645110344.015625,P12,D06,0,0,0
1911,1.22,1645110344.03125,P12,D06,0,0,0
1912,1.39,1645110344.046875,P12,D06,0,0,0
1913,1.36,1645110344.0625,P12,D06,0,0,0
1914,1.09,1645110344.078125,P12,D06,0,0,0
1915,0.64,1645110344.09375,P12,D06,0,0,0
1916,0.16,1645110344.109375,P12,D06,0,0,0
1917,-0.17,1645110344.125,P12,D06,0,0,0
1918,-0.26,1645110344.140625,P12,D06,0,0,0
1919,-0.17,1645110344.15625,P12,D06,0,0,0
1920,0.02,1645110344.171875,P12,D06,0,0,0
1921,0.16,1645110344.1875,P12,D06,0,0,0
1922,0.22,1645110344.203125,P12,D06,0,0,0
1923,0.21,1645110344.21875,P12,D06,0,0,0
1924,0.18,1645110344.234375,P12,D06,0,0,0
1925,0.15,1645110344.25,P12,D06,0,0,0
1926,0.09,1645110344.265625,P12,D06,0,0,0
1927,-0.05,1645110344.28125,P12,D06,0,0,0
1928,-0.24,1645110344.296875,P12,D06,0,0,0
1929,-0.44,1645110344.3125,P12,D06,0,0,0
1930,-0.52,1645110344.328125,P12,D06,0,0,0
1931,-0.46,1645110344.34375,P12,D06,0,0,0
1932,-0.26,1645110344.359375,P12,D06,0,0,0
1933,-0.03,1645110344.375,P12,D06,0,0,0
1934,0.12,1645110344.390625,P12,D06,0,0,0
1935,0.11,1645110344.40625,P12,D06,0,0,0
1936,-0.07,1645110344.421875,P12,D06,0,0,0
1937,-0.37,1645110344.4375,P12,D06,0,0,0
1938,-0.7,1645110344.453125,P12,D06,0,0,0
1939,-0.98,1645110344.46875,P12,D06,0,0,0
1940,-1.13,1645110344.484375,P12,D06,0,0,0
1941,-1.12,1645110344.5,P12,D06,0,0,0
1942,-0.97,1645110344.515625,P12,D06,0,0,0
1943,-0.76,1645110344.53125,P12,D06,0,0,0
1944,-0.55,1645110344.546875,P12,D06,0,0,0
1945,-0.43,1645110344.5625,P12,D06,0,0,0
1946,-0.41,1645110344.578125,P12,D06,0,0,0
1947,-0.47,1645110344.59375,P12,D06,0,0,0
1948,-0.6,1645110344.609375,P12,D06,0,0,0
1949,-0.74,1645110344.625,P12,D06,0,0,0
1950,-0.84,1645110344.640625,P12,D06,0,0,0
1951,-0.89,1645110344.65625,P12,D06,0,0,0
1952,-0.87,1645110344.671875,P12,D06,0,0,0
1953,-0.8,1645110344.6875,P12,D06,0,0,0
1954,-0.7,1645110344.703125,P12,D06,0,0,0
1955,-0.59,1645110344.71875,P12,D06,0,0,0
1956,-0.47,1645110344.734375,P12,D06,0,0,0
1957,-0.34,1645110344.75,P12,D06,0,0,0
1958,-0.15,1645110344.765625,P12,D06,0,0,0
1959,0.09,1645110344.78125,P12,D06,0,0,0
1960,0.37,1645110344.796875,P12,D06,0,0,0
1961,0.63,1645110344.8125,P12,D06,0,0,0
1962,0.83,1645110344.828125,P12,D06,0,0,0
1963,0.93,1645110344.84375,P12,D06,0,0,0
1964,0.91,1645110344.859375,P12,D06,0,0,0
1965,0.82,1645110344.875,P12,D06,0,0,0
1966,0.67,1645110344.890625,P12,D06,0,0,0
1967,0.49,1645110344.90625,P12,D06,0,0,0
1968,0.3,1645110344.921875,P12,D06,0,0,0
1969,0.1,1645110344.9375,P12,D06,0,0,0
1970,-0.09,1645110344.953125,P12,D06,0,0,0
1971,-0.21,1645110344.96875,P12,D06,0,0,0
1972,-0.19,1645110344.984375,P12,D06,0,0,0
1973,0.01,1645110345.0,P12,D06,0,0,0
1974,0.41,1645110345.015625,P12,D06,0,0,0
1975,0.94,1645110345.03125,P12,D06,0,0,0
1976,1.47,1645110345.046875,P12,D06,0,0,0
1977,1.87,1645110345.0625,P12,D06,0,0,0
1978,1.99,1645110345.078125,P12,D06,0,0,0
1979,1.83,1645110345.09375,P12,D06,0,0,0
1980,1.42,1645110345.109375,P12,D06,0,0,0
1981,0.9,1645110345.125,P12,D06,0,0,0
1982,0.35,1645110345.140625,P12,D06,0,0,0
1983,-0.13,1645110345.15625,P12,D06,0,0,0
1984,-0.51,1645110345.171875,P12,D06,0,0,0
1985,-0.74,1645110345.1875,P12,D06,0,0,0
1986,-0.77,1645110345.203125,P12,D06,0,0,0
1987,-0.58,1645110345.21875,P12,D06,0,0,0
1988,-0.19,1645110345.234375,P12,D06,0,0,0
1989,0.28,1645110345.25,P12,D06,0,0,0
1990,0.65,1645110345.265625,P12,D06,0,0,0
1991,0.75,1645110345.28125,P12,D06,0,0,0
1992,0.51,1645110345.296875,P12,D06,0,0,0
1993,0.03,1645110345.3125,P12,D06,0,0,0
1994,-0.5,1645110345.328125,P12,D06,0,0,0
1995,-0.87,1645110345.34375,P12,D06,0,0,0
1996,-0.96,1645110345.359375,P12,D06,0,0,0
1997,-0.82,1645110345.375,P12,D06,0,0,0
1998,-0.59,1645110345.390625,P12,D06,0,0,0
1999,-0.43,1645110345.40625,P12,D06,0,0,0
2000,-0.43,1645110345.421875,P12,D06,0,0,0
2001,-0.56,1645110345.4375,P12,D06,0,0,0
2002,-0.71,1645110345.453125,P12,D06,0,0,0
2003,-0.72,1645110345.46875,P12,D06,0,0,0
2004,-0.54,1645110345.484375,P12,D06,0,0,0
2005,-0.21,1645110345.5,P12,D06,0,0,0
2006,0.13,1645110345.515625,P12,D06,0,0,0
2007,0.35,1645110345.53125,P12,D06,0,0,0
2008,0.34,1645110345.546875,P12,D06,0,0,0
2009,0.14,1645110345.5625,P12,D06,0,0,0
2010,-0.11,1645110345.578125,P12,D06,0,0,0
2011,-0.27,1645110345.59375,P12,D06,0,0,0
2012,-0.25,1645110345.609375,P12,D06,0,0,0
2013,-0.07,1645110345.625,P12,D06,0,0,0
2014,0.16,1645110345.640625,P12,D06,0,0,0
2015,0.29,1645110345.65625,P12,D06,0,0,0
2016,0.27,1645110345.671875,P12,D06,0,0,0
2017,0.16,1645110345.6875,P12,D06,0,0,0
2018,0.09,1645110345.703125,P12,D06,0,0,0
2019,0.18,1645110345.71875,P12,D06,0,0,0
2020,0.46,1645110345.734375,P12,D06,0,0,0
2021,0.81,1645110345.75,P12,D06,0,0,0
2022,1.06,1645110345.765625,P12,D06,0,0,0
2023,1.09,1645110345.78125,P12,D06,0,0,0
2024,0.88,1645110345.796875,P12,D06,0,0,0
2025,0.55,1645110345.8125,P12,D06,0,0,0
2026,0.26,1645110345.828125,P12,D06,0,0,0
2027,0.14,1645110345.84375,P12,D06,0,0,0
2028,0.2,1645110345.859375,P12,D06,0,0,0
2029,0.36,1645110345.875,P12,D06,0,0,0
2030,0.5,1645110345.890625,P12,D06,0,0,0
2031,0.52,1645110345.90625,P12,D06,0,0,0
2032,0.39,1645110345.921875,P12,D06,0,0,0
2033,0.19,1645110345.9375,P12,D06,0,0,0
2034,0.01,1645110345.953125,P12,D06,0,0,0
2035,-0.07,1645110345.96875,P12,D06,0,0,0
2036,0.02,1645110345.984375,P12,D06,0,0,0
2037,0.25,1645110346.0,P12,D06,0,0,0
2038,0.54,1645110346.015625,P12,D06,0,0,0
2039,0.79,1645110346.03125,P12,D06,0,0,0
2040,0.89,1645110346.046875,P12,D06,0,0,0
2041,0.79,1645110346.0625,P12,D06,0,0,0
2042,0.52,1645110346.078125,P12,D06,0,0,0
2043,0.18,1645110346.09375,P12,D06,0,0,0
2044,-0.11,1645110346.109375,P12,D06,0,0,0
2045,-0.25,1645110346.125,P12,D06,0,0,0
2046,-0.19,1645110346.140625,P12,D06,0,0,0
2047,0.0,1645110346.15625,P12,D06,0,0,0
2048,0.23,1645110346.171875,P12,D06,0,0,0
2049,0.37,1645110346.1875,P12,D06,0,0,0
2050,0.3,1645110346.203125,P12,D06,0,0,0
2051,-0.03,1645110346.21875,P12,D06,0,0,0
2052,-0.56,1645110346.234375,P12,D06,0,0,0
2053,-1.12,1645110346.25,P12,D06,0,0,0
2054,-1.51,1645110346.265625,P12,D06,0,0,0
2055,-1.56,1645110346.28125,P12,D06,0,0,0
2056,-1.27,1645110346.296875,P12,D06,0,0,0
2057,-0.75,1645110346.3125,P12,D06,0,0,0
2058,-0.26,1645110346.328125,P12,D06,0,0,0
2059,-0.0,1645110346.34375,P12,D06,0,0,0
2060,-0.03,1645110346.359375,P12,D06,0,0,0
2061,-0.26,1645110346.375,P12,D06,0,0,0
2062,-0.49,1645110346.390625,P12,D06,0,0,0
2063,-0.58,1645110346.40625,P12,D06,0,0,0
2064,-0.49,1645110346.421875,P12,D06,0,0,0
2065,-0.31,1645110346.4375,P12,D06,0,0,0
2066,-0.21,1645110346.453125,P12,D06,0,0,0
2067,-0.27,1645110346.46875,P12,D06,0,0,0
2068,-0.51,1645110346.484375,P12,D06,0,0,0
2069,-0.83,1645110346.5,P12,D06,0,0,0
2070,-1.11,1645110346.515625,P12,D06,0,0,0
2071,-1.24,1645110346.53125,P12,D06,0,0,0
2072,-1.15,1645110346.546875,P12,D06,0,0,0
2073,-0.87,1645110346.5625,P12,D06,0,0,0
2074,-0.45,1645110346.578125,P12,D06,0,0,0
2075,-0.02,1645110346.59375,P12,D06,0,0,0
2076,0.3,1645110346.609375,P12,D06,0,0,0
2077,0.43,1645110346.625,P12,D06,0,0,0
2078,0.34,1645110346.640625,P12,D06,0,0,0
2079,0.12,1645110346.65625,P12,D06,0,0,0
2080,-0.12,1645110346.671875,P12,D06,0,0,0
2081,-0.25,1645110346.6875,P12,D06,0,0,0
2082,-0.19,1645110346.703125,P12,D06,0,0,0
2083,0.04,1645110346.71875,P12,D06,0,0,0
2084,0.38,1645110346.734375,P12,D06,0,0,0
2085,0.7,1645110346.75,P12,D06,0,0,0
2086,0.9,1645110346.765625,P12,D06,0,0,0
2087,0.9,1645110346.78125,P12,D06,0,0,0
2088,0.73,1645110346.796875,P12,D06,0,0,0
2089,0.45,1645110346.8125,P12,D06,0,0,0
2090,0.18,1645110346.828125,P12,D06,0,0,0
2091,0.01,1645110346.84375,P12,D06,0,0,0
2092,-0.0,1645110346.859375,P12,D06,0,0,0
2093,0.11,1645110346.875,P12,D06,0,0,0
2094,0.29,1645110346.890625,P12,D06,0,0,0
2095,0.44,1645110346.90625,P12,D06,0,0,0
2096,0.54,1645110346.921875,P12,D06,0,0,0
2097,0.58,1645110346.9375,P12,D06,0,0,0
2098,0.6,1645110346.953125,P12,D06,0,0,0
2099,0.57,1645110346.96875,P12,D06,0,0,0
2100,0.48,1645110346.984375,P12,D06,0,0,0
2101,0.3,1645110347.0,P12,D06,0,0,0
2102,0.07,1645110347.015625,P12,D06,0,0,0
2103,-0.12,1645110347.03125,P12,D06,0,0,0
2104,-0.17,1645110347.046875,P12,D06,0,0,0
2105,-0.04,1645110347.0625,P12,D06,0,0,0
2106,0.22,1645110347.078125,P12,D06,0,0,0
2107,0.48,1645110347.09375,P12,D06,0,0,0
2108,0.6,1645110347.109375,P12,D06,0,0,0
2109,0.5,1645110347.125,P12,D06,0,0,0
2110,0.2,1645110347.140625,P12,D06,0,0,0
2111,-0.18,1645110347.15625,P12,D06,0,0,0
2112,-0.54,1645110347.171875,P12,D06,0,0,0
2113,-0.79,1645110347.1875,P12,D06,0,0,0
2114,-0.93,1645110347.203125,P12,D06,0,0,0
2115,-0.97,1645110347.21875,P12,D06,0,0,0
2116,-0.96,1645110347.234375,P12,D06,0,0,0
2117,-0.9,1645110347.25,P12,D06,0,0,0
2118,-0.84,1645110347.265625,P12,D06,0,0,0
2119,-0.79,1645110347.28125,P12,D06,0,0,0
2120,-0.81,1645110347.296875,P12,D06,0,0,0
2121,-0.87,1645110347.3125,P12,D06,0,0,0
2122,-0.93,1645110347.328125,P12,D06,0,0,0
2123,-0.9,1645110347.34375,P12,D06,0,0,0
2124,-0.7,1645110347.359375,P12,D06,0,0,0
2125,-0.33,1645110347.375,P12,D06,0,0,0
2126,0.15,1645110347.390625,P12,D06,0,0,0
2127,0.63,1645110347.40625,P12,D06,0,0,0
2128,0.96,1645110347.421875,P12,D06,0,0,0
2129,1.09,1645110347.4375,P12,D06,0,0,0
2130,1.03,1645110347.453125,P12,D06,0,0,0
2131,0.86,1645110347.46875,P12,D06,0,0,0
2132,0.66,1645110347.484375,P12,D06,0,0,0
2133,0.48,1645110347.5,P12,D06,0,0,0
2134,0.32,1645110347.515625,P12,D06,0,0,0
2135,0.16,1645110347.53125,P12,D06,0,0,0
2136,0.01,1645110347.546875,P12,D06,0,0,0
2137,-0.09,1645110347.5625,P12,D06,0,0,0
2138,-0.1,1645110347.578125,P12,D06,0,0,0
2139,0.03,1645110347.59375,P12,D06,0,0,0
2140,0.26,1645110347.609375,P12,D06,0,0,0
2141,0.52,1645110347.625,P12,D06,0,0,0
2142,0.72,1645110347.640625,P12,D06,0,0,0
2143,0.8,1645110347.65625,P12,D06,0,0,0
2144,0.75,1645110347.671875,P12,D06,0,0,0
2145,0.58,1645110347.6875,P12,D06,0,0,0
2146,0.37,1645110347.703125,P12,D06,0,0,0
2147,0.15,1645110347.71875,P12,D06,0,0,0
2148,-0.02,1645110347.734375,P12,D06,0,0,0
2149,-0.16,1645110347.75,P12,D06,0,0,0
2150,-0.22,1645110347.765625,P12,D06,0,0,0
2151,-0.22,1645110347.78125,P12,D06,0,0,0
2152,-0.14,1645110347.796875,P12,D06,0,0,0
2153,0.0,1645110347.8125,P12,D06,0,0,0
2154,0.17,1645110347.828125,P12,D06,0,0,0
2155,0.32,1645110347.84375,P12,D06,0,0,0
2156,0.39,1645110347.859375,P12,D06,0,0,0
2157,0.36,1645110347.875,P12,D06,0,0,0
2158,0.23,1645110347.890625,P12,D06,0,0,0
2159,0.04,1645110347.90625,P12,D06,0,0,0
2160,-0.18,1645110347.921875,P12,D06,0,0,0
2161,-0.4,1645110347.9375,P12,D06,0,0,0
2162,-0.59,1645110347.953125,P12,D06,0,0,0
2163,-0.73,1645110347.96875,P12,D06,0,0,0
2164,-0.8,1645110347.984375,P12,D06,0,0,0
2165,-0.79,1645110348.0,P12,D06,0,0,0
2166,-0.69,1645110348.015625,P12,D06,0,0,0
2167,-0.51,1645110348.03125,P12,D06,0,0,0
2168,-0.3,1645110348.046875,P12,D06,0,0,0
2169,-0.12,1645110348.0625,P12,D06,0,0,0
2170,-0.02,1645110348.078125,P12,D06,0,0,0
2171,-0.03,1645110348.09375,P12,D06,0,0,0
2172,-0.17,1645110348.109375,P12,D06,0,0,0
2173,-0.39,1645110348.125,P12,D06,0,0,0
2174,-0.66,1645110348.140625,P12,D06,0,0,0
2175,-0.91,1645110348.15625,P12,D06,0,0,0
2176,-1.09,1645110348.171875,P12,D06,0,0,0
2177,-1.15,1645110348.1875,P12,D06,0,0,0
2178,-1.09,1645110348.203125,P12,D06,0,0,0
2179,-0.94,1645110348.21875,P12,D06,0,0,0
2180,-0.74,1645110348.234375,P12,D06,0,0,0
2181,-0.54,1645110348.25,P12,D06,0,0,0
2182,-0.35,1645110348.265625,P12,D06,0,0,0
2183,-0.16,1645110348.28125,P12,D06,0,0,0
2184,0.05,1645110348.296875,P12,D06,0,0,0
2185,0.24,1645110348.3125,P12,D06,0,0,0
2186,0.38,1645110348.328125,P12,D06,0,0,0
2187,0.44,1645110348.34375,P12,D06,0,0,0
2188,0.4,1645110348.359375,P12,D06,0,0,0
2189,0.28,1645110348.375,P12,D06,0,0,0
2190,0.13,1645110348.390625,P12,D06,0,0,0
2191,-0.01,1645110348.40625,P12,D06,0,0,0
2192,-0.13,1645110348.421875,P12,D06,0,0,0
2193,-0.19,1645110348.4375,P12,D06,0,0,0
2194,-0.18,1645110348.453125,P12,D06,0,0,0
2195,-0.08,1645110348.46875,P12,D06,0,0,0
2196,0.14,1645110348.484375,P12,D06,0,0,0
2197,0.47,1645110348.5,P12,D06,0,0,0
2198,0.86,1645110348.515625,P12,D06,0,0,0
2199,1.2,1645110348.53125,P12,D06,0,0,0
2200,1.36,1645110348.546875,P12,D06,0,0,0
2201,1.27,1645110348.5625,P12,D06,0,0,0
2202,0.94,1645110348.578125,P12,D06,0,0,0
2203,0.49,1645110348.59375,P12,D06,0,0,0
2204,0.07,1645110348.609375,P12,D06,0,0,0
2205,-0.21,1645110348.625,P12,D06,0,0,0
2206,-0.28,1645110348.640625,P12,D06,0,0,0
2207,-0.2,1645110348.65625,P12,D06,0,0,0
2208,-0.05,1645110348.671875,P12,D06,0,0,0
2209,0.12,1645110348.6875,P12,D06,0,0,0
2210,0.31,1645110348.703125,P12,D06,0,0,0
2211,0.54,1645110348.71875,P12,D06,0,0,0
2212,0.81,1645110348.734375,P12,D06,0,0,0
2213,1.05,1645110348.75,P12,D06,0,0,0
2214,1.14,1645110348.765625,P12,D06,0,0,0
2215,0.99,1645110348.78125,P12,D06,0,0,0
2216,0.59,1645110348.796875,P12,D06,0,0,0
2217,0.01,1645110348.8125,P12,D06,0,0,0
2218,-0.56,1645110348.828125,P12,D06,0,0,0
2219,-0.95,1645110348.84375,P12,D06,0,0,0
2220,-1.06,1645110348.859375,P12,D06,0,0,0
2221,-0.89,1645110348.875,P12,D06,0,0,0
2222,-0.56,1645110348.890625,P12,D06,0,0,0
2223,-0.22,1645110348.90625,P12,D06,0,0,0
2224,0.03,1645110348.921875,P12,D06,0,0,0
2225,0.18,1645110348.9375,P12,D06,0,0,0
2226,0.3,1645110348.953125,P12,D06,0,0,0
2227,0.49,1645110348.96875,P12,D06,0,0,0
2228,0.79,1645110348.984375,P12,D06,0,0,0
2229,1.12,1645110349.0,P12,D06,0,0,0
2230,1.35,1645110349.015625,P12,D06,0,0,0
2231,1.34,1645110349.03125,P12,D06,0,0,0
2232,1.04,1645110349.046875,P12,D06,0,0,0
2233,0.53,1645110349.0625,P12,D06,0,0,0
2234,-0.01,1645110349.078125,P12,D06,0,0,0
2235,-0.41,1645110349.09375,P12,D06,0,0,0
2236,-0.59,1645110349.109375,P12,D06,0,0,0
2237,-0.6,1645110349.125,P12,D06,0,0,0
2238,-0.57,1645110349.140625,P12,D06,0,0,0
2239,-0.61,1645110349.15625,P12,D06,0,0,0
2240,-0.77,1645110349.171875,P12,D06,0,0,0
2241,-0.94,1645110349.1875,P12,D06,0,0,0
2242,-0.98,1645110349.203125,P12,D06,0,0,0
2243,-0.79,1645110349.21875,P12,D06,0,0,0
2244,-0.35,1645110349.234375,P12,D06,0,0,0
2245,0.19,1645110349.25,P12,D06,0,0,0
2246,0.66,1645110349.265625,P12,D06,0,0,0
2247,0.9,1645110349.28125,P12,D06,0,0,0
2248,0.85,1645110349.296875,P12,D06,0,0,0
2249,0.57,1645110349.3125,P12,D06,0,0,0
2250,0.2,1645110349.328125,P12,D06,0,0,0
2251,-0.12,1645110349.34375,P12,D06,0,0,0
2252,-0.31,1645110349.359375,P12,D06,0,0,0
2253,-0.32,1645110349.375,P12,D06,0,0,0
2254,-0.18,1645110349.390625,P12,D06,0,0,0
2255,0.06,1645110349.40625,P12,D06,0,0,0
2256,0.31,1645110349.421875,P12,D06,0,0,0
2257,0.5,1645110349.4375,P12,D06,0,0,0
2258,0.54,1645110349.453125,P12,D06,0,0,0
2259,0.43,1645110349.46875,P12,D06,0,0,0
2260,0.19,1645110349.484375,P12,D06,0,0,0
2261,-0.08,1645110349.5,P12,D06,0,0,0
2262,-0.28,1645110349.515625,P12,D06,0,0,0
2263,-0.33,1645110349.53125,P12,D06,0,0,0
2264,-0.25,1645110349.546875,P12,D06,0,0,0
2265,-0.13,1645110349.5625,P12,D06,0,0,0
2266,-0.05,1645110349.578125,P12,D06,0,0,0
2267,-0.11,1645110349.59375,P12,D06,0,0,0
2268,-0.26,1645110349.609375,P12,D06,0,0,0
2269,-0.43,1645110349.625,P12,D06,0,0,0
2270,-0.53,1645110349.640625,P12,D06,0,0,0
2271,-0.52,1645110349.65625,P12,D06,0,0,0
2272,-0.43,1645110349.671875,P12,D06,0,0,0
2273,-0.36,1645110349.6875,P12,D06,0,0,0
2274,-0.41,1645110349.703125,P12,D06,0,0,0
2275,-0.58,1645110349.71875,P12,D06,0,0,0
2276,-0.79,1645110349.734375,P12,D06,0,0,0
2277,-0.92,1645110349.75,P12,D06,0,0,0
2278,-0.86,1645110349.765625,P12,D06,0,0,0
2279,-0.62,1645110349.78125,P12,D06,0,0,0
2280,-0.27,1645110349.796875,P12,D06,0,0,0
2281,0.04,1645110349.8125,P12,D06,0,0,0
2282,0.23,1645110349.828125,P12,D06,0,0,0
2283,0.26,1645110349.84375,P12,D06,0,0,0
2284,0.2,1645110349.859375,P12,D06,0,0,0
2285,0.13,1645110349.875,P12,D06,0,0,0
2286,0.1,1645110349.890625,P12,D06,0,0,0
2287,0.11,1645110349.90625,P12,D06,0,0,0
2288,0.13,1645110349.921875,P12,D06,0,0,0
2289,0.14,1645110349.9375,P12,D06,0,0,0
2290,0.14,1645110349.953125,P12,D06,0,0,0
2291,0.17,1645110349.96875,P12,D06,0,0,0
2292,0.26,1645110349.984375,P12,D06,0,0,0
2293,0.39,1645110350.0,P12,D06,0,0,0
2294,0.5,1645110350.015625,P12,D06,0,0,0
2295,0.5,1645110350.03125,P12,D06,0,0,0
2296,0.33,1645110350.046875,P12,D06,0,0,0
2297,0.03,1645110350.0625,P12,D06,0,0,0
2298,-0.28,1645110350.078125,P12,D06,0,0,0
2299,-0.47,1645110350.09375,P12,D06,0,0,0
2300,-0.44,1645110350.109375,P12,D06,0,0,0
2301,-0.21,1645110350.125,P12,D06,0,0,0
2302,0.12,1645110350.140625,P12,D06,0,0,0
2303,0.4,1645110350.15625,P12,D06,0,0,0
2304,0.51,1645110350.171875,P12,D06,0,0,0
2305,0.44,1645110350.1875,P12,D06,0,0,0
2306,0.28,1645110350.203125,P12,D06,0,0,0
2307,0.12,1645110350.21875,P12,D06,0,0,0
2308,0.04,1645110350.234375,P12,D06,0,0,0
2309,0.05,1645110350.25,P12,D06,0,0,0
2310,0.08,1645110350.265625,P12,D06,0,0,0
2311,0.09,1645110350.28125,P12,D06,0,0,0
2312,0.05,1645110350.296875,P12,D06,0,0,0
2313,0.01,1645110350.3125,P12,D06,0,0,0
2314,0.03,1645110350.328125,P12,D06,0,0,0
2315,0.12,1645110350.34375,P12,D06,0,0,0
2316,0.22,1645110350.359375,P12,D06,0,0,0
2317,0.24,1645110350.375,P12,D06,0,0,0
2318,0.11,1645110350.390625,P12,D06,0,0,0
2319,-0.14,1645110350.40625,P12,D06,0,0,0
2320,-0.37,1645110350.421875,P12,D06,0,0,0
2321,-0.42,1645110350.4375,P12,D06,0,0,0
2322,-0.23,1645110350.453125,P12,D06,0,0,0
2323,0.14,1645110350.46875,P12,D06,0,0,0
2324,0.52,1645110350.484375,P12,D06,0,0,0
2325,0.72,1645110350.5,P12,D06,0,0,0
2326,0.67,1645110350.515625,P12,D06,0,0,0
2327,0.43,1645110350.53125,P12,D06,0,0,0
2328,0.16,1645110350.546875,P12,D06,0,0,0
2329,0.02,1645110350.5625,P12,D06,0,0,0
2330,0.05,1645110350.578125,P12,D06,0,0,0
2331,0.17,1645110350.59375,P12,D06,0,0,0
2332,0.24,1645110350.609375,P12,D06,0,0,0
2333,0.18,1645110350.625,P12,D06,0,0,0
2334,0.02,1645110350.640625,P12,D06,0,0,0
2335,-0.17,1645110350.65625,P12,D06,0,0,0
2336,-0.28,1645110350.671875,P12,D06,0,0,0
2337,-0.27,1645110350.6875,P12,D06,0,0,0
2338,-0.17,1645110350.703125,P12,D06,0,0,0
2339,-0.03,1645110350.71875,P12,D06,0,0,0
2340,0.14,1645110350.734375,P12,D06,0,0,0
2341,0.33,1645110350.75,P12,D06,0,0,0
2342,0.56,1645110350.765625,P12,D06,0,0,0
2343,0.81,1645110350.78125,P12,D06,0,0,0
2344,1.0,1645110350.796875,P12,D06,0,0,0
2345,1.05,1645110350.8125,P12,D06,0,0,0
2346,0.93,1645110350.828125,P12,D06,0,0,0
2347,0.67,1645110350.84375,P12,D06,0,0,0
2348,0.35,1645110350.859375,P12,D06,0,0,0
2349,0.1,1645110350.875,P12,D06,0,0,0
2350,-0.02,1645110350.890625,P12,D06,0,0,0
2351,0.01,1645110350.90625,P12,D06,0,0,0
2352,0.16,1645110350.921875,P12,D06,0,0,0
2353,0.34,1645110350.9375,P12,D06,0,0,0
2354,0.48,1645110350.953125,P12,D06,0,0,0
2355,0.5,1645110350.96875,P12,D06,0,0,0
2356,0.38,1645110350.984375,P12,D06,0,0,0
2357,0.13,1645110351.0,P12,D06,0,0,0
2358,-0.23,1645110351.015625,P12,D06,0,0,0
2359,-0.63,1645110351.03125,P12,D06,0,0,0
2360,-1.03,1645110351.046875,P12,D06,0,0,0
2361,-1.37,1645110351.0625,P12,D06,0,0,0
2362,-1.6,1645110351.078125,P12,D06,0,0,0
2363,-1.67,1645110351.09375,P12,D06,0,0,0
2364,-1.52,1645110351.109375,P12,D06,0,0,0
2365,-1.13,1645110351.125,P12,D06,0,0,0
2366,-0.58,1645110351.140625,P12,D06,0,0,0
2367,-0.01,1645110351.15625,P12,D06,0,0,0
2368,0.41,1645110351.171875,P12,D06,0,0,0
2369,0.58,1645110351.1875,P12,D06,0,0,0
2370,0.47,1645110351.203125,P12,D06,0,0,0
2371,0.17,1645110351.21875,P12,D06,0,0,0
2372,-0.16,1645110351.234375,P12,D06,0,0,0
2373,-0.43,1645110351.25,P12,D06,0,0,0
2374,-0.57,1645110351.265625,P12,D06,0,0,0
2375,-0.6,1645110351.28125,P12,D06,0,0,0
2376,-0.55,1645110351.296875,P12,D06,0,0,0
2377,-0.44,1645110351.3125,P12,D06,0,0,0
2378,-0.29,1645110351.328125,P12,D06,0,0,0
2379,-0.11,1645110351.34375,P12,D06,0,0,0
2380,0.06,1645110351.359375,P12,D06,0,0,0
2381,0.15,1645110351.375,P12,D06,0,0,0
2382,0.14,1645110351.390625,P12,D06,0,0,0
2383,0.01,1645110351.40625,P12,D06,0,0,0
2384,-0.14,1645110351.421875,P12,D06,0,0,0
2385,-0.24,1645110351.4375,P12,D06,0,0,0
2386,-0.22,1645110351.453125,P12,D06,0,0,0
2387,-0.08,1645110351.46875,P12,D06,0,0,0
2388,0.1,1645110351.484375,P12,D06,0,0,0
2389,0.21,1645110351.5,P12,D06,0,0,0
2390,0.18,1645110351.515625,P12,D06,0,0,0
2391,-0.04,1645110351.53125,P12,D06,0,0,0
2392,-0.39,1645110351.546875,P12,D06,0,0,0
2393,-0.78,1645110351.5625,P12,D06,0,0,0
2394,-1.08,1645110351.578125,P12,D06,0,0,0
2395,-1.22,1645110351.59375,P12,D06,0,0,0
2396,-1.18,1645110351.609375,P12,D06,0,0,0
2397,-1.0,1645110351.625,P12,D06,0,0,0
2398,-0.73,1645110351.640625,P12,D06,0,0,0
2399,-0.45,1645110351.65625,P12,D06,0,0,0
2400,-0.17,1645110351.671875,P12,D06,0,0,0
2401,0.08,1645110351.6875,P12,D06,0,0,0
2402,0.31,1645110351.703125,P12,D06,0,0,0
2403,0.48,1645110351.71875,P12,D06,0,0,0
2404,0.56,1645110351.734375,P12,D06,0,0,0
2405,0.54,1645110351.75,P12,D06,0,0,0
2406,0.44,1645110351.765625,P12,D06,0,0,0
2407,0.32,1645110351.78125,P12,D06,0,0,0
2408,0.3,1645110351.796875,P12,D06,0,0,0
2409,0.44,1645110351.8125,P12,D06,0,0,0
2410,0.73,1645110351.828125,P12,D06,0,0,0
2411,1.07,1645110351.84375,P12,D06,0,0,0
2412,1.32,1645110351.859375,P12,D06,0,0,0
2413,1.37,1645110351.875,P12,D06,0,0,0
2414,1.24,1645110351.890625,P12,D06,0,0,0
2415,0.98,1645110351.90625,P12,D06,0,0,0
2416,0.73,1645110351.921875,P12,D06,0,0,0
2417,0.52,1645110351.9375,P12,D06,0,0,0
2418,0.36,1645110351.953125,P12,D06,0,0,0
2419,0.2,1645110351.96875,P12,D06,0,0,0
2420,0.03,1645110351.984375,P12,D06,0,0,0
2421,-0.11,1645110352.0,P12,D06,0,0,0
2422,-0.12,1645110352.015625,P12,D06,0,0,0
2423,0.03,1645110352.03125,P12,D06,0,0,0
2424,0.33,1645110352.046875,P12,D06,0,0,0
2425,0.64,1645110352.0625,P12,D06,0,0,0
2426,0.84,1645110352.078125,P12,D06,0,0,0
2427,0.84,1645110352.09375,P12,D06,0,0,0
2428,0.66,1645110352.109375,P12,D06,0,0,0
2429,0.39,1645110352.125,P12,D06,0,0,0
2430,0.13,1645110352.140625,P12,D06,0,0,0
2431,-0.05,1645110352.15625,P12,D06,0,0,0
2432,-0.16,1645110352.171875,P12,D06,0,0,0
2433,-0.26,1645110352.1875,P12,D06,0,0,0
2434,-0.39,1645110352.203125,P12,D06,0,0,0
2435,-0.54,1645110352.21875,P12,D06,0,0,0
2436,-0.65,1645110352.234375,P12,D06,0,0,0
2437,-0.66,1645110352.25,P12,D06,0,0,0
2438,-0.57,1645110352.265625,P12,D06,0,0,0
2439,-0.41,1645110352.28125,P12,D06,0,0,0
2440,-0.25,1645110352.296875,P12,D06,0,0,0
2441,-0.15,1645110352.3125,P12,D06,0,0,0
2442,-0.1,1645110352.328125,P12,D06,0,0,0
2443,-0.03,1645110352.34375,P12,D06,0,0,0
2444,0.14,1645110352.359375,P12,D06,0,0,0
2445,0.45,1645110352.375,P12,D06,0,0,0
2446,0.84,1645110352.390625,P12,D06,0,0,0
2447,1.16,1645110352.40625,P12,D06,0,0,0
2448,1.29,1645110352.421875,P12,D06,0,0,0
2449,1.16,1645110352.4375,P12,D06,0,0,0
2450,0.78,1645110352.453125,P12,D06,0,0,0
2451,0.25,1645110352.46875,P12,D06,0,0,0
2452,-0.31,1645110352.484375,P12,D06,0,0,0
2453,-0.79,1645110352.5,P12,D06,0,0,0
2454,-1.1,1645110352.515625,P12,D06,0,0,0
2455,-1.17,1645110352.53125,P12,D06,0,0,0
2456,-1.0,1645110352.546875,P12,D06,0,0,0
2457,-0.61,1645110352.5625,P12,D06,0,0,0
2458,-0.12,1645110352.578125,P12,D06,0,0,0
2459,0.35,1645110352.59375,P12,D06,0,0,0
2460,0.67,1645110352.609375,P12,D06,0,0,0
2461,0.78,1645110352.625,P12,D06,0,0,0
2462,0.72,1645110352.640625,P12,D06,0,0,0
2463,0.56,1645110352.65625,P12,D06,0,0,0
2464,0.39,1645110352.671875,P12,D06,0,0,0
2465,0.24,1645110352.6875,P12,D06,0,0,0
2466,0.09,1645110352.703125,P12,D06,0,0,0
2467,-0.11,1645110352.71875,P12,D06,0,0,0
2468,-0.35,1645110352.734375,P12,D06,0,0,0
2469,-0.59,1645110352.75,P12,D06,0,0,0
2470,-0.74,1645110352.765625,P12,D06,0,0,0
2471,-0.72,1645110352.78125,P12,D06,0,0,0
2472,-0.52,1645110352.796875,P12,D06,0,0,0
2473,-0.2,1645110352.8125,P12,D06,0,0,0
2474,0.16,1645110352.828125,P12,D06,0,0,0
2475,0.43,1645110352.84375,P12,D06,0,0,0
2476,0.52,1645110352.859375,P12,D06,0,0,0
2477,0.42,1645110352.875,P12,D06,0,0,0
2478,0.18,1645110352.890625,P12,D06,0,0,0
2479,-0.1,1645110352.90625,P12,D06,0,0,0
2480,-0.36,1645110352.921875,P12,D06,0,0,0
2481,-0.52,1645110352.9375,P12,D06,0,0,0
2482,-0.58,1645110352.953125,P12,D06,0,0,0
2483,-0.58,1645110352.96875,P12,D06,0,0,0
2484,-0.55,1645110352.984375,P12,D06,0,0,0
2485,-0.51,1645110353.0,P12,D06,0,0,0
2486,-0.47,1645110353.015625,P12,D06,0,0,0
2487,-0.43,1645110353.03125,P12,D06,0,0,0
2488,-0.4,1645110353.046875,P12,D06,0,0,0
2489,-0.38,1645110353.0625,P12,D06,0,0,0
2490,-0.38,1645110353.078125,P12,D06,0,0,0
2491,-0.39,1645110353.09375,P12,D06,0,0,0
2492,-0.38,1645110353.109375,P12,D06,0,0,0
2493,-0.29,1645110353.125,P12,D06,0,0,0
2494,-0.11,1645110353.140625,P12,D06,0,0,0
2495,0.15,1645110353.15625,P12,D06,0,0,0
2496,0.44,1645110353.171875,P12,D06,0,0,0
2497,0.69,1645110353.1875,P12,D06,0,0,0
2498,0.84,1645110353.203125,P12,D06,0,0,0
2499,0.88,1645110353.21875,P12,D06,0,0,0
2500,0.82,1645110353.234375,P12,D06,0,0,0
2501,0.68,1645110353.25,P12,D06,0,0,0
2502,0.5,1645110353.265625,P12,D06,0,0,0
2503,0.31,1645110353.28125,P12,D06,0,0,0
2504,0.14,1645110353.296875,P12,D06,0,0,0
2505,0.02,1645110353.3125,P12,D06,0,0,0
2506,-0.02,1645110353.328125,P12,D06,0,0,0
2507,0.01,1645110353.34375,P12,D06,0,0,0
2508,0.09,1645110353.359375,P12,D06,0,0,0
2509,0.17,1645110353.375,P12,D06,0,0,0
2510,0.21,1645110353.390625,P12,D06,0,0,0
2511,0.24,1645110353.40625,P12,D06,0,0,0
2512,0.27,1645110353.421875,P12,D06,0,0,0
2513,0.32,1645110353.4375,P12,D06,0,0,0
2514,0.36,1645110353.453125,P12,D06,0,0,0
2515,0.33,1645110353.46875,P12,D06,0,0,0
2516,0.18,1645110353.484375,P12,D06,0,0,0
2517,-0.1,1645110353.5,P12,D06,0,0,0
2518,-0.4,1645110353.515625,P12,D06,0,0,0
2519,-0.61,1645110353.53125,P12,D06,0,0,0
2520,-0.59,1645110353.546875,P12,D06,0,0,0
2521,-0.35,1645110353.5625,P12,D06,0,0,0
2522,0.0,1645110353.578125,P12,D06,0,0,0
2523,0.3,1645110353.59375,P12,D06,0,0,0
2524,0.41,1645110353.609375,P12,D06,0,0,0
2525,0.29,1645110353.625,P12,D06,0,0,0
2526,0.03,1645110353.640625,P12,D06,0,0,0
2527,-0.24,1645110353.65625,P12,D06,0,0,0
2528,-0.4,1645110353.671875,P12,D06,0,0,0
2529,-0.45,1645110353.6875,P12,D06,0,0,0
2530,-0.45,1645110353.703125,P12,D06,0,0,0
2531,-0.48,1645110353.71875,P12,D06,0,0,0
2532,-0.55,1645110353.734375,P12,D06,0,0,0
2533,-0.58,1645110353.75,P12,D06,0,0,0
2534,-0.48,1645110353.765625,P12,D06,0,0,0
2535,-0.23,1645110353.78125,P12,D06,0,0,0
2536,0.11,1645110353.796875,P12,D06,0,0,0
2537,0.37,1645110353.8125,P12,D06,0,0,0
2538,0.4,1645110353.828125,P12,D06,0,0,0
2539,0.16,1645110353.84375,P12,D06,0,0,0
2540,-0.24,1645110353.859375,P12,D06,0,0,0
2541,-0.59,1645110353.875,P12,D06,0,0,0
2542,-0.71,1645110353.890625,P12,D06,0,0,0
2543,-0.54,1645110353.90625,P12,D06,0,0,0
2544,-0.17,1645110353.921875,P12,D06,0,0,0
2545,0.22,1645110353.9375,P12,D06,0,0,0
2546,0.5,1645110353.953125,P12,D06,0,0,0
2547,0.64,1645110353.96875,P12,D06,0,0,0
2548,0.7,1645110353.984375,P12,D06,0,0,0
2549,0.77,1645110354.0,P12,D06,0,0,0
2550,0.86,1645110354.015625,P12,D06,0,0,0
2551,0.92,1645110354.03125,P12,D06,0,0,0
2552,0.85,1645110354.046875,P12,D06,0,0,0
2553,0.63,1645110354.0625,P12,D06,0,0,0
2554,0.3,1645110354.078125,P12,D06,0,0,0
2555,-0.01,1645110354.09375,P12,D06,0,0,0
2556,-0.19,1645110354.109375,P12,D06,0,0,0
2557,-0.2,1645110354.125,P12,D06,0,0,0
2558,-0.11,1645110354.140625,P12,D06,0,0,0
2559,-0.05,1645110354.15625,P12,D06,0,0,0
2560,-0.1,1645110354.171875,P12,D06,0,0,0
2561,-0.25,1645110354.1875,P12,D06,0,0,0
2562,-0.42,1645110354.203125,P12,D06,0,0,0
2563,-0.48,1645110354.21875,P12,D06,0,0,0
2564,-0.35,1645110354.234375,P12,D06,0,0,0
2565,-0.08,1645110354.25,P12,D06,0,0,0
2566,0.2,1645110354.265625,P12,D06,0,0,0
2567,0.35,1645110354.28125,P12,D06,0,0,0
2568,0.3,1645110354.296875,P12,D06,0,0,0
2569,0.11,1645110354.3125,P12,D06,0,0,0
2570,-0.09,1645110354.328125,P12,D06,0,0,0
2571,-0.14,1645110354.34375,P12,D06,0,0,0
2572,-0.0,1645110354.359375,P12,D06,0,0,0
2573,0.25,1645110354.375,P12,D06,0,0,0
2574,0.51,1645110354.390625,P12,D06,0,0,0
2575,0.65,1645110354.40625,P12,D06,0,0,0
2576,0.66,1645110354.421875,P12,D06,0,0,0
2577,0.59,1645110354.4375,P12,D06,0,0,0
2578,0.52,1645110354.453125,P12,D06,0,0,0
2579,0.49,1645110354.46875,P12,D06,0,0,0
2580,0.46,1645110354.484375,P12,D06,0,0,0
2581,0.39,1645110354.5,P12,D06,0,0,0
2582,0.24,1645110354.515625,P12,D06,0,0,0
2583,0.04,1645110354.53125,P12,D06,0,0,0
2584,-0.16,1645110354.546875,P12,D06,0,0,0
2585,-0.31,1645110354.5625,P12,D06,0,0,0
2586,-0.4,1645110354.578125,P12,D06,0,0,0
2587,-0.44,1645110354.59375,P12,D06,0,0,0
2588,-0.49,1645110354.609375,P12,D06,0,0,0
2589,-0.53,1645110354.625,P12,D06,0,0,0
2590,-0.56,1645110354.640625,P12,D06,0,0,0
2591,-0.54,1645110354.65625,P12,D06,0,0,0
2592,-0.48,1645110354.671875,P12,D06,0,0,0
2593,-0.42,1645110354.6875,P12,D06,0,0,0
2594,-0.39,1645110354.703125,P12,D06,0,0,0
2595,-0.45,1645110354.71875,P12,D06,0,0,0
2596,-0.58,1645110354.734375,P12,D06,0,0,0
2597,-0.75,1645110354.75,P12,D06,0,0,0
2598,-0.89,1645110354.765625,P12,D06,0,0,0
2599,-0.93,1645110354.78125,P12,D06,0,0,0
2600,-0.83,1645110354.796875,P12,D06,0,0,0
2601,-0.62,1645110354.8125,P12,D06,0,0,0
2602,-0.35,1645110354.828125,P12,D06,0,0,0
2603,-0.12,1645110354.84375,P12,D06,0,0,0
2604,-0.03,1645110354.859375,P12,D06,0,0,0
2605,-0.1,1645110354.875,P12,D06,0,0,0
2606,-0.31,1645110354.890625,P12,D06,0,0,0
2607,-0.56,1645110354.90625,P12,D06,0,0,0
2608,-0.78,1645110354.921875,P12,D06,0,0,0
2609,-0.92,1645110354.9375,P12,D06,0,0,0
2610,-0.98,1645110354.953125,P12,D06,0,0,0
2611,-0.98,1645110354.96875,P12,D06,0,0,0
2612,-0.94,1645110354.984375,P12,D06,0,0,0
2613,-0.85,1645110355.0,P12,D06,0,0,0
2614,-0.69,1645110355.015625,P12,D06,0,0,0
2615,-0.46,1645110355.03125,P12,D06,0,0,0
2616,-0.16,1645110355.046875,P12,D06,0,0,0
2617,0.17,1645110355.0625,P12,D06,0,0,0
2618,0.46,1645110355.078125,P12,D06,0,0,0
2619,0.68,1645110355.09375,P12,D06,0,0,0
2620,0.76,1645110355.109375,P12,D06,0,0,0
2621,0.72,1645110355.125,P12,D06,0,0,0
2622,0.56,1645110355.140625,P12,D06,0,0,0
2623,0.37,1645110355.15625,P12,D06,0,0,0
2624,0.24,1645110355.171875,P12,D06,0,0,0
2625,0.27,1645110355.1875,P12,D06,0,0,0
2626,0.49,1645110355.203125,P12,D06,0,0,0
2627,0.85,1645110355.21875,P12,D06,0,0,0
2628,1.22,1645110355.234375,P12,D06,0,0,0
2629,1.42,1645110355.25,P12,D06,0,0,0
2630,1.38,1645110355.265625,P12,D06,0,0,0
2631,1.12,1645110355.28125,P12,D06,0,0,0
2632,0.79,1645110355.296875,P12,D06,0,0,0
2633,0.57,1645110355.3125,P12,D06,0,0,0
2634,0.58,1645110355.328125,P12,D06,0,0,0
2635,0.78,1645110355.34375,P12,D06,0,0,0
2636,0.99,1645110355.359375,P12,D06,0,0,0
2637,1.02,1645110355.375,P12,D06,0,0,0
2638,0.74,1645110355.390625,P12,D06,0,0,0
2639,0.2,1645110355.40625,P12,D06,0,0,0
2640,-0.39,1645110355.421875,P12,D06,0,0,0
2641,-0.81,1645110355.4375,P12,D06,0,0,0
2642,-0.9,1645110355.453125,P12,D06,0,0,0
2643,-0.67,1645110355.46875,P12,D06,0,0,0
2644,-0.26,1645110355.484375,P12,D06,0,0,0
2645,0.15,1645110355.5,P12,D06,0,0,0
2646,0.42,1645110355.515625,P12,D06,0,0,0
2647,0.51,1645110355.53125,P12,D06,0,0,0
2648,0.46,1645110355.546875,P12,D06,0,0,0
2649,0.32,1645110355.5625,P12,D06,0,0,0
2650,0.15,1645110355.578125,P12,D06,0,0,0
2651,-0.03,1645110355.59375,P12,D06,0,0,0
2652,-0.23,1645110355.609375,P12,D06,0,0,0
2653,-0.41,1645110355.625,P12,D06,0,0,0
2654,-0.54,1645110355.640625,P12,D06,0,0,0
2655,-0.59,1645110355.65625,P12,D06,0,0,0
2656,-0.52,1645110355.671875,P12,D06,0,0,0
2657,-0.35,1645110355.6875,P12,D06,0,0,0
2658,-0.15,1645110355.703125,P12,D06,0,0,0
2659,0.03,1645110355.71875,P12,D06,0,0,0
2660,0.11,1645110355.734375,P12,D06,0,0,0
2661,0.04,1645110355.75,P12,D06,0,0,0
2662,-0.13,1645110355.765625,P12,D06,0,0,0
2663,-0.33,1645110355.78125,P12,D06,0,0,0
2664,-0.47,1645110355.796875,P12,D06,0,0,0
2665,-0.5,1645110355.8125,P12,D06,0,0,0
2666,-0.4,1645110355.828125,P12,D06,0,0,0
2667,-0.24,1645110355.84375,P12,D06,0,0,0
2668,-0.1,1645110355.859375,P12,D06,0,0,0
2669,-0.03,1645110355.875,P12,D06,0,0,0
2670,-0.03,1645110355.890625,P12,D06,0,0,0
2671,-0.06,1645110355.90625,P12,D06,0,0,0
2672,-0.07,1645110355.921875,P12,D06,0,0,0
2673,-0.07,1645110355.9375,P12,D06,0,0,0
2674,-0.1,1645110355.953125,P12,D06,0,0,0
2675,-0.23,1645110355.96875,P12,D06,0,0,0
2676,-0.46,1645110355.984375,P12,D06,0,0,0
2677,-0.74,1645110356.0,P12,D06,0,0,0
2678,-0.93,1645110356.015625,P12,D06,0,0,0
2679,-0.9,1645110356.03125,P12,D06,0,0,0
2680,-0.62,1645110356.046875,P12,D06,0,0,0
2681,-0.16,1645110356.0625,P12,D06,0,0,0
2682,0.3,1645110356.078125,P12,D06,0,0,0
2683,0.59,1645110356.09375,P12,D06,0,0,0
2684,0.62,1645110356.109375,P12,D06,0,0,0
2685,0.42,1645110356.125,P12,D06,0,0,0
2686,0.13,1645110356.140625,P12,D06,0,0,0
2687,-0.11,1645110356.15625,P12,D06,0,0,0
2688,-0.19,1645110356.171875,P12,D06,0,0,0
2689,-0.1,1645110356.1875,P12,D06,0,0,0
2690,0.11,1645110356.203125,P12,D06,0,0,0
2691,0.38,1645110356.21875,P12,D06,0,0,0
2692,0.66,1645110356.234375,P12,D06,0,0,0
2693,0.92,1645110356.25,P12,D06,0,0,0
2694,1.13,1645110356.265625,P12,D06,0,0,0
2695,1.26,1645110356.28125,P12,D06,0,0,0
2696,1.26,1645110356.296875,P12,D06,0,0,0
2697,1.12,1645110356.3125,P12,D06,0,0,0
2698,0.88,1645110356.328125,P12,D06,0,0,0
2699,0.59,1645110356.34375,P12,D06,0,0,0
2700,0.31,1645110356.359375,P12,D06,0,0,0
2701,0.06,1645110356.375,P12,D06,0,0,0
2702,-0.17,1645110356.390625,P12,D06,0,0,0
2703,-0.36,1645110356.40625,P12,D06,0,0,0
2704,-0.51,1645110356.421875,P12,D06,0,0,0
2705,-0.57,1645110356.4375,P12,D06,0,0,0
2706,-0.48,1645110356.453125,P12,D06,0,0,0
2707,-0.25,1645110356.46875,P12,D06,0,0,0
2708,0.04,1645110356.484375,P12,D06,0,0,0
2709,0.28,1645110356.5,P12,D06,0,0,0
2710,0.33,1645110356.515625,P12,D06,0,0,0
2711,0.16,1645110356.53125,P12,D06,0,0,0
2712,-0.19,1645110356.546875,P12,D06,0,0,0
2713,-0.56,1645110356.5625,P12,D06,0,0,0
2714,-0.79,1645110356.578125,P12,D06,0,0,0
2715,-0.79,1645110356.59375,P12,D06,0,0,0
2716,-0.59,1645110356.609375,P12,D06,0,0,0
2717,-0.3,1645110356.625,P12,D06,0,0,0
2718,-0.05,1645110356.640625,P12,D06,0,0,0
2719,0.06,1645110356.65625,P12,D06,0,0,0
2720,0.01,1645110356.671875,P12,D06,0,0,0
2721,-0.13,1645110356.6875,P12,D06,0,0,0
2722,-0.3,1645110356.703125,P12,D06,0,0,0
2723,-0.41,1645110356.71875,P12,D06,0,0,0
2724,-0.42,1645110356.734375,P12,D06,0,0,0
2725,-0.34,1645110356.75,P12,D06,0,0,0
2726,-0.18,1645110356.765625,P12,D06,0,0,0
2727,0.03,1645110356.78125,P12,D06,0,0,0
2728,0.23,1645110356.796875,P12,D06,0,0,0
2729,0.39,1645110356.8125,P12,D06,0,0,0
2730,0.49,1645110356.828125,P12,D06,0,0,0
2731,0.49,1645110356.84375,P12,D06,0,0,0
2732,0.39,1645110356.859375,P12,D06,0,0,0
2733,0.16,1645110356.875,P12,D06,0,0,0
2734,-0.14,1645110356.890625,P12,D06,0,0,0
2735,-0.45,1645110356.90625,P12,D06,0,0,0
2736,-0.67,1645110356.921875,P12,D06,0,0,0
2737,-0.68,1645110356.9375,P12,D06,0,0,0
2738,-0.45,1645110356.953125,P12,D06,0,0,0
2739,-0.03,1645110356.96875,P12,D06,0,0,0
2740,0.43,1645110356.984375,P12,D06,0,0,0
2741,0.74,1645110357.0,P12,D06,0,0,0
2742,0.79,1645110357.015625,P12,D06,0,0,0
2743,0.56,1645110357.03125,P12,D06,0,0,0
2744,0.18,1645110357.046875,P12,D06,0,0,0
2745,-0.17,1645110357.0625,P12,D06,0,0,0
2746,-0.36,1645110357.078125,P12,D06,0,0,0
2747,-0.38,1645110357.09375,P12,D06,0,0,0
2748,-0.27,1645110357.109375,P12,D06,0,0,0
2749,-0.13,1645110357.125,P12,D06,0,0,0
2750,-0.05,1645110357.140625,P12,D06,0,0,0
2751,-0.06,1645110357.15625,P12,D06,0,0,0
2752,-0.14,1645110357.171875,P12,D06,0,0,0
2753,-0.27,1645110357.1875,P12,D06,0,0,0
2754,-0.4,1645110357.203125,P12,D06,0,0,0
2755,-0.49,1645110357.21875,P12,D06,0,0,0
2756,-0.48,1645110357.234375,P12,D06,0,0,0
2757,-0.32,1645110357.25,P12,D06,0,0,0
2758,-0.03,1645110357.265625,P12,D06,0,0,0
2759,0.33,1645110357.28125,P12,D06,0,0,0
2760,0.66,1645110357.296875,P12,D06,0,0,0
2761,0.83,1645110357.3125,P12,D06,0,0,0
2762,0.81,1645110357.328125,P12,D06,0,0,0
2763,0.61,1645110357.34375,P12,D06,0,0,0
2764,0.35,1645110357.359375,P12,D06,0,0,0
2765,0.11,1645110357.375,P12,D06,0,0,0
2766,-0.02,1645110357.390625,P12,D06,0,0,0
2767,-0.04,1645110357.40625,P12,D06,0,0,0
2768,0.01,1645110357.421875,P12,D06,0,0,0
2769,0.08,1645110357.4375,P12,D06,0,0,0
2770,0.12,1645110357.453125,P12,D06,0,0,0
2771,0.1,1645110357.46875,P12,D06,0,0,0
2772,0.02,1645110357.484375,P12,D06,0,0,0
2773,-0.12,1645110357.5,P12,D06,0,0,0
2774,-0.28,1645110357.515625,P12,D06,0,0,0
2775,-0.42,1645110357.53125,P12,D06,0,0,0
2776,-0.48,1645110357.546875,P12,D06,0,0,0
2777,-0.45,1645110357.5625,P12,D06,0,0,0
2778,-0.33,1645110357.578125,P12,D06,0,0,0
2779,-0.16,1645110357.59375,P12,D06,0,0,0
2780,0.03,1645110357.609375,P12,D06,0,0,0
2781,0.22,1645110357.625,P12,D06,0,0,0
2782,0.38,1645110357.640625,P12,D06,0,0,0
2783,0.53,1645110357.65625,P12,D06,0,0,0
2784,0.65,1645110357.671875,P12,D06,0,0,0
2785,0.7,1645110357.6875,P12,D06,0,0,0
2786,0.65,1645110357.703125,P12,D06,0,0,0
2787,0.51,1645110357.71875,P12,D06,0,0,0
2788,0.31,1645110357.734375,P12,D06,0,0,0
2789,0.11,1645110357.75,P12,D06,0,0,0
2790,-0.03,1645110357.765625,P12,D06,0,0,0
2791,-0.09,1645110357.78125,P12,D06,0,0,0
2792,-0.14,1645110357.796875,P12,D06,0,0,0
2793,-0.23,1645110357.8125,P12,D06,0,0,0
2794,-0.4,1645110357.828125,P12,D06,0,0,0
2795,-0.62,1645110357.84375,P12,D06,0,0,0
2796,-0.79,1645110357.859375,P12,D06,0,0,0
2797,-0.82,1645110357.875,P12,D06,0,0,0
2798,-0.63,1645110357.890625,P12,D06,0,0,0
2799,-0.24,1645110357.90625,P12,D06,0,0,0
2800,0.22,1645110357.921875,P12,D06,0,0,0
2801,0.6,1645110357.9375,P12,D06,0,0,0
2802,0.78,1645110357.953125,P12,D06,0,0,0
2803,0.73,1645110357.96875,P12,D06,0,0,0
2804,0.51,1645110357.984375,P12,D06,0,0,0
2805,0.26,1645110358.0,P12,D06,0,0,0
2806,0.1,1645110358.015625,P12,D06,0,0,0
2807,0.08,1645110358.03125,P12,D06,0,0,0
2808,0.18,1645110358.046875,P12,D06,0,0,0
2809,0.33,1645110358.0625,P12,D06,0,0,0
2810,0.47,1645110358.078125,P12,D06,0,0,0
2811,0.53,1645110358.09375,P12,D06,0,0,0
2812,0.46,1645110358.109375,P12,D06,0,0,0
2813,0.27,1645110358.125,P12,D06,0,0,0
2814,-0.03,1645110358.140625,P12,D06,0,0,0
2815,-0.39,1645110358.15625,P12,D06,0,0,0
2816,-0.71,1645110358.171875,P12,D06,0,0,0
2817,-0.88,1645110358.1875,P12,D06,0,0,0
2818,-0.84,1645110358.203125,P12,D06,0,0,0
2819,-0.59,1645110358.21875,P12,D06,0,0,0
2820,-0.25,1645110358.234375,P12,D06,0,0,0
2821,0.07,1645110358.25,P12,D06,0,0,0
2822,0.27,1645110358.265625,P12,D06,0,0,0
2823,0.34,1645110358.28125,P12,D06,0,0,0
2824,0.37,1645110358.296875,P12,D06,0,0,0
2825,0.42,1645110358.3125,P12,D06,0,0,0
2826,0.52,1645110358.328125,P12,D06,0,0,0
2827,0.62,1645110358.34375,P12,D06,0,0,0
2828,0.6,1645110358.359375,P12,D06,0,0,0
2829,0.42,1645110358.375,P12,D06,0,0,0
2830,0.1,1645110358.390625,P12,D06,0,0,0
2831,-0.28,1645110358.40625,P12,D06,0,0,0
2832,-0.6,1645110358.421875,P12,D06,0,0,0
2833,-0.77,1645110358.4375,P12,D06,0,0,0
2834,-0.77,1645110358.453125,P12,D06,0,0,0
2835,-0.64,1645110358.46875,P12,D06,0,0,0
2836,-0.46,1645110358.484375,P12,D06,0,0,0
2837,-0.31,1645110358.5,P12,D06,0,0,0
2838,-0.26,1645110358.515625,P12,D06,0,0,0
2839,-0.34,1645110358.53125,P12,D06,0,0,0
2840,-0.51,1645110358.546875,P12,D06,0,0,0
2841,-0.7,1645110358.5625,P12,D06,0,0,0
2842,-0.8,1645110358.578125,P12,D06,0,0,0
2843,-0.73,1645110358.59375,P12,D06,0,0,0
2844,-0.5,1645110358.609375,P12,D06,0,0,0
2845,-0.19,1645110358.625,P12,D06,0,0,0
2846,0.09,1645110358.640625,P12,D06,0,0,0
2847,0.26,1645110358.65625,P12,D06,0,0,0
2848,0.33,1645110358.671875,P12,D06,0,0,0
2849,0.36,1645110358.6875,P12,D06,0,0,0
2850,0.42,1645110358.703125,P12,D06,0,0,0
2851,0.56,1645110358.71875,P12,D06,0,0,0
2852,0.68,1645110358.734375,P12,D06,0,0,0
2853,0.7,1645110358.75,P12,D06,0,0,0
2854,0.51,1645110358.765625,P12,D06,0,0,0
2855,0.15,1645110358.78125,P12,D06,0,0,0
2856,-0.29,1645110358.796875,P12,D06,0,0,0
2857,-0.63,1645110358.8125,P12,D06,0,0,0
2858,-0.75,1645110358.828125,P12,D06,0,0,0
2859,-0.62,1645110358.84375,P12,D06,0,0,0
2860,-0.33,1645110358.859375,P12,D06,0,0,0
2861,-0.02,1645110358.875,P12,D06,0,0,0
2862,0.17,1645110358.890625,P12,D06,0,0,0
2863,0.16,1645110358.90625,P12,D06,0,0,0
2864,-0.03,1645110358.921875,P12,D06,0,0,0
2865,-0.28,1645110358.9375,P12,D06,0,0,0
2866,-0.49,1645110358.953125,P12,D06,0,0,0
2867,-0.56,1645110358.96875,P12,D06,0,0,0
2868,-0.47,1645110358.984375,P12,D06,0,0,0
2869,-0.24,1645110359.0,P12,D06,0,0,0
2870,0.04,1645110359.015625,P12,D06,0,0,0
2871,0.31,1645110359.03125,P12,D06,0,0,0
2872,0.52,1645110359.046875,P12,D06,0,0,0
2873,0.63,1645110359.0625,P12,D06,0,0,0
2874,0.65,1645110359.078125,P12,D06,0,0,0
2875,0.57,1645110359.09375,P12,D06,0,0,0
2876,0.38,1645110359.109375,P12,D06,0,0,0
2877,0.11,1645110359.125,P12,D06,0,0,0
2878,-0.19,1645110359.140625,P12,D06,0,0,0
2879,-0.45,1645110359.15625,P12,D06,0,0,0
2880,-0.58,1645110359.171875,P12,D06,0,0,0
2881,-0.55,1645110359.1875,P12,D06,0,0,0
2882,-0.36,1645110359.203125,P12,D06,0,0,0
2883,-0.11,1645110359.21875,P12,D06,0,0,0
2884,0.12,1645110359.234375,P12,D06,0,0,0
2885,0.24,1645110359.25,P12,D06,0,0,0
2886,0.26,1645110359.265625,P12,D06,0,0,0
2887,0.2,1645110359.28125,P12,D06,0,0,0
2888,0.14,1645110359.296875,P12,D06,0,0,0
2889,0.09,1645110359.3125,P12,D06,0,0,0
2890,0.06,1645110359.328125,P12,D06,0,0,0
2891,0.04,1645110359.34375,P12,D06,0,0,0
2892,-0.01,1645110359.359375,P12,D06,0,0,0
2893,-0.07,1645110359.375,P12,D06,0,0,0
2894,-0.13,1645110359.390625,P12,D06,0,0,0
2895,-0.19,1645110359.40625,P12,D06,0,0,0
2896,-0.24,1645110359.421875,P12,D06,0,0,0
2897,-0.28,1645110359.4375,P12,D06,0,0,0
2898,-0.31,1645110359.453125,P12,D06,0,0,0
2899,-0.28,1645110359.46875,P12,D06,0,0,0
2900,-0.16,1645110359.484375,P12,D06,0,0,0
2901,0.07,1645110359.5,P12,D06,0,0,0
2902,0.36,1645110359.515625,P12,D06,0,0,0
2903,0.65,1645110359.53125,P12,D06,0,0,0
2904,0.87,1645110359.546875,P12,D06,0,0,0
2905,0.93,1645110359.5625,P12,D06,0,0,0
2906,0.84,1645110359.578125,P12,D06,0,0,0
2907,0.64,1645110359.59375,P12,D06,0,0,0
2908,0.41,1645110359.609375,P12,D06,0,0,0
2909,0.24,1645110359.625,P12,D06,0,0,0
2910,0.2,1645110359.640625,P12,D06,0,0,0
2911,0.31,1645110359.65625,P12,D06,0,0,0
2912,0.5,1645110359.671875,P12,D06,0,0,0
