,data,timestamp,participant,document,val,arou,eng
0,2.66,1644598380.484375,P05,D10,1,1,1
1,2.92,1644598380.5,P05,D10,1,1,1
2,3.17,1644598380.515625,P05,D10,1,1,1
3,3.29,1644598380.53125,P05,D10,1,1,1
4,3.22,1644598380.546875,P05,D10,1,1,1
5,2.94,1644598380.5625,P05,D10,1,1,1
6,2.53,1644598380.578125,P05,D10,1,1,1
7,2.06,1644598380.59375,P05,D10,1,1,1
8,1.64,1644598380.609375,P05,D10,1,1,1
9,1.3,1644598380.625,P05,D10,1,1,1
10,1.0,1644598380.640625,P05,D10,1,1,1
11,0.67,1644598380.65625,P05,D10,1,1,1
12,0.23,1644598380.671875,P05,D10,1,1,1
13,-0.31,1644598380.6875,P05,D10,1,1,1
14,-0.89,1644598380.703125,P05,D10,1,1,1
15,-1.39,1644598380.71875,P05,D10,1,1,1
16,-1.69,1644598380.734375,P05,D10,1,1,1
17,-1.74,1644598380.75,P05,D10,1,1,1
18,-1.61,1644598380.765625,P05,D10,1,1,1
19,-1.38,1644598380.78125,P05,D10,1,1,1
20,-1.15,1644598380.796875,P05,D10,1,1,1
21,-0.98,1644598380.8125,P05,D10,1,1,1
22,-0.89,1644598380.828125,P05,D10,1,1,1
23,-0.91,1644598380.84375,P05,D10,1,1,1
24,-1.07,1644598380.859375,P05,D10,1,1,1
25,-1.43,1644598380.875,P05,D10,1,1,1
26,-1.96,1644598380.890625,P05,D10,1,1,1
27,-2.59,1644598380.90625,P05,D10,1,1,1
28,-3.21,1644598380.921875,P05,D10,1,1,1
29,-3.71,1644598380.9375,P05,D10,1,1,1
30,-4.04,1644598380.953125,P05,D10,1,1,1
31,-4.24,1644598380.96875,P05,D10,1,1,1
32,-4.38,1644598380.984375,P05,D10,1,1,1
33,-4.54,1644598381.0,P05,D10,1,1,1
34,-4.7,1644598381.015625,P05,D10,1,1,1
35,-4.8,1644598381.03125,P05,D10,1,1,1
36,-4.74,1644598381.046875,P05,D10,1,1,1
37,-4.46,1644598381.0625,P05,D10,1,1,1
38,-3.95,1644598381.078125,P05,D10,1,1,1
39,-3.28,1644598381.09375,P05,D10,1,1,1
40,-2.54,1644598381.109375,P05,D10,1,1,1
41,-1.85,1644598381.125,P05,D10,1,1,1
42,-1.32,1644598381.140625,P05,D10,1,1,1
43,-1.04,1644598381.15625,P05,D10,1,1,1
44,-1.04,1644598381.171875,P05,D10,1,1,1
45,-1.3,1644598381.1875,P05,D10,1,1,1
46,-1.7,1644598381.203125,P05,D10,1,1,1
47,-2.15,1644598381.21875,P05,D10,1,1,1
48,-2.51,1644598381.234375,P05,D10,1,1,1
49,-2.74,1644598381.25,P05,D10,1,1,1
50,-2.81,1644598381.265625,P05,D10,1,1,1
51,-2.74,1644598381.28125,P05,D10,1,1,1
52,-2.57,1644598381.296875,P05,D10,1,1,1
53,-2.34,1644598381.3125,P05,D10,1,1,1
54,-2.13,1644598381.328125,P05,D10,1,1,1
55,-2.0,1644598381.34375,P05,D10,1,1,1
56,-2.01,1644598381.359375,P05,D10,1,1,1
57,-2.21,1644598381.375,P05,D10,1,1,1
58,-2.54,1644598381.390625,P05,D10,1,1,1
59,-2.91,1644598381.40625,P05,D10,1,1,1
60,-3.17,1644598381.421875,P05,D10,1,1,1
61,-3.15,1644598381.4375,P05,D10,1,1,1
62,-2.78,1644598381.453125,P05,D10,1,1,1
63,-2.07,1644598381.46875,P05,D10,1,1,1
64,-1.19,1644598381.484375,P05,D10,1,1,1
65,-0.4,1644598381.5,P05,D10,1,1,1
66,0.04,1644598381.515625,P05,D10,1,1,1
67,-0.07,1644598381.53125,P05,D10,1,1,1
68,-0.81,1644598381.546875,P05,D10,1,1,1
69,-2.09,1644598381.5625,P05,D10,1,1,1
70,-3.66,1644598381.578125,P05,D10,1,1,1
71,-5.22,1644598381.59375,P05,D10,1,1,1
72,-6.44,1644598381.609375,P05,D10,1,1,1
73,-7.08,1644598381.625,P05,D10,1,1,1
74,-7.01,1644598381.640625,P05,D10,1,1,1
75,-6.24,1644598381.65625,P05,D10,1,1,1
76,-4.87,1644598381.671875,P05,D10,1,1,1
77,-3.1,1644598381.6875,P05,D10,1,1,1
78,-1.15,1644598381.703125,P05,D10,1,1,1
79,0.77,1644598381.71875,P05,D10,1,1,1
80,2.55,1644598381.734375,P05,D10,1,1,1
81,4.07,1644598381.75,P05,D10,1,1,1
82,5.29,1644598381.765625,P05,D10,1,1,1
83,6.18,1644598381.78125,P05,D10,1,1,1
84,6.76,1644598381.796875,P05,D10,1,1,1
85,7.04,1644598381.8125,P05,D10,1,1,1
86,7.1,1644598381.828125,P05,D10,1,1,1
87,7.03,1644598381.84375,P05,D10,1,1,1
88,6.93,1644598381.859375,P05,D10,1,1,1
89,6.91,1644598381.875,P05,D10,1,1,1
90,7.01,1644598381.890625,P05,D10,1,1,1
91,7.27,1644598381.90625,P05,D10,1,1,1
92,7.63,1644598381.921875,P05,D10,1,1,1
93,8.01,1644598381.9375,P05,D10,1,1,1
94,8.28,1644598381.953125,P05,D10,1,1,1
95,8.34,1644598381.96875,P05,D10,1,1,1
96,8.09,1644598381.984375,P05,D10,1,1,1
97,7.53,1644598382.0,P05,D10,1,1,1
98,6.75,1644598382.015625,P05,D10,1,1,1
99,5.88,1644598382.03125,P05,D10,1,1,1
100,5.06,1644598382.046875,P05,D10,1,1,1
101,4.35,1644598382.0625,P05,D10,1,1,1
102,3.73,1644598382.078125,P05,D10,1,1,1
103,3.15,1644598382.09375,P05,D10,1,1,1
104,2.53,1644598382.109375,P05,D10,1,1,1
105,1.85,1644598382.125,P05,D10,1,1,1
106,1.08,1644598382.140625,P05,D10,1,1,1
107,0.25,1644598382.15625,P05,D10,1,1,1
108,-0.64,1644598382.171875,P05,D10,1,1,1
109,-1.6,1644598382.1875,P05,D10,1,1,1
110,-2.57,1644598382.203125,P05,D10,1,1,1
111,-3.45,1644598382.21875,P05,D10,1,1,1
112,-4.12,1644598382.234375,P05,D10,1,1,1
113,-4.47,1644598382.25,P05,D10,1,1,1
114,-4.44,1644598382.265625,P05,D10,1,1,1
115,-4.12,1644598382.28125,P05,D10,1,1,1
116,-3.63,1644598382.296875,P05,D10,1,1,1
117,-3.14,1644598382.3125,P05,D10,1,1,1
118,-2.79,1644598382.328125,P05,D10,1,1,1
119,-2.66,1644598382.34375,P05,D10,1,1,1
120,-2.78,1644598382.359375,P05,D10,1,1,1
121,-3.11,1644598382.375,P05,D10,1,1,1
122,-3.56,1644598382.390625,P05,D10,1,1,1
123,-3.9,1644598382.40625,P05,D10,1,1,1
124,-3.91,1644598382.421875,P05,D10,1,1,1
125,-3.37,1644598382.4375,P05,D10,1,1,1
126,-2.25,1644598382.453125,P05,D10,1,1,1
127,-0.78,1644598382.46875,P05,D10,1,1,1
128,0.64,1644598382.484375,P05,D10,1,1,1
129,1.55,1644598382.5,P05,D10,1,1,1
130,1.67,1644598382.515625,P05,D10,1,1,1
131,1.03,1644598382.53125,P05,D10,1,1,1
132,-0.02,1644598382.546875,P05,D10,1,1,1
133,-1.02,1644598382.5625,P05,D10,1,1,1
134,-1.6,1644598382.578125,P05,D10,1,1,1
135,-1.66,1644598382.59375,P05,D10,1,1,1
136,-1.34,1644598382.609375,P05,D10,1,1,1
137,-0.95,1644598382.625,P05,D10,1,1,1
138,-0.67,1644598382.640625,P05,D10,1,1,1
139,-0.56,1644598382.65625,P05,D10,1,1,1
140,-0.48,1644598382.671875,P05,D10,1,1,1
141,-0.3,1644598382.6875,P05,D10,1,1,1
142,0.02,1644598382.703125,P05,D10,1,1,1
143,0.38,1644598382.71875,P05,D10,1,1,1
144,0.62,1644598382.734375,P05,D10,1,1,1
145,0.63,1644598382.75,P05,D10,1,1,1
146,0.45,1644598382.765625,P05,D10,1,1,1
147,0.23,1644598382.78125,P05,D10,1,1,1
148,0.18,1644598382.796875,P05,D10,1,1,1
149,0.4,1644598382.8125,P05,D10,1,1,1
150,0.85,1644598382.828125,P05,D10,1,1,1
151,1.37,1644598382.84375,P05,D10,1,1,1
152,1.74,1644598382.859375,P05,D10,1,1,1
153,1.82,1644598382.875,P05,D10,1,1,1
154,1.58,1644598382.890625,P05,D10,1,1,1
155,1.15,1644598382.90625,P05,D10,1,1,1
156,0.69,1644598382.921875,P05,D10,1,1,1
157,0.36,1644598382.9375,P05,D10,1,1,1
158,0.24,1644598382.953125,P05,D10,1,1,1
159,0.34,1644598382.96875,P05,D10,1,1,1
160,0.56,1644598382.984375,P05,D10,1,1,1
161,0.76,1644598383.0,P05,D10,1,1,1
162,0.84,1644598383.015625,P05,D10,1,1,1
163,0.73,1644598383.03125,P05,D10,1,1,1
164,0.45,1644598383.046875,P05,D10,1,1,1
165,0.09,1644598383.0625,P05,D10,1,1,1
166,-0.25,1644598383.078125,P05,D10,1,1,1
167,-0.47,1644598383.09375,P05,D10,1,1,1
168,-0.5,1644598383.109375,P05,D10,1,1,1
169,-0.37,1644598383.125,P05,D10,1,1,1
170,-0.14,1644598383.140625,P05,D10,1,1,1
171,0.08,1644598383.15625,P05,D10,1,1,1
172,0.21,1644598383.171875,P05,D10,1,1,1
173,0.22,1644598383.1875,P05,D10,1,1,1
174,0.12,1644598383.203125,P05,D10,1,1,1
175,-0.02,1644598383.21875,P05,D10,1,1,1
176,-0.14,1644598383.234375,P05,D10,1,1,1
177,-0.19,1644598383.25,P05,D10,1,1,1
178,-0.13,1644598383.265625,P05,D10,1,1,1
179,0.04,1644598383.28125,P05,D10,1,1,1
180,0.29,1644598383.296875,P05,D10,1,1,1
181,0.58,1644598383.3125,P05,D10,1,1,1
182,0.87,1644598383.328125,P05,D10,1,1,1
183,1.12,1644598383.34375,P05,D10,1,1,1
184,1.32,1644598383.359375,P05,D10,1,1,1
185,1.45,1644598383.375,P05,D10,1,1,1
186,1.53,1644598383.390625,P05,D10,1,1,1
187,1.53,1644598383.40625,P05,D10,1,1,1
188,1.43,1644598383.421875,P05,D10,1,1,1
189,1.17,1644598383.4375,P05,D10,1,1,1
190,0.76,1644598383.453125,P05,D10,1,1,1
191,0.21,1644598383.46875,P05,D10,1,1,1
192,-0.37,1644598383.484375,P05,D10,1,1,1
193,-0.85,1644598383.5,P05,D10,1,1,1
194,-1.11,1644598383.515625,P05,D10,1,1,1
195,-1.1,1644598383.53125,P05,D10,1,1,1
196,-0.86,1644598383.546875,P05,D10,1,1,1
197,-0.53,1644598383.5625,P05,D10,1,1,1
198,-0.25,1644598383.578125,P05,D10,1,1,1
199,-0.13,1644598383.59375,P05,D10,1,1,1
200,-0.18,1644598383.609375,P05,D10,1,1,1
201,-0.37,1644598383.625,P05,D10,1,1,1
202,-0.58,1644598383.640625,P05,D10,1,1,1
203,-0.73,1644598383.65625,P05,D10,1,1,1
204,-0.77,1644598383.671875,P05,D10,1,1,1
205,-0.7,1644598383.6875,P05,D10,1,1,1
206,-0.54,1644598383.703125,P05,D10,1,1,1
207,-0.33,1644598383.71875,P05,D10,1,1,1
208,-0.1,1644598383.734375,P05,D10,1,1,1
209,0.11,1644598383.75,P05,D10,1,1,1
210,0.27,1644598383.765625,P05,D10,1,1,1
211,0.35,1644598383.78125,P05,D10,1,1,1
212,0.35,1644598383.796875,P05,D10,1,1,1
213,0.33,1644598383.8125,P05,D10,1,1,1
214,0.34,1644598383.828125,P05,D10,1,1,1
215,0.44,1644598383.84375,P05,D10,1,1,1
216,0.67,1644598383.859375,P05,D10,1,1,1
217,1.03,1644598383.875,P05,D10,1,1,1
218,1.43,1644598383.890625,P05,D10,1,1,1
219,1.79,1644598383.90625,P05,D10,1,1,1
220,1.99,1644598383.921875,P05,D10,1,1,1
221,1.98,1644598383.9375,P05,D10,1,1,1
222,1.8,1644598383.953125,P05,D10,1,1,1
223,1.54,1644598383.96875,P05,D10,1,1,1
224,1.29,1644598383.984375,P05,D10,1,1,1
225,1.11,1644598384.0,P05,D10,1,1,1
226,0.96,1644598384.015625,P05,D10,1,1,1
227,0.76,1644598384.03125,P05,D10,1,1,1
228,0.44,1644598384.046875,P05,D10,1,1,1
229,-0.01,1644598384.0625,P05,D10,1,1,1
230,-0.49,1644598384.078125,P05,D10,1,1,1
231,-0.86,1644598384.09375,P05,D10,1,1,1
232,-1.05,1644598384.109375,P05,D10,1,1,1
233,-1.03,1644598384.125,P05,D10,1,1,1
234,-0.9,1644598384.140625,P05,D10,1,1,1
235,-0.76,1644598384.15625,P05,D10,1,1,1
236,-0.71,1644598384.171875,P05,D10,1,1,1
237,-0.74,1644598384.1875,P05,D10,1,1,1
238,-0.83,1644598384.203125,P05,D10,1,1,1
239,-0.92,1644598384.21875,P05,D10,1,1,1
240,-1.0,1644598384.234375,P05,D10,1,1,1
241,-1.09,1644598384.25,P05,D10,1,1,1
242,-1.23,1644598384.265625,P05,D10,1,1,1
243,-1.4,1644598384.28125,P05,D10,1,1,1
244,-1.57,1644598384.296875,P05,D10,1,1,1
245,-1.67,1644598384.3125,P05,D10,1,1,1
246,-1.67,1644598384.328125,P05,D10,1,1,1
247,-1.59,1644598384.34375,P05,D10,1,1,1
248,-1.47,1644598384.359375,P05,D10,1,1,1
249,-1.36,1644598384.375,P05,D10,1,1,1
250,-1.27,1644598384.390625,P05,D10,1,1,1
251,-1.2,1644598384.40625,P05,D10,1,1,1
252,-1.18,1644598384.421875,P05,D10,1,1,1
253,-1.2,1644598384.4375,P05,D10,1,1,1
254,-1.26,1644598384.453125,P05,D10,1,1,1
255,-1.34,1644598384.46875,P05,D10,1,1,1
256,-1.37,1644598384.484375,P05,D10,1,1,1
257,-1.28,1644598384.5,P05,D10,1,1,1
258,-1.0,1644598384.515625,P05,D10,1,1,1
259,-0.56,1644598384.53125,P05,D10,1,1,1
260,-0.04,1644598384.546875,P05,D10,1,1,1
261,0.41,1644598384.5625,P05,D10,1,1,1
262,0.71,1644598384.578125,P05,D10,1,1,1
263,0.81,1644598384.59375,P05,D10,1,1,1
264,0.76,1644598384.609375,P05,D10,1,1,1
265,0.64,1644598384.625,P05,D10,1,1,1
266,0.49,1644598384.640625,P05,D10,1,1,1
267,0.34,1644598384.65625,P05,D10,1,1,1
268,0.19,1644598384.671875,P05,D10,1,1,1
269,0.09,1644598384.6875,P05,D10,1,1,1
270,0.04,1644598384.703125,P05,D10,1,1,1
271,0.09,1644598384.71875,P05,D10,1,1,1
272,0.19,1644598384.734375,P05,D10,1,1,1
273,0.31,1644598384.75,P05,D10,1,1,1
274,0.38,1644598384.765625,P05,D10,1,1,1
275,0.37,1644598384.78125,P05,D10,1,1,1
276,0.29,1644598384.796875,P05,D10,1,1,1
277,0.19,1644598384.8125,P05,D10,1,1,1
278,0.1,1644598384.828125,P05,D10,1,1,1
279,0.06,1644598384.84375,P05,D10,1,1,1
280,0.05,1644598384.859375,P05,D10,1,1,1
281,0.04,1644598384.875,P05,D10,1,1,1
282,0.01,1644598384.890625,P05,D10,1,1,1
283,-0.03,1644598384.90625,P05,D10,1,1,1
284,-0.08,1644598384.921875,P05,D10,1,1,1
285,-0.09,1644598384.9375,P05,D10,1,1,1
286,-0.06,1644598384.953125,P05,D10,1,1,1
287,0.03,1644598384.96875,P05,D10,1,1,1
288,0.14,1644598384.984375,P05,D10,1,1,1
289,0.22,1644598385.0,P05,D10,1,1,1
290,0.24,1644598385.015625,P05,D10,1,1,1
291,0.14,1644598385.03125,P05,D10,1,1,1
292,-0.06,1644598385.046875,P05,D10,1,1,1
293,-0.3,1644598385.0625,P05,D10,1,1,1
294,-0.49,1644598385.078125,P05,D10,1,1,1
295,-0.53,1644598385.09375,P05,D10,1,1,1
296,-0.42,1644598385.109375,P05,D10,1,1,1
297,-0.21,1644598385.125,P05,D10,1,1,1
298,-0.01,1644598385.140625,P05,D10,1,1,1
299,0.1,1644598385.15625,P05,D10,1,1,1
300,0.1,1644598385.171875,P05,D10,1,1,1
301,0.04,1644598385.1875,P05,D10,1,1,1
302,0.01,1644598385.203125,P05,D10,1,1,1
303,0.07,1644598385.21875,P05,D10,1,1,1
304,0.19,1644598385.234375,P05,D10,1,1,1
305,0.29,1644598385.25,P05,D10,1,1,1
306,0.27,1644598385.265625,P05,D10,1,1,1
307,0.05,1644598385.28125,P05,D10,1,1,1
308,-0.36,1644598385.296875,P05,D10,1,1,1
309,-0.89,1644598385.3125,P05,D10,1,1,1
310,-1.43,1644598385.328125,P05,D10,1,1,1
311,-1.87,1644598385.34375,P05,D10,1,1,1
312,-2.14,1644598385.359375,P05,D10,1,1,1
313,-2.24,1644598385.375,P05,D10,1,1,1
314,-2.18,1644598385.390625,P05,D10,1,1,1
315,-2.03,1644598385.40625,P05,D10,1,1,1
316,-1.82,1644598385.421875,P05,D10,1,1,1
317,-1.61,1644598385.4375,P05,D10,1,1,1
318,-1.4,1644598385.453125,P05,D10,1,1,1
319,-1.24,1644598385.46875,P05,D10,1,1,1
320,-1.19,1644598385.484375,P05,D10,1,1,1
321,-1.3,1644598385.5,P05,D10,1,1,1
322,-1.59,1644598385.515625,P05,D10,1,1,1
323,-1.98,1644598385.53125,P05,D10,1,1,1
324,-2.32,1644598385.546875,P05,D10,1,1,1
325,-2.45,1644598385.5625,P05,D10,1,1,1
326,-2.25,1644598385.578125,P05,D10,1,1,1
327,-1.77,1644598385.59375,P05,D10,1,1,1
328,-1.17,1644598385.609375,P05,D10,1,1,1
329,-0.65,1644598385.625,P05,D10,1,1,1
330,-0.34,1644598385.640625,P05,D10,1,1,1
331,-0.26,1644598385.65625,P05,D10,1,1,1
332,-0.31,1644598385.671875,P05,D10,1,1,1
333,-0.37,1644598385.6875,P05,D10,1,1,1
334,-0.33,1644598385.703125,P05,D10,1,1,1
335,-0.19,1644598385.71875,P05,D10,1,1,1
336,0.02,1644598385.734375,P05,D10,1,1,1
337,0.24,1644598385.75,P05,D10,1,1,1
338,0.47,1644598385.765625,P05,D10,1,1,1
339,0.69,1644598385.78125,P05,D10,1,1,1
340,0.93,1644598385.796875,P05,D10,1,1,1
341,1.17,1644598385.8125,P05,D10,1,1,1
342,1.38,1644598385.828125,P05,D10,1,1,1
343,1.47,1644598385.84375,P05,D10,1,1,1
344,1.37,1644598385.859375,P05,D10,1,1,1
345,1.04,1644598385.875,P05,D10,1,1,1
346,0.53,1644598385.890625,P05,D10,1,1,1
347,-0.05,1644598385.90625,P05,D10,1,1,1
348,-0.56,1644598385.921875,P05,D10,1,1,1
349,-0.88,1644598385.9375,P05,D10,1,1,1
350,-0.93,1644598385.953125,P05,D10,1,1,1
351,-0.7,1644598385.96875,P05,D10,1,1,1
352,-0.27,1644598385.984375,P05,D10,1,1,1
353,0.29,1644598386.0,P05,D10,1,1,1
354,0.89,1644598386.015625,P05,D10,1,1,1
355,1.47,1644598386.03125,P05,D10,1,1,1
356,1.96,1644598386.046875,P05,D10,1,1,1
357,2.31,1644598386.0625,P05,D10,1,1,1
358,2.49,1644598386.078125,P05,D10,1,1,1
359,2.54,1644598386.09375,P05,D10,1,1,1
360,2.49,1644598386.109375,P05,D10,1,1,1
361,2.42,1644598386.125,P05,D10,1,1,1
362,2.37,1644598386.140625,P05,D10,1,1,1
363,2.34,1644598386.15625,P05,D10,1,1,1
364,2.33,1644598386.171875,P05,D10,1,1,1
365,2.31,1644598386.1875,P05,D10,1,1,1
366,2.28,1644598386.203125,P05,D10,1,1,1
367,2.24,1644598386.21875,P05,D10,1,1,1
368,2.18,1644598386.234375,P05,D10,1,1,1
369,2.06,1644598386.25,P05,D10,1,1,1
370,1.84,1644598386.265625,P05,D10,1,1,1
371,1.51,1644598386.28125,P05,D10,1,1,1
372,1.08,1644598386.296875,P05,D10,1,1,1
373,0.62,1644598386.3125,P05,D10,1,1,1
374,0.22,1644598386.328125,P05,D10,1,1,1
375,-0.06,1644598386.34375,P05,D10,1,1,1
376,-0.19,1644598386.359375,P05,D10,1,1,1
377,-0.16,1644598386.375,P05,D10,1,1,1
378,-0.03,1644598386.390625,P05,D10,1,1,1
379,0.18,1644598386.40625,P05,D10,1,1,1
380,0.43,1644598386.421875,P05,D10,1,1,1
381,0.69,1644598386.4375,P05,D10,1,1,1
382,0.91,1644598386.453125,P05,D10,1,1,1
383,1.08,1644598386.46875,P05,D10,1,1,1
384,1.18,1644598386.484375,P05,D10,1,1,1
385,1.21,1644598386.5,P05,D10,1,1,1
386,1.2,1644598386.515625,P05,D10,1,1,1
387,1.2,1644598386.53125,P05,D10,1,1,1
388,1.23,1644598386.546875,P05,D10,1,1,1
389,1.27,1644598386.5625,P05,D10,1,1,1
390,1.29,1644598386.578125,P05,D10,1,1,1
391,1.22,1644598386.59375,P05,D10,1,1,1
392,1.04,1644598386.609375,P05,D10,1,1,1
393,0.76,1644598386.625,P05,D10,1,1,1
394,0.43,1644598386.640625,P05,D10,1,1,1
395,0.14,1644598386.65625,P05,D10,1,1,1
396,-0.07,1644598386.671875,P05,D10,1,1,1
397,-0.18,1644598386.6875,P05,D10,1,1,1
398,-0.22,1644598386.703125,P05,D10,1,1,1
399,-0.27,1644598386.71875,P05,D10,1,1,1
400,-0.4,1644598386.734375,P05,D10,1,1,1
401,-0.62,1644598386.75,P05,D10,1,1,1
402,-0.88,1644598386.765625,P05,D10,1,1,1
403,-1.08,1644598386.78125,P05,D10,1,1,1
404,-1.12,1644598386.796875,P05,D10,1,1,1
405,-0.96,1644598386.8125,P05,D10,1,1,1
406,-0.66,1644598386.828125,P05,D10,1,1,1
407,-0.32,1644598386.84375,P05,D10,1,1,1
408,-0.09,1644598386.859375,P05,D10,1,1,1
409,-0.06,1644598386.875,P05,D10,1,1,1
410,-0.21,1644598386.890625,P05,D10,1,1,1
411,-0.48,1644598386.90625,P05,D10,1,1,1
412,-0.73,1644598386.921875,P05,D10,1,1,1
413,-0.87,1644598386.9375,P05,D10,1,1,1
414,-0.86,1644598386.953125,P05,D10,1,1,1
415,-0.75,1644598386.96875,P05,D10,1,1,1
416,-0.6,1644598386.984375,P05,D10,1,1,1
417,-0.49,1644598387.0,P05,D10,1,1,1
418,-0.49,1644598387.015625,P05,D10,1,1,1
419,-0.59,1644598387.03125,P05,D10,1,1,1
420,-0.78,1644598387.046875,P05,D10,1,1,1
421,-0.98,1644598387.0625,P05,D10,1,1,1
422,-1.12,1644598387.078125,P05,D10,1,1,1
423,-1.12,1644598387.09375,P05,D10,1,1,1
424,-0.95,1644598387.109375,P05,D10,1,1,1
425,-0.64,1644598387.125,P05,D10,1,1,1
426,-0.26,1644598387.140625,P05,D10,1,1,1
427,0.08,1644598387.15625,P05,D10,1,1,1
428,0.3,1644598387.171875,P05,D10,1,1,1
429,0.35,1644598387.1875,P05,D10,1,1,1
430,0.25,1644598387.203125,P05,D10,1,1,1
431,0.04,1644598387.21875,P05,D10,1,1,1
432,-0.16,1644598387.234375,P05,D10,1,1,1
433,-0.3,1644598387.25,P05,D10,1,1,1
434,-0.33,1644598387.265625,P05,D10,1,1,1
435,-0.24,1644598387.28125,P05,D10,1,1,1
436,-0.11,1644598387.296875,P05,D10,1,1,1
437,0.02,1644598387.3125,P05,D10,1,1,1
438,0.07,1644598387.328125,P05,D10,1,1,1
439,0.03,1644598387.34375,P05,D10,1,1,1
440,-0.12,1644598387.359375,P05,D10,1,1,1
441,-0.35,1644598387.375,P05,D10,1,1,1
442,-0.64,1644598387.390625,P05,D10,1,1,1
443,-0.95,1644598387.40625,P05,D10,1,1,1
444,-1.26,1644598387.421875,P05,D10,1,1,1
445,-1.49,1644598387.4375,P05,D10,1,1,1
446,-1.6,1644598387.453125,P05,D10,1,1,1
447,-1.55,1644598387.46875,P05,D10,1,1,1
448,-1.33,1644598387.484375,P05,D10,1,1,1
449,-1.02,1644598387.5,P05,D10,1,1,1
450,-0.73,1644598387.515625,P05,D10,1,1,1
451,-0.55,1644598387.53125,P05,D10,1,1,1
452,-0.49,1644598387.546875,P05,D10,1,1,1
453,-0.5,1644598387.5625,P05,D10,1,1,1
454,-0.44,1644598387.578125,P05,D10,1,1,1
455,-0.19,1644598387.59375,P05,D10,1,1,1
456,0.3,1644598387.609375,P05,D10,1,1,1
457,0.98,1644598387.625,P05,D10,1,1,1
458,1.72,1644598387.640625,P05,D10,1,1,1
459,2.35,1644598387.65625,P05,D10,1,1,1
460,2.76,1644598387.671875,P05,D10,1,1,1
461,2.88,1644598387.6875,P05,D10,1,1,1
462,2.71,1644598387.703125,P05,D10,1,1,1
463,2.33,1644598387.71875,P05,D10,1,1,1
464,1.82,1644598387.734375,P05,D10,1,1,1
465,1.26,1644598387.75,P05,D10,1,1,1
466,0.76,1644598387.765625,P05,D10,1,1,1
467,0.38,1644598387.78125,P05,D10,1,1,1
468,0.14,1644598387.796875,P05,D10,1,1,1
469,0.02,1644598387.8125,P05,D10,1,1,1
470,-0.05,1644598387.828125,P05,D10,1,1,1
471,-0.14,1644598387.84375,P05,D10,1,1,1
472,-0.28,1644598387.859375,P05,D10,1,1,1
473,-0.43,1644598387.875,P05,D10,1,1,1
474,-0.54,1644598387.890625,P05,D10,1,1,1
475,-0.53,1644598387.90625,P05,D10,1,1,1
476,-0.41,1644598387.921875,P05,D10,1,1,1
477,-0.19,1644598387.9375,P05,D10,1,1,1
478,0.03,1644598387.953125,P05,D10,1,1,1
479,0.18,1644598387.96875,P05,D10,1,1,1
480,0.19,1644598387.984375,P05,D10,1,1,1
481,0.07,1644598388.0,P05,D10,1,1,1
482,-0.13,1644598388.015625,P05,D10,1,1,1
483,-0.32,1644598388.03125,P05,D10,1,1,1
484,-0.42,1644598388.046875,P05,D10,1,1,1
485,-0.41,1644598388.0625,P05,D10,1,1,1
486,-0.32,1644598388.078125,P05,D10,1,1,1
487,-0.22,1644598388.09375,P05,D10,1,1,1
488,-0.22,1644598388.109375,P05,D10,1,1,1
489,-0.37,1644598388.125,P05,D10,1,1,1
490,-0.64,1644598388.140625,P05,D10,1,1,1
491,-0.95,1644598388.15625,P05,D10,1,1,1
492,-1.17,1644598388.171875,P05,D10,1,1,1
493,-1.2,1644598388.1875,P05,D10,1,1,1
494,-1.02,1644598388.203125,P05,D10,1,1,1
495,-0.67,1644598388.21875,P05,D10,1,1,1
496,-0.24,1644598388.234375,P05,D10,1,1,1
497,0.16,1644598388.25,P05,D10,1,1,1
498,0.47,1644598388.265625,P05,D10,1,1,1
499,0.68,1644598388.28125,P05,D10,1,1,1
500,0.79,1644598388.296875,P05,D10,1,1,1
501,0.82,1644598388.3125,P05,D10,1,1,1
502,0.78,1644598388.328125,P05,D10,1,1,1
503,0.66,1644598388.34375,P05,D10,1,1,1
504,0.46,1644598388.359375,P05,D10,1,1,1
505,0.23,1644598388.375,P05,D10,1,1,1
506,-0.01,1644598388.390625,P05,D10,1,1,1
507,-0.17,1644598388.40625,P05,D10,1,1,1
508,-0.22,1644598388.421875,P05,D10,1,1,1
509,-0.13,1644598388.4375,P05,D10,1,1,1
510,0.06,1644598388.453125,P05,D10,1,1,1
511,0.3,1644598388.46875,P05,D10,1,1,1
512,0.51,1644598388.484375,P05,D10,1,1,1
513,0.66,1644598388.5,P05,D10,1,1,1
514,0.68,1644598388.515625,P05,D10,1,1,1
515,0.58,1644598388.53125,P05,D10,1,1,1
516,0.36,1644598388.546875,P05,D10,1,1,1
517,0.05,1644598388.5625,P05,D10,1,1,1
518,-0.31,1644598388.578125,P05,D10,1,1,1
519,-0.66,1644598388.59375,P05,D10,1,1,1
520,-0.93,1644598388.609375,P05,D10,1,1,1
521,-1.07,1644598388.625,P05,D10,1,1,1
522,-1.05,1644598388.640625,P05,D10,1,1,1
523,-0.88,1644598388.65625,P05,D10,1,1,1
524,-0.62,1644598388.671875,P05,D10,1,1,1
525,-0.31,1644598388.6875,P05,D10,1,1,1
526,-0.03,1644598388.703125,P05,D10,1,1,1
527,0.21,1644598388.71875,P05,D10,1,1,1
528,0.42,1644598388.734375,P05,D10,1,1,1
529,0.61,1644598388.75,P05,D10,1,1,1
530,0.81,1644598388.765625,P05,D10,1,1,1
531,0.99,1644598388.78125,P05,D10,1,1,1
532,1.11,1644598388.796875,P05,D10,1,1,1
533,1.14,1644598388.8125,P05,D10,1,1,1
534,1.07,1644598388.828125,P05,D10,1,1,1
535,0.9,1644598388.84375,P05,D10,1,1,1
536,0.68,1644598388.859375,P05,D10,1,1,1
537,0.45,1644598388.875,P05,D10,1,1,1
538,0.25,1644598388.890625,P05,D10,1,1,1
539,0.08,1644598388.90625,P05,D10,1,1,1
540,-0.04,1644598388.921875,P05,D10,1,1,1
541,-0.1,1644598388.9375,P05,D10,1,1,1
542,-0.09,1644598388.953125,P05,D10,1,1,1
543,-0.0,1644598388.96875,P05,D10,1,1,1
544,0.15,1644598388.984375,P05,D10,1,1,1
545,0.35,1644598389.0,P05,D10,1,1,1
546,0.54,1644598389.015625,P05,D10,1,1,1
547,0.68,1644598389.03125,P05,D10,1,1,1
548,0.72,1644598389.046875,P05,D10,1,1,1
549,0.67,1644598389.0625,P05,D10,1,1,1
550,0.52,1644598389.078125,P05,D10,1,1,1
551,0.31,1644598389.09375,P05,D10,1,1,1
552,0.07,1644598389.109375,P05,D10,1,1,1
553,-0.17,1644598389.125,P05,D10,1,1,1
554,-0.36,1644598389.140625,P05,D10,1,1,1
555,-0.49,1644598389.15625,P05,D10,1,1,1
556,-0.52,1644598389.171875,P05,D10,1,1,1
557,-0.45,1644598389.1875,P05,D10,1,1,1
558,-0.3,1644598389.203125,P05,D10,1,1,1
559,-0.12,1644598389.21875,P05,D10,1,1,1
560,0.04,1644598389.234375,P05,D10,1,1,1
561,0.14,1644598389.25,P05,D10,1,1,1
562,0.16,1644598389.265625,P05,D10,1,1,1
563,0.11,1644598389.28125,P05,D10,1,1,1
564,-0.0,1644598389.296875,P05,D10,1,1,1
565,-0.16,1644598389.3125,P05,D10,1,1,1
566,-0.37,1644598389.328125,P05,D10,1,1,1
567,-0.6,1644598389.34375,P05,D10,1,1,1
568,-0.82,1644598389.359375,P05,D10,1,1,1
569,-0.97,1644598389.375,P05,D10,1,1,1
570,-0.97,1644598389.390625,P05,D10,1,1,1
571,-0.8,1644598389.40625,P05,D10,1,1,1
572,-0.46,1644598389.421875,P05,D10,1,1,1
573,-0.06,1644598389.4375,P05,D10,1,1,1
574,0.26,1644598389.453125,P05,D10,1,1,1
575,0.37,1644598389.46875,P05,D10,1,1,1
576,0.23,1644598389.484375,P05,D10,1,1,1
577,-0.12,1644598389.5,P05,D10,1,1,1
578,-0.54,1644598389.515625,P05,D10,1,1,1
579,-0.85,1644598389.53125,P05,D10,1,1,1
580,-0.95,1644598389.546875,P05,D10,1,1,1
581,-0.82,1644598389.5625,P05,D10,1,1,1
582,-0.55,1644598389.578125,P05,D10,1,1,1
583,-0.26,1644598389.59375,P05,D10,1,1,1
584,-0.03,1644598389.609375,P05,D10,1,1,1
585,0.14,1644598389.625,P05,D10,1,1,1
586,0.3,1644598389.640625,P05,D10,1,1,1
587,0.48,1644598389.65625,P05,D10,1,1,1
588,0.63,1644598389.671875,P05,D10,1,1,1
589,0.66,1644598389.6875,P05,D10,1,1,1
590,0.46,1644598389.703125,P05,D10,1,1,1
591,0.03,1644598389.71875,P05,D10,1,1,1
592,-0.56,1644598389.734375,P05,D10,1,1,1
593,-1.14,1644598389.75,P05,D10,1,1,1
594,-1.54,1644598389.765625,P05,D10,1,1,1
595,-1.7,1644598389.78125,P05,D10,1,1,1
596,-1.6,1644598389.796875,P05,D10,1,1,1
597,-1.35,1644598389.8125,P05,D10,1,1,1
598,-1.04,1644598389.828125,P05,D10,1,1,1
599,-0.78,1644598389.84375,P05,D10,1,1,1
600,-0.61,1644598389.859375,P05,D10,1,1,1
601,-0.54,1644598389.875,P05,D10,1,1,1
602,-0.53,1644598389.890625,P05,D10,1,1,1
603,-0.52,1644598389.90625,P05,D10,1,1,1
604,-0.44,1644598389.921875,P05,D10,1,1,1
605,-0.3,1644598389.9375,P05,D10,1,1,1
606,-0.13,1644598389.953125,P05,D10,1,1,1
607,0.01,1644598389.96875,P05,D10,1,1,1
608,0.03,1644598389.984375,P05,D10,1,1,1
609,-0.07,1644598390.0,P05,D10,1,1,1
610,-0.19,1644598390.015625,P05,D10,1,1,1
611,-0.22,1644598390.03125,P05,D10,1,1,1
612,-0.05,1644598390.046875,P05,D10,1,1,1
613,0.3,1644598390.0625,P05,D10,1,1,1
614,0.73,1644598390.078125,P05,D10,1,1,1
615,1.08,1644598390.09375,P05,D10,1,1,1
616,1.24,1644598390.109375,P05,D10,1,1,1
617,1.22,1644598390.125,P05,D10,1,1,1
618,1.12,1644598390.140625,P05,D10,1,1,1
619,1.06,1644598390.15625,P05,D10,1,1,1
620,1.09,1644598390.171875,P05,D10,1,1,1
621,1.15,1644598390.1875,P05,D10,1,1,1
622,1.15,1644598390.203125,P05,D10,1,1,1
623,1.0,1644598390.21875,P05,D10,1,1,1
624,0.73,1644598390.234375,P05,D10,1,1,1
625,0.46,1644598390.25,P05,D10,1,1,1
626,0.34,1644598390.265625,P05,D10,1,1,1
627,0.4,1644598390.28125,P05,D10,1,1,1
628,0.58,1644598390.296875,P05,D10,1,1,1
629,0.71,1644598390.3125,P05,D10,1,1,1
630,0.65,1644598390.328125,P05,D10,1,1,1
631,0.35,1644598390.34375,P05,D10,1,1,1
632,-0.09,1644598390.359375,P05,D10,1,1,1
633,-0.47,1644598390.375,P05,D10,1,1,1
634,-0.63,1644598390.390625,P05,D10,1,1,1
635,-0.53,1644598390.40625,P05,D10,1,1,1
636,-0.26,1644598390.421875,P05,D10,1,1,1
637,0.01,1644598390.4375,P05,D10,1,1,1
638,0.15,1644598390.453125,P05,D10,1,1,1
639,0.13,1644598390.46875,P05,D10,1,1,1
640,0.02,1644598390.484375,P05,D10,1,1,1
641,-0.06,1644598390.5,P05,D10,1,1,1
642,-0.06,1644598390.515625,P05,D10,1,1,1
643,0.06,1644598390.53125,P05,D10,1,1,1
644,0.25,1644598390.546875,P05,D10,1,1,1
645,0.49,1644598390.5625,P05,D10,1,1,1
646,0.75,1644598390.578125,P05,D10,1,1,1
647,1.0,1644598390.59375,P05,D10,1,1,1
648,1.19,1644598390.609375,P05,D10,1,1,1
649,1.24,1644598390.625,P05,D10,1,1,1
650,1.09,1644598390.640625,P05,D10,1,1,1
651,0.76,1644598390.65625,P05,D10,1,1,1
652,0.3,1644598390.671875,P05,D10,1,1,1
653,-0.13,1644598390.6875,P05,D10,1,1,1
654,-0.43,1644598390.703125,P05,D10,1,1,1
655,-0.57,1644598390.71875,P05,D10,1,1,1
656,-0.59,1644598390.734375,P05,D10,1,1,1
657,-0.59,1644598390.75,P05,D10,1,1,1
658,-0.65,1644598390.765625,P05,D10,1,1,1
659,-0.79,1644598390.78125,P05,D10,1,1,1
660,-0.96,1644598390.796875,P05,D10,1,1,1
661,-1.11,1644598390.8125,P05,D10,1,1,1
662,-1.18,1644598390.828125,P05,D10,1,1,1
663,-1.15,1644598390.84375,P05,D10,1,1,1
664,-1.0,1644598390.859375,P05,D10,1,1,1
665,-0.74,1644598390.875,P05,D10,1,1,1
666,-0.33,1644598390.890625,P05,D10,1,1,1
667,0.19,1644598390.90625,P05,D10,1,1,1
668,0.73,1644598390.921875,P05,D10,1,1,1
669,1.17,1644598390.9375,P05,D10,1,1,1
670,1.39,1644598390.953125,P05,D10,1,1,1
671,1.34,1644598390.96875,P05,D10,1,1,1
672,1.04,1644598390.984375,P05,D10,1,1,1
673,0.63,1644598391.0,P05,D10,1,1,1
674,0.24,1644598391.015625,P05,D10,1,1,1
675,0.01,1644598391.03125,P05,D10,1,1,1
676,-0.04,1644598391.046875,P05,D10,1,1,1
677,0.05,1644598391.0625,P05,D10,1,1,1
678,0.2,1644598391.078125,P05,D10,1,1,1
679,0.34,1644598391.09375,P05,D10,1,1,1
680,0.39,1644598391.109375,P05,D10,1,1,1
681,0.36,1644598391.125,P05,D10,1,1,1
682,0.23,1644598391.140625,P05,D10,1,1,1
683,0.03,1644598391.15625,P05,D10,1,1,1
684,-0.26,1644598391.171875,P05,D10,1,1,1
685,-0.61,1644598391.1875,P05,D10,1,1,1
686,-0.98,1644598391.203125,P05,D10,1,1,1
687,-1.27,1644598391.21875,P05,D10,1,1,1
688,-1.37,1644598391.234375,P05,D10,1,1,1
689,-1.21,1644598391.25,P05,D10,1,1,1
690,-0.78,1644598391.265625,P05,D10,1,1,1
691,-0.18,1644598391.28125,P05,D10,1,1,1
692,0.39,1644598391.296875,P05,D10,1,1,1
693,0.71,1644598391.3125,P05,D10,1,1,1
694,0.63,1644598391.328125,P05,D10,1,1,1
695,0.19,1644598391.34375,P05,D10,1,1,1
696,-0.44,1644598391.359375,P05,D10,1,1,1
697,-0.97,1644598391.375,P05,D10,1,1,1
698,-1.16,1644598391.390625,P05,D10,1,1,1
699,-0.93,1644598391.40625,P05,D10,1,1,1
700,-0.4,1644598391.421875,P05,D10,1,1,1
701,0.18,1644598391.4375,P05,D10,1,1,1
702,0.57,1644598391.453125,P05,D10,1,1,1
703,0.66,1644598391.46875,P05,D10,1,1,1
704,0.49,1644598391.484375,P05,D10,1,1,1
705,0.22,1644598391.5,P05,D10,1,1,1
706,-0.01,1644598391.515625,P05,D10,1,1,1
707,-0.11,1644598391.53125,P05,D10,1,1,1
708,-0.11,1644598391.546875,P05,D10,1,1,1
709,-0.06,1644598391.5625,P05,D10,1,1,1
710,-0.03,1644598391.578125,P05,D10,1,1,1
711,-0.01,1644598391.59375,P05,D10,1,1,1
712,0.0,1644598391.609375,P05,D10,1,1,1
713,0.02,1644598391.625,P05,D10,1,1,1
714,0.02,1644598391.640625,P05,D10,1,1,1
715,-0.03,1644598391.65625,P05,D10,1,1,1
716,-0.13,1644598391.671875,P05,D10,1,1,1
717,-0.26,1644598391.6875,P05,D10,1,1,1
718,-0.38,1644598391.703125,P05,D10,1,1,1
719,-0.47,1644598391.71875,P05,D10,1,1,1
720,-0.53,1644598391.734375,P05,D10,1,1,1
721,-0.6,1644598391.75,P05,D10,1,1,1
722,-0.69,1644598391.765625,P05,D10,1,1,1
723,-0.76,1644598391.78125,P05,D10,1,1,1
724,-0.75,1644598391.796875,P05,D10,1,1,1
725,-0.61,1644598391.8125,P05,D10,1,1,1
726,-0.36,1644598391.828125,P05,D10,1,1,1
727,-0.1,1644598391.84375,P05,D10,1,1,1
728,0.08,1644598391.859375,P05,D10,1,1,1
729,0.11,1644598391.875,P05,D10,1,1,1
730,0.0,1644598391.890625,P05,D10,1,1,1
731,-0.16,1644598391.90625,P05,D10,1,1,1
732,-0.27,1644598391.921875,P05,D10,1,1,1
733,-0.26,1644598391.9375,P05,D10,1,1,1
734,-0.1,1644598391.953125,P05,D10,1,1,1
735,0.18,1644598391.96875,P05,D10,1,1,1
736,0.52,1644598391.984375,P05,D10,1,1,1
737,0.86,1644598392.0,P05,D10,1,1,1
738,1.13,1644598392.015625,P05,D10,1,1,1
739,1.31,1644598392.03125,P05,D10,1,1,1
740,1.37,1644598392.046875,P05,D10,1,1,1
741,1.32,1644598392.0625,P05,D10,1,1,1
742,1.18,1644598392.078125,P05,D10,1,1,1
743,1.0,1644598392.09375,P05,D10,1,1,1
744,0.78,1644598392.109375,P05,D10,1,1,1
745,0.55,1644598392.125,P05,D10,1,1,1
746,0.32,1644598392.140625,P05,D10,1,1,1
747,0.09,1644598392.15625,P05,D10,1,1,1
748,-0.08,1644598392.171875,P05,D10,1,1,1
749,-0.18,1644598392.1875,P05,D10,1,1,1
750,-0.19,1644598392.203125,P05,D10,1,1,1
751,-0.12,1644598392.21875,P05,D10,1,1,1
752,0.02,1644598392.234375,P05,D10,1,1,1
753,0.21,1644598392.25,P05,D10,1,1,1
754,0.44,1644598392.265625,P05,D10,1,1,1
755,0.69,1644598392.28125,P05,D10,1,1,1
756,0.91,1644598392.296875,P05,D10,1,1,1
757,1.01,1644598392.3125,P05,D10,1,1,1
758,0.91,1644598392.328125,P05,D10,1,1,1
759,0.59,1644598392.34375,P05,D10,1,1,1
760,0.13,1644598392.359375,P05,D10,1,1,1
761,-0.3,1644598392.375,P05,D10,1,1,1
762,-0.55,1644598392.390625,P05,D10,1,1,1
763,-0.51,1644598392.40625,P05,D10,1,1,1
764,-0.22,1644598392.421875,P05,D10,1,1,1
765,0.15,1644598392.4375,P05,D10,1,1,1
766,0.39,1644598392.453125,P05,D10,1,1,1
767,0.37,1644598392.46875,P05,D10,1,1,1
768,0.11,1644598392.484375,P05,D10,1,1,1
769,-0.29,1644598392.5,P05,D10,1,1,1
770,-0.65,1644598392.515625,P05,D10,1,1,1
771,-0.84,1644598392.53125,P05,D10,1,1,1
772,-0.82,1644598392.546875,P05,D10,1,1,1
773,-0.64,1644598392.5625,P05,D10,1,1,1
774,-0.39,1644598392.578125,P05,D10,1,1,1
775,-0.14,1644598392.59375,P05,D10,1,1,1
776,0.04,1644598392.609375,P05,D10,1,1,1
777,0.1,1644598392.625,P05,D10,1,1,1
778,0.02,1644598392.640625,P05,D10,1,1,1
779,-0.22,1644598392.65625,P05,D10,1,1,1
780,-0.56,1644598392.671875,P05,D10,1,1,1
781,-0.92,1644598392.6875,P05,D10,1,1,1
782,-1.2,1644598392.703125,P05,D10,1,1,1
783,-1.29,1644598392.71875,P05,D10,1,1,1
784,-1.17,1644598392.734375,P05,D10,1,1,1
785,-0.87,1644598392.75,P05,D10,1,1,1
786,-0.49,1644598392.765625,P05,D10,1,1,1
787,-0.13,1644598392.78125,P05,D10,1,1,1
788,0.12,1644598392.796875,P05,D10,1,1,1
789,0.22,1644598392.8125,P05,D10,1,1,1
790,0.2,1644598392.828125,P05,D10,1,1,1
791,0.11,1644598392.84375,P05,D10,1,1,1
792,0.01,1644598392.859375,P05,D10,1,1,1
793,-0.04,1644598392.875,P05,D10,1,1,1
794,-0.07,1644598392.890625,P05,D10,1,1,1
795,-0.07,1644598392.90625,P05,D10,1,1,1
796,-0.07,1644598392.921875,P05,D10,1,1,1
797,-0.03,1644598392.9375,P05,D10,1,1,1
798,0.08,1644598392.953125,P05,D10,1,1,1
799,0.31,1644598392.96875,P05,D10,1,1,1
800,0.62,1644598392.984375,P05,D10,1,1,1
801,0.89,1644598393.0,P05,D10,1,1,1
802,0.99,1644598393.015625,P05,D10,1,1,1
803,0.86,1644598393.03125,P05,D10,1,1,1
804,0.56,1644598393.046875,P05,D10,1,1,1
805,0.26,1644598393.0625,P05,D10,1,1,1
806,0.16,1644598393.078125,P05,D10,1,1,1
807,0.34,1644598393.09375,P05,D10,1,1,1
808,0.74,1644598393.109375,P05,D10,1,1,1
809,1.19,1644598393.125,P05,D10,1,1,1
810,1.48,1644598393.140625,P05,D10,1,1,1
811,1.52,1644598393.15625,P05,D10,1,1,1
812,1.31,1644598393.171875,P05,D10,1,1,1
813,0.97,1644598393.1875,P05,D10,1,1,1
814,0.6,1644598393.203125,P05,D10,1,1,1
815,0.28,1644598393.21875,P05,D10,1,1,1
816,0.03,1644598393.234375,P05,D10,1,1,1
817,-0.14,1644598393.25,P05,D10,1,1,1
818,-0.26,1644598393.265625,P05,D10,1,1,1
819,-0.34,1644598393.28125,P05,D10,1,1,1
820,-0.38,1644598393.296875,P05,D10,1,1,1
821,-0.41,1644598393.3125,P05,D10,1,1,1
822,-0.46,1644598393.328125,P05,D10,1,1,1
823,-0.56,1644598393.34375,P05,D10,1,1,1
824,-0.74,1644598393.359375,P05,D10,1,1,1
825,-0.99,1644598393.375,P05,D10,1,1,1
826,-1.29,1644598393.390625,P05,D10,1,1,1
827,-1.57,1644598393.40625,P05,D10,1,1,1
828,-1.75,1644598393.421875,P05,D10,1,1,1
829,-1.79,1644598393.4375,P05,D10,1,1,1
830,-1.65,1644598393.453125,P05,D10,1,1,1
831,-1.37,1644598393.46875,P05,D10,1,1,1
832,-1.03,1644598393.484375,P05,D10,1,1,1
833,-0.75,1644598393.5,P05,D10,1,1,1
834,-0.62,1644598393.515625,P05,D10,1,1,1
835,-0.66,1644598393.53125,P05,D10,1,1,1
836,-0.83,1644598393.546875,P05,D10,1,1,1
837,-1.04,1644598393.5625,P05,D10,1,1,1
838,-1.19,1644598393.578125,P05,D10,1,1,1
839,-1.21,1644598393.59375,P05,D10,1,1,1
840,-1.06,1644598393.609375,P05,D10,1,1,1
841,-0.75,1644598393.625,P05,D10,1,1,1
842,-0.33,1644598393.640625,P05,D10,1,1,1
843,0.14,1644598393.65625,P05,D10,1,1,1
844,0.58,1644598393.671875,P05,D10,1,1,1
845,0.91,1644598393.6875,P05,D10,1,1,1
846,1.1,1644598393.703125,P05,D10,1,1,1
847,1.11,1644598393.71875,P05,D10,1,1,1
848,0.97,1644598393.734375,P05,D10,1,1,1
849,0.7,1644598393.75,P05,D10,1,1,1
850,0.36,1644598393.765625,P05,D10,1,1,1
851,0.03,1644598393.78125,P05,D10,1,1,1
852,-0.23,1644598393.796875,P05,D10,1,1,1
853,-0.37,1644598393.8125,P05,D10,1,1,1
854,-0.36,1644598393.828125,P05,D10,1,1,1
855,-0.24,1644598393.84375,P05,D10,1,1,1
856,-0.1,1644598393.859375,P05,D10,1,1,1
857,0.01,1644598393.875,P05,D10,1,1,1
858,0.03,1644598393.890625,P05,D10,1,1,1
859,-0.02,1644598393.90625,P05,D10,1,1,1
860,-0.07,1644598393.921875,P05,D10,1,1,1
861,-0.06,1644598393.9375,P05,D10,1,1,1
862,0.06,1644598393.953125,P05,D10,1,1,1
863,0.25,1644598393.96875,P05,D10,1,1,1
864,0.47,1644598393.984375,P05,D10,1,1,1
865,0.66,1644598394.0,P05,D10,1,1,1
866,0.77,1644598394.015625,P05,D10,1,1,1
867,0.8,1644598394.03125,P05,D10,1,1,1
868,0.76,1644598394.046875,P05,D10,1,1,1
869,0.68,1644598394.0625,P05,D10,1,1,1
870,0.59,1644598394.078125,P05,D10,1,1,1
871,0.5,1644598394.09375,P05,D10,1,1,1
872,0.44,1644598394.109375,P05,D10,1,1,1
873,0.45,1644598394.125,P05,D10,1,1,1
874,0.54,1644598394.140625,P05,D10,1,1,1
875,0.69,1644598394.15625,P05,D10,1,1,1
876,0.83,1644598394.171875,P05,D10,1,1,1
877,0.84,1644598394.1875,P05,D10,1,1,1
878,0.68,1644598394.203125,P05,D10,1,1,1
879,0.36,1644598394.21875,P05,D10,1,1,1
880,-0.03,1644598394.234375,P05,D10,1,1,1
881,-0.35,1644598394.25,P05,D10,1,1,1
882,-0.52,1644598394.265625,P05,D10,1,1,1
883,-0.5,1644598394.28125,P05,D10,1,1,1
884,-0.38,1644598394.296875,P05,D10,1,1,1
885,-0.24,1644598394.3125,P05,D10,1,1,1
886,-0.13,1644598394.328125,P05,D10,1,1,1
887,-0.05,1644598394.34375,P05,D10,1,1,1
888,0.05,1644598394.359375,P05,D10,1,1,1
889,0.2,1644598394.375,P05,D10,1,1,1
890,0.36,1644598394.390625,P05,D10,1,1,1
891,0.48,1644598394.40625,P05,D10,1,1,1
892,0.49,1644598394.421875,P05,D10,1,1,1
893,0.34,1644598394.4375,P05,D10,1,1,1
894,0.1,1644598394.453125,P05,D10,1,1,1
895,-0.16,1644598394.46875,P05,D10,1,1,1
896,-0.34,1644598394.484375,P05,D10,1,1,1
897,-0.39,1644598394.5,P05,D10,1,1,1
898,-0.35,1644598394.515625,P05,D10,1,1,1
899,-0.27,1644598394.53125,P05,D10,1,1,1
900,-0.21,1644598394.546875,P05,D10,1,1,1
901,-0.18,1644598394.5625,P05,D10,1,1,1
902,-0.16,1644598394.578125,P05,D10,1,1,1
903,-0.11,1644598394.59375,P05,D10,1,1,1
904,-0.05,1644598394.609375,P05,D10,1,1,1
905,-0.03,1644598394.625,P05,D10,1,1,1
906,-0.11,1644598394.640625,P05,D10,1,1,1
907,-0.33,1644598394.65625,P05,D10,1,1,1
908,-0.65,1644598394.671875,P05,D10,1,1,1
909,-0.98,1644598394.6875,P05,D10,1,1,1
910,-1.19,1644598394.703125,P05,D10,1,1,1
911,-1.21,1644598394.71875,P05,D10,1,1,1
912,-1.05,1644598394.734375,P05,D10,1,1,1
913,-0.77,1644598394.75,P05,D10,1,1,1
914,-0.51,1644598394.765625,P05,D10,1,1,1
915,-0.34,1644598394.78125,P05,D10,1,1,1
916,-0.28,1644598394.796875,P05,D10,1,1,1
917,-0.27,1644598394.8125,P05,D10,1,1,1
918,-0.21,1644598394.828125,P05,D10,1,1,1
919,-0.06,1644598394.84375,P05,D10,1,1,1
920,0.18,1644598394.859375,P05,D10,1,1,1
921,0.44,1644598394.875,P05,D10,1,1,1
922,0.64,1644598394.890625,P05,D10,1,1,1
923,0.77,1644598394.90625,P05,D10,1,1,1
924,0.86,1644598394.921875,P05,D10,1,1,1
925,1.0,1644598394.9375,P05,D10,1,1,1
926,1.23,1644598394.953125,P05,D10,1,1,1
927,1.5,1644598394.96875,P05,D10,1,1,1
928,1.71,1644598394.984375,P05,D10,1,1,1
929,1.74,1644598395.0,P05,D10,1,1,1
930,1.57,1644598395.015625,P05,D10,1,1,1
931,1.24,1644598395.03125,P05,D10,1,1,1
932,0.86,1644598395.046875,P05,D10,1,1,1
933,0.52,1644598395.0625,P05,D10,1,1,1
934,0.24,1644598395.078125,P05,D10,1,1,1
935,-0.02,1644598395.09375,P05,D10,1,1,1
936,-0.31,1644598395.109375,P05,D10,1,1,1
937,-0.62,1644598395.125,P05,D10,1,1,1
938,-0.86,1644598395.140625,P05,D10,1,1,1
939,-0.94,1644598395.15625,P05,D10,1,1,1
940,-0.81,1644598395.171875,P05,D10,1,1,1
941,-0.5,1644598395.1875,P05,D10,1,1,1
942,-0.14,1644598395.203125,P05,D10,1,1,1
943,0.16,1644598395.21875,P05,D10,1,1,1
944,0.3,1644598395.234375,P05,D10,1,1,1
945,0.26,1644598395.25,P05,D10,1,1,1
946,0.08,1644598395.265625,P05,D10,1,1,1
947,-0.21,1644598395.28125,P05,D10,1,1,1
948,-0.58,1644598395.296875,P05,D10,1,1,1
949,-0.99,1644598395.3125,P05,D10,1,1,1
950,-1.41,1644598395.328125,P05,D10,1,1,1
951,-1.77,1644598395.34375,P05,D10,1,1,1
952,-1.94,1644598395.359375,P05,D10,1,1,1
953,-1.82,1644598395.375,P05,D10,1,1,1
954,-1.38,1644598395.390625,P05,D10,1,1,1
955,-0.71,1644598395.40625,P05,D10,1,1,1
956,0.04,1644598395.421875,P05,D10,1,1,1
957,0.65,1644598395.4375,P05,D10,1,1,1
958,0.96,1644598395.453125,P05,D10,1,1,1
959,0.92,1644598395.46875,P05,D10,1,1,1
960,0.62,1644598395.484375,P05,D10,1,1,1
961,0.22,1644598395.5,P05,D10,1,1,1
962,-0.08,1644598395.515625,P05,D10,1,1,1
963,-0.2,1644598395.53125,P05,D10,1,1,1
964,-0.12,1644598395.546875,P05,D10,1,1,1
965,0.03,1644598395.5625,P05,D10,1,1,1
966,0.15,1644598395.578125,P05,D10,1,1,1
967,0.13,1644598395.59375,P05,D10,1,1,1
968,-0.0,1644598395.609375,P05,D10,1,1,1
969,-0.16,1644598395.625,P05,D10,1,1,1
970,-0.23,1644598395.640625,P05,D10,1,1,1
971,-0.15,1644598395.65625,P05,D10,1,1,1
972,0.07,1644598395.671875,P05,D10,1,1,1
973,0.34,1644598395.6875,P05,D10,1,1,1
974,0.54,1644598395.703125,P05,D10,1,1,1
975,0.64,1644598395.71875,P05,D10,1,1,1
976,0.63,1644598395.734375,P05,D10,1,1,1
977,0.58,1644598395.75,P05,D10,1,1,1
978,0.5,1644598395.765625,P05,D10,1,1,1
979,0.41,1644598395.78125,P05,D10,1,1,1
980,0.28,1644598395.796875,P05,D10,1,1,1
981,0.08,1644598395.8125,P05,D10,1,1,1
982,-0.16,1644598395.828125,P05,D10,1,1,1
983,-0.4,1644598395.84375,P05,D10,1,1,1
984,-0.55,1644598395.859375,P05,D10,1,1,1
985,-0.56,1644598395.875,P05,D10,1,1,1
986,-0.42,1644598395.890625,P05,D10,1,1,1
987,-0.15,1644598395.90625,P05,D10,1,1,1
988,0.2,1644598395.921875,P05,D10,1,1,1
989,0.55,1644598395.9375,P05,D10,1,1,1
990,0.81,1644598395.953125,P05,D10,1,1,1
991,0.95,1644598395.96875,P05,D10,1,1,1
992,0.92,1644598395.984375,P05,D10,1,1,1
993,0.77,1644598396.0,P05,D10,1,1,1
994,0.54,1644598396.015625,P05,D10,1,1,1
995,0.3,1644598396.03125,P05,D10,1,1,1
996,0.11,1644598396.046875,P05,D10,1,1,1
997,-0.01,1644598396.0625,P05,D10,1,1,1
998,-0.07,1644598396.078125,P05,D10,1,1,1
999,-0.08,1644598396.09375,P05,D10,1,1,1
1000,-0.03,1644598396.109375,P05,D10,1,1,1
1001,0.07,1644598396.125,P05,D10,1,1,1
1002,0.19,1644598396.140625,P05,D10,1,1,1
1003,0.3,1644598396.15625,P05,D10,1,1,1
1004,0.38,1644598396.171875,P05,D10,1,1,1
1005,0.41,1644598396.1875,P05,D10,1,1,1
1006,0.4,1644598396.203125,P05,D10,1,1,1
1007,0.38,1644598396.21875,P05,D10,1,1,1
1008,0.36,1644598396.234375,P05,D10,1,1,1
1009,0.33,1644598396.25,P05,D10,1,1,1
1010,0.28,1644598396.265625,P05,D10,1,1,1
1011,0.16,1644598396.28125,P05,D10,1,1,1
1012,-0.01,1644598396.296875,P05,D10,1,1,1
1013,-0.19,1644598396.3125,P05,D10,1,1,1
1014,-0.34,1644598396.328125,P05,D10,1,1,1
1015,-0.38,1644598396.34375,P05,D10,1,1,1
1016,-0.3,1644598396.359375,P05,D10,1,1,1
1017,-0.08,1644598396.375,P05,D10,1,1,1
1018,0.26,1644598396.390625,P05,D10,1,1,1
1019,0.66,1644598396.40625,P05,D10,1,1,1
1020,1.04,1644598396.421875,P05,D10,1,1,1
1021,1.31,1644598396.4375,P05,D10,1,1,1
1022,1.38,1644598396.453125,P05,D10,1,1,1
1023,1.23,1644598396.46875,P05,D10,1,1,1
1024,0.91,1644598396.484375,P05,D10,1,1,1
1025,0.54,1644598396.5,P05,D10,1,1,1
1026,0.28,1644598396.515625,P05,D10,1,1,1
1027,0.22,1644598396.53125,P05,D10,1,1,1
1028,0.38,1644598396.546875,P05,D10,1,1,1
1029,0.65,1644598396.5625,P05,D10,1,1,1
1030,0.91,1644598396.578125,P05,D10,1,1,1
1031,1.0,1644598396.59375,P05,D10,1,1,1
1032,0.88,1644598396.609375,P05,D10,1,1,1
1033,0.56,1644598396.625,P05,D10,1,1,1
1034,0.12,1644598396.640625,P05,D10,1,1,1
1035,-0.31,1644598396.65625,P05,D10,1,1,1
1036,-0.67,1644598396.671875,P05,D10,1,1,1
1037,-0.93,1644598396.6875,P05,D10,1,1,1
1038,-1.1,1644598396.703125,P05,D10,1,1,1
1039,-1.2,1644598396.71875,P05,D10,1,1,1
1040,-1.3,1644598396.734375,P05,D10,1,1,1
1041,-1.38,1644598396.75,P05,D10,1,1,1
1042,-1.45,1644598396.765625,P05,D10,1,1,1
1043,-1.48,1644598396.78125,P05,D10,1,1,1
1044,-1.48,1644598396.796875,P05,D10,1,1,1
1045,-1.42,1644598396.8125,P05,D10,1,1,1
1046,-1.32,1644598396.828125,P05,D10,1,1,1
1047,-1.21,1644598396.84375,P05,D10,1,1,1
1048,-1.12,1644598396.859375,P05,D10,1,1,1
1049,-1.07,1644598396.875,P05,D10,1,1,1
1050,-1.09,1644598396.890625,P05,D10,1,1,1
1051,-1.18,1644598396.90625,P05,D10,1,1,1
1052,-1.33,1644598396.921875,P05,D10,1,1,1
1053,-1.45,1644598396.9375,P05,D10,1,1,1
1054,-1.47,1644598396.953125,P05,D10,1,1,1
1055,-1.3,1644598396.96875,P05,D10,1,1,1
1056,-0.94,1644598396.984375,P05,D10,1,1,1
1057,-0.44,1644598397.0,P05,D10,1,1,1
1058,0.07,1644598397.015625,P05,D10,1,1,1
1059,0.45,1644598397.03125,P05,D10,1,1,1
1060,0.63,1644598397.046875,P05,D10,1,1,1
1061,0.6,1644598397.0625,P05,D10,1,1,1
1062,0.42,1644598397.078125,P05,D10,1,1,1
1063,0.21,1644598397.09375,P05,D10,1,1,1
1064,0.07,1644598397.109375,P05,D10,1,1,1
1065,0.06,1644598397.125,P05,D10,1,1,1
1066,0.18,1644598397.140625,P05,D10,1,1,1
1067,0.38,1644598397.15625,P05,D10,1,1,1
1068,0.58,1644598397.171875,P05,D10,1,1,1
1069,0.73,1644598397.1875,P05,D10,1,1,1
1070,0.77,1644598397.203125,P05,D10,1,1,1
1071,0.73,1644598397.21875,P05,D10,1,1,1
1072,0.64,1644598397.234375,P05,D10,1,1,1
1073,0.55,1644598397.25,P05,D10,1,1,1
1074,0.5,1644598397.265625,P05,D10,1,1,1
1075,0.48,1644598397.28125,P05,D10,1,1,1
1076,0.47,1644598397.296875,P05,D10,1,1,1
1077,0.44,1644598397.3125,P05,D10,1,1,1
1078,0.39,1644598397.328125,P05,D10,1,1,1
1079,0.35,1644598397.34375,P05,D10,1,1,1
1080,0.34,1644598397.359375,P05,D10,1,1,1
1081,0.33,1644598397.375,P05,D10,1,1,1
1082,0.3,1644598397.390625,P05,D10,1,1,1
1083,0.17,1644598397.40625,P05,D10,1,1,1
1084,-0.09,1644598397.421875,P05,D10,1,1,1
1085,-0.44,1644598397.4375,P05,D10,1,1,1
1086,-0.81,1644598397.453125,P05,D10,1,1,1
1087,-1.12,1644598397.46875,P05,D10,1,1,1
1088,-1.28,1644598397.484375,P05,D10,1,1,1
1089,-1.27,1644598397.5,P05,D10,1,1,1
1090,-1.11,1644598397.515625,P05,D10,1,1,1
1091,-0.87,1644598397.53125,P05,D10,1,1,1
1092,-0.59,1644598397.546875,P05,D10,1,1,1
1093,-0.36,1644598397.5625,P05,D10,1,1,1
1094,-0.19,1644598397.578125,P05,D10,1,1,1
1095,-0.11,1644598397.59375,P05,D10,1,1,1
1096,-0.09,1644598397.609375,P05,D10,1,1,1
1097,-0.05,1644598397.625,P05,D10,1,1,1
1098,0.02,1644598397.640625,P05,D10,1,1,1
1099,0.15,1644598397.65625,P05,D10,1,1,1
1100,0.28,1644598397.671875,P05,D10,1,1,1
1101,0.33,1644598397.6875,P05,D10,1,1,1
1102,0.25,1644598397.703125,P05,D10,1,1,1
1103,0.03,1644598397.71875,P05,D10,1,1,1
1104,-0.31,1644598397.734375,P05,D10,1,1,1
1105,-0.67,1644598397.75,P05,D10,1,1,1
1106,-1.01,1644598397.765625,P05,D10,1,1,1
1107,-1.25,1644598397.78125,P05,D10,1,1,1
1108,-1.35,1644598397.796875,P05,D10,1,1,1
1109,-1.27,1644598397.8125,P05,D10,1,1,1
1110,-0.97,1644598397.828125,P05,D10,1,1,1
1111,-0.45,1644598397.84375,P05,D10,1,1,1
1112,0.19,1644598397.859375,P05,D10,1,1,1
1113,0.78,1644598397.875,P05,D10,1,1,1
1114,1.16,1644598397.890625,P05,D10,1,1,1
1115,1.23,1644598397.90625,P05,D10,1,1,1
1116,1.0,1644598397.921875,P05,D10,1,1,1
1117,0.61,1644598397.9375,P05,D10,1,1,1
1118,0.25,1644598397.953125,P05,D10,1,1,1
1119,0.09,1644598397.96875,P05,D10,1,1,1
1120,0.19,1644598397.984375,P05,D10,1,1,1
1121,0.54,1644598398.0,P05,D10,1,1,1
1122,1.0,1644598398.015625,P05,D10,1,1,1
1123,1.43,1644598398.03125,P05,D10,1,1,1
1124,1.67,1644598398.046875,P05,D10,1,1,1
1125,1.62,1644598398.0625,P05,D10,1,1,1
1126,1.26,1644598398.078125,P05,D10,1,1,1
1127,0.72,1644598398.09375,P05,D10,1,1,1
1128,0.15,1644598398.109375,P05,D10,1,1,1
1129,-0.25,1644598398.125,P05,D10,1,1,1
1130,-0.35,1644598398.140625,P05,D10,1,1,1
1131,-0.14,1644598398.15625,P05,D10,1,1,1
1132,0.27,1644598398.171875,P05,D10,1,1,1
1133,0.71,1644598398.1875,P05,D10,1,1,1
1134,1.01,1644598398.203125,P05,D10,1,1,1
1135,1.1,1644598398.21875,P05,D10,1,1,1
1136,1.0,1644598398.234375,P05,D10,1,1,1
1137,0.77,1644598398.25,P05,D10,1,1,1
1138,0.49,1644598398.265625,P05,D10,1,1,1
1139,0.21,1644598398.28125,P05,D10,1,1,1
1140,-0.05,1644598398.296875,P05,D10,1,1,1
1141,-0.28,1644598398.3125,P05,D10,1,1,1
1142,-0.43,1644598398.328125,P05,D10,1,1,1
1143,-0.49,1644598398.34375,P05,D10,1,1,1
1144,-0.45,1644598398.359375,P05,D10,1,1,1
1145,-0.32,1644598398.375,P05,D10,1,1,1
1146,-0.2,1644598398.390625,P05,D10,1,1,1
1147,-0.16,1644598398.40625,P05,D10,1,1,1
1148,-0.26,1644598398.421875,P05,D10,1,1,1
1149,-0.48,1644598398.4375,P05,D10,1,1,1
1150,-0.72,1644598398.453125,P05,D10,1,1,1
1151,-0.9,1644598398.46875,P05,D10,1,1,1
1152,-0.91,1644598398.484375,P05,D10,1,1,1
1153,-0.76,1644598398.5,P05,D10,1,1,1
1154,-0.5,1644598398.515625,P05,D10,1,1,1
1155,-0.21,1644598398.53125,P05,D10,1,1,1
1156,-0.0,1644598398.546875,P05,D10,1,1,1
1157,0.05,1644598398.5625,P05,D10,1,1,1
1158,-0.06,1644598398.578125,P05,D10,1,1,1
1159,-0.27,1644598398.59375,P05,D10,1,1,1
1160,-0.51,1644598398.609375,P05,D10,1,1,1
1161,-0.66,1644598398.625,P05,D10,1,1,1
1162,-0.64,1644598398.640625,P05,D10,1,1,1
1163,-0.42,1644598398.65625,P05,D10,1,1,1
1164,-0.04,1644598398.671875,P05,D10,1,1,1
1165,0.43,1644598398.6875,P05,D10,1,1,1
1166,0.86,1644598398.703125,P05,D10,1,1,1
1167,1.13,1644598398.71875,P05,D10,1,1,1
1168,1.14,1644598398.734375,P05,D10,1,1,1
1169,0.85,1644598398.75,P05,D10,1,1,1
1170,0.34,1644598398.765625,P05,D10,1,1,1
1171,-0.27,1644598398.78125,P05,D10,1,1,1
1172,-0.81,1644598398.796875,P05,D10,1,1,1
1173,-1.15,1644598398.8125,P05,D10,1,1,1
1174,-1.2,1644598398.828125,P05,D10,1,1,1
1175,-0.97,1644598398.84375,P05,D10,1,1,1
1176,-0.56,1644598398.859375,P05,D10,1,1,1
1177,-0.09,1644598398.875,P05,D10,1,1,1
1178,0.28,1644598398.890625,P05,D10,1,1,1
1179,0.46,1644598398.90625,P05,D10,1,1,1
1180,0.39,1644598398.921875,P05,D10,1,1,1
1181,0.08,1644598398.9375,P05,D10,1,1,1
1182,-0.38,1644598398.953125,P05,D10,1,1,1
1183,-0.84,1644598398.96875,P05,D10,1,1,1
1184,-1.15,1644598398.984375,P05,D10,1,1,1
1185,-1.18,1644598399.0,P05,D10,1,1,1
1186,-0.9,1644598399.015625,P05,D10,1,1,1
1187,-0.41,1644598399.03125,P05,D10,1,1,1
1188,0.15,1644598399.046875,P05,D10,1,1,1
1189,0.59,1644598399.0625,P05,D10,1,1,1
1190,0.81,1644598399.078125,P05,D10,1,1,1
1191,0.79,1644598399.09375,P05,D10,1,1,1
1192,0.63,1644598399.109375,P05,D10,1,1,1
1193,0.44,1644598399.125,P05,D10,1,1,1
1194,0.33,1644598399.140625,P05,D10,1,1,1
1195,0.31,1644598399.15625,P05,D10,1,1,1
1196,0.34,1644598399.171875,P05,D10,1,1,1
1197,0.37,1644598399.1875,P05,D10,1,1,1
1198,0.34,1644598399.203125,P05,D10,1,1,1
1199,0.27,1644598399.21875,P05,D10,1,1,1
1200,0.19,1644598399.234375,P05,D10,1,1,1
1201,0.12,1644598399.25,P05,D10,1,1,1
1202,0.09,1644598399.265625,P05,D10,1,1,1
1203,0.09,1644598399.28125,P05,D10,1,1,1
1204,0.13,1644598399.296875,P05,D10,1,1,1
1205,0.21,1644598399.3125,P05,D10,1,1,1
1206,0.34,1644598399.328125,P05,D10,1,1,1
1207,0.51,1644598399.34375,P05,D10,1,1,1
1208,0.68,1644598399.359375,P05,D10,1,1,1
1209,0.82,1644598399.375,P05,D10,1,1,1
1210,0.88,1644598399.390625,P05,D10,1,1,1
1211,0.86,1644598399.40625,P05,D10,1,1,1
1212,0.83,1644598399.421875,P05,D10,1,1,1
1213,0.81,1644598399.4375,P05,D10,1,1,1
1214,0.82,1644598399.453125,P05,D10,1,1,1
1215,0.8,1644598399.46875,P05,D10,1,1,1
1216,0.68,1644598399.484375,P05,D10,1,1,1
1217,0.42,1644598399.5,P05,D10,1,1,1
1218,0.02,1644598399.515625,P05,D10,1,1,1
1219,-0.41,1644598399.53125,P05,D10,1,1,1
1220,-0.72,1644598399.546875,P05,D10,1,1,1
1221,-0.8,1644598399.5625,P05,D10,1,1,1
1222,-0.61,1644598399.578125,P05,D10,1,1,1
1223,-0.24,1644598399.59375,P05,D10,1,1,1
1224,0.2,1644598399.609375,P05,D10,1,1,1
1225,0.56,1644598399.625,P05,D10,1,1,1
1226,0.75,1644598399.640625,P05,D10,1,1,1
1227,0.73,1644598399.65625,P05,D10,1,1,1
1228,0.5,1644598399.671875,P05,D10,1,1,1
1229,0.11,1644598399.6875,P05,D10,1,1,1
1230,-0.39,1644598399.703125,P05,D10,1,1,1
1231,-0.92,1644598399.71875,P05,D10,1,1,1
1232,-1.38,1644598399.734375,P05,D10,1,1,1
1233,-1.69,1644598399.75,P05,D10,1,1,1
1234,-1.76,1644598399.765625,P05,D10,1,1,1
1235,-1.57,1644598399.78125,P05,D10,1,1,1
1236,-1.15,1644598399.796875,P05,D10,1,1,1
1237,-0.57,1644598399.8125,P05,D10,1,1,1
1238,0.03,1644598399.828125,P05,D10,1,1,1
1239,0.53,1644598399.84375,P05,D10,1,1,1
1240,0.84,1644598399.859375,P05,D10,1,1,1
1241,0.92,1644598399.875,P05,D10,1,1,1
1242,0.79,1644598399.890625,P05,D10,1,1,1
1243,0.52,1644598399.90625,P05,D10,1,1,1
1244,0.22,1644598399.921875,P05,D10,1,1,1
1245,-0.03,1644598399.9375,P05,D10,1,1,1
1246,-0.2,1644598399.953125,P05,D10,1,1,1
1247,-0.28,1644598399.96875,P05,D10,1,1,1
1248,-0.28,1644598399.984375,P05,D10,1,1,1
1249,-0.2,1644598400.0,P05,D10,1,1,1
1250,-0.06,1644598400.015625,P05,D10,1,1,1
1251,0.13,1644598400.03125,P05,D10,1,1,1
1252,0.32,1644598400.046875,P05,D10,1,1,1
1253,0.44,1644598400.0625,P05,D10,1,1,1
1254,0.45,1644598400.078125,P05,D10,1,1,1
1255,0.41,1644598400.09375,P05,D10,1,1,1
1256,0.37,1644598400.109375,P05,D10,1,1,1
1257,0.42,1644598400.125,P05,D10,1,1,1
1258,0.58,1644598400.140625,P05,D10,1,1,1
1259,0.77,1644598400.15625,P05,D10,1,1,1
1260,0.87,1644598400.171875,P05,D10,1,1,1
1261,0.8,1644598400.1875,P05,D10,1,1,1
1262,0.53,1644598400.203125,P05,D10,1,1,1
1263,0.12,1644598400.21875,P05,D10,1,1,1
1264,-0.32,1644598400.234375,P05,D10,1,1,1
1265,-0.67,1644598400.25,P05,D10,1,1,1
1266,-0.87,1644598400.265625,P05,D10,1,1,1
1267,-0.89,1644598400.28125,P05,D10,1,1,1
1268,-0.73,1644598400.296875,P05,D10,1,1,1
1269,-0.43,1644598400.3125,P05,D10,1,1,1
1270,-0.09,1644598400.328125,P05,D10,1,1,1
1271,0.19,1644598400.34375,P05,D10,1,1,1
1272,0.33,1644598400.359375,P05,D10,1,1,1
1273,0.3,1644598400.375,P05,D10,1,1,1
1274,0.18,1644598400.390625,P05,D10,1,1,1
1275,0.08,1644598400.40625,P05,D10,1,1,1
1276,0.11,1644598400.421875,P05,D10,1,1,1
1277,0.28,1644598400.4375,P05,D10,1,1,1
1278,0.49,1644598400.453125,P05,D10,1,1,1
1279,0.59,1644598400.46875,P05,D10,1,1,1
1280,0.49,1644598400.484375,P05,D10,1,1,1
1281,0.17,1644598400.5,P05,D10,1,1,1
1282,-0.25,1644598400.515625,P05,D10,1,1,1
1283,-0.61,1644598400.53125,P05,D10,1,1,1
1284,-0.78,1644598400.546875,P05,D10,1,1,1
1285,-0.76,1644598400.5625,P05,D10,1,1,1
1286,-0.64,1644598400.578125,P05,D10,1,1,1
1287,-0.54,1644598400.59375,P05,D10,1,1,1
1288,-0.56,1644598400.609375,P05,D10,1,1,1
1289,-0.65,1644598400.625,P05,D10,1,1,1
1290,-0.75,1644598400.640625,P05,D10,1,1,1
1291,-0.74,1644598400.65625,P05,D10,1,1,1
1292,-0.63,1644598400.671875,P05,D10,1,1,1
1293,-0.47,1644598400.6875,P05,D10,1,1,1
1294,-0.35,1644598400.703125,P05,D10,1,1,1
1295,-0.33,1644598400.71875,P05,D10,1,1,1
1296,-0.38,1644598400.734375,P05,D10,1,1,1
1297,-0.4,1644598400.75,P05,D10,1,1,1
1298,-0.3,1644598400.765625,P05,D10,1,1,1
1299,-0.08,1644598400.78125,P05,D10,1,1,1
1300,0.2,1644598400.796875,P05,D10,1,1,1
1301,0.39,1644598400.8125,P05,D10,1,1,1
1302,0.4,1644598400.828125,P05,D10,1,1,1
1303,0.21,1644598400.84375,P05,D10,1,1,1
1304,-0.09,1644598400.859375,P05,D10,1,1,1
1305,-0.36,1644598400.875,P05,D10,1,1,1
1306,-0.5,1644598400.890625,P05,D10,1,1,1
1307,-0.47,1644598400.90625,P05,D10,1,1,1
1308,-0.3,1644598400.921875,P05,D10,1,1,1
1309,-0.07,1644598400.9375,P05,D10,1,1,1
1310,0.2,1644598400.953125,P05,D10,1,1,1
1311,0.5,1644598400.96875,P05,D10,1,1,1
1312,0.84,1644598400.984375,P05,D10,1,1,1
1313,1.18,1644598401.0,P05,D10,1,1,1
1314,1.42,1644598401.015625,P05,D10,1,1,1
1315,1.44,1644598401.03125,P05,D10,1,1,1
1316,1.18,1644598401.046875,P05,D10,1,1,1
1317,0.7,1644598401.0625,P05,D10,1,1,1
1318,0.14,1644598401.078125,P05,D10,1,1,1
1319,-0.3,1644598401.09375,P05,D10,1,1,1
1320,-0.49,1644598401.109375,P05,D10,1,1,1
1321,-0.41,1644598401.125,P05,D10,1,1,1
1322,-0.19,1644598401.140625,P05,D10,1,1,1
1323,0.03,1644598401.15625,P05,D10,1,1,1
1324,0.12,1644598401.171875,P05,D10,1,1,1
1325,0.04,1644598401.1875,P05,D10,1,1,1
1326,-0.14,1644598401.203125,P05,D10,1,1,1
1327,-0.32,1644598401.21875,P05,D10,1,1,1
1328,-0.41,1644598401.234375,P05,D10,1,1,1
1329,-0.37,1644598401.25,P05,D10,1,1,1
1330,-0.22,1644598401.265625,P05,D10,1,1,1
1331,-0.03,1644598401.28125,P05,D10,1,1,1
1332,0.12,1644598401.296875,P05,D10,1,1,1
1333,0.19,1644598401.3125,P05,D10,1,1,1
1334,0.16,1644598401.328125,P05,D10,1,1,1
1335,0.03,1644598401.34375,P05,D10,1,1,1
1336,-0.13,1644598401.359375,P05,D10,1,1,1
1337,-0.29,1644598401.375,P05,D10,1,1,1
1338,-0.45,1644598401.390625,P05,D10,1,1,1
1339,-0.58,1644598401.40625,P05,D10,1,1,1
1340,-0.69,1644598401.421875,P05,D10,1,1,1
1341,-0.78,1644598401.4375,P05,D10,1,1,1
1342,-0.81,1644598401.453125,P05,D10,1,1,1
1343,-0.78,1644598401.46875,P05,D10,1,1,1
1344,-0.7,1644598401.484375,P05,D10,1,1,1
1345,-0.63,1644598401.5,P05,D10,1,1,1
1346,-0.57,1644598401.515625,P05,D10,1,1,1
1347,-0.53,1644598401.53125,P05,D10,1,1,1
1348,-0.44,1644598401.546875,P05,D10,1,1,1
1349,-0.29,1644598401.5625,P05,D10,1,1,1
1350,-0.03,1644598401.578125,P05,D10,1,1,1
1351,0.25,1644598401.59375,P05,D10,1,1,1
1352,0.48,1644598401.609375,P05,D10,1,1,1
1353,0.58,1644598401.625,P05,D10,1,1,1
1354,0.54,1644598401.640625,P05,D10,1,1,1
1355,0.42,1644598401.65625,P05,D10,1,1,1
1356,0.32,1644598401.671875,P05,D10,1,1,1
1357,0.3,1644598401.6875,P05,D10,1,1,1
1358,0.36,1644598401.703125,P05,D10,1,1,1
1359,0.44,1644598401.71875,P05,D10,1,1,1
1360,0.45,1644598401.734375,P05,D10,1,1,1
1361,0.39,1644598401.75,P05,D10,1,1,1
1362,0.28,1644598401.765625,P05,D10,1,1,1
1363,0.18,1644598401.78125,P05,D10,1,1,1
1364,0.12,1644598401.796875,P05,D10,1,1,1
1365,0.05,1644598401.8125,P05,D10,1,1,1
1366,-0.08,1644598401.828125,P05,D10,1,1,1
1367,-0.32,1644598401.84375,P05,D10,1,1,1
1368,-0.59,1644598401.859375,P05,D10,1,1,1
1369,-0.75,1644598401.875,P05,D10,1,1,1
1370,-0.67,1644598401.890625,P05,D10,1,1,1
1371,-0.31,1644598401.90625,P05,D10,1,1,1
1372,0.22,1644598401.921875,P05,D10,1,1,1
1373,0.68,1644598401.9375,P05,D10,1,1,1
1374,0.87,1644598401.953125,P05,D10,1,1,1
1375,0.71,1644598401.96875,P05,D10,1,1,1
1376,0.27,1644598401.984375,P05,D10,1,1,1
1377,-0.24,1644598402.0,P05,D10,1,1,1
1378,-0.64,1644598402.015625,P05,D10,1,1,1
1379,-0.8,1644598402.03125,P05,D10,1,1,1
1380,-0.73,1644598402.046875,P05,D10,1,1,1
1381,-0.55,1644598402.0625,P05,D10,1,1,1
1382,-0.36,1644598402.078125,P05,D10,1,1,1
1383,-0.2,1644598402.09375,P05,D10,1,1,1
1384,-0.09,1644598402.109375,P05,D10,1,1,1
1385,0.03,1644598402.125,P05,D10,1,1,1
1386,0.17,1644598402.140625,P05,D10,1,1,1
1387,0.32,1644598402.15625,P05,D10,1,1,1
1388,0.45,1644598402.171875,P05,D10,1,1,1
1389,0.52,1644598402.1875,P05,D10,1,1,1
1390,0.51,1644598402.203125,P05,D10,1,1,1
1391,0.44,1644598402.21875,P05,D10,1,1,1
1392,0.36,1644598402.234375,P05,D10,1,1,1
1393,0.32,1644598402.25,P05,D10,1,1,1
1394,0.35,1644598402.265625,P05,D10,1,1,1
1395,0.46,1644598402.28125,P05,D10,1,1,1
1396,0.6,1644598402.296875,P05,D10,1,1,1
1397,0.71,1644598402.3125,P05,D10,1,1,1
1398,0.74,1644598402.328125,P05,D10,1,1,1
1399,0.66,1644598402.34375,P05,D10,1,1,1
1400,0.49,1644598402.359375,P05,D10,1,1,1
1401,0.28,1644598402.375,P05,D10,1,1,1
1402,0.08,1644598402.390625,P05,D10,1,1,1
1403,-0.05,1644598402.40625,P05,D10,1,1,1
1404,-0.11,1644598402.421875,P05,D10,1,1,1
1405,-0.12,1644598402.4375,P05,D10,1,1,1
1406,-0.15,1644598402.453125,P05,D10,1,1,1
1407,-0.22,1644598402.46875,P05,D10,1,1,1
1408,-0.36,1644598402.484375,P05,D10,1,1,1
1409,-0.54,1644598402.5,P05,D10,1,1,1
1410,-0.73,1644598402.515625,P05,D10,1,1,1
1411,-0.86,1644598402.53125,P05,D10,1,1,1
1412,-0.9,1644598402.546875,P05,D10,1,1,1
1413,-0.83,1644598402.5625,P05,D10,1,1,1
1414,-0.67,1644598402.578125,P05,D10,1,1,1
1415,-0.45,1644598402.59375,P05,D10,1,1,1
1416,-0.24,1644598402.609375,P05,D10,1,1,1
1417,-0.08,1644598402.625,P05,D10,1,1,1
1418,-0.0,1644598402.640625,P05,D10,1,1,1
1419,-0.01,1644598402.65625,P05,D10,1,1,1
1420,-0.06,1644598402.671875,P05,D10,1,1,1
1421,-0.12,1644598402.6875,P05,D10,1,1,1
1422,-0.13,1644598402.703125,P05,D10,1,1,1
1423,-0.11,1644598402.71875,P05,D10,1,1,1
1424,-0.07,1644598402.734375,P05,D10,1,1,1
1425,-0.04,1644598402.75,P05,D10,1,1,1
1426,-0.07,1644598402.765625,P05,D10,1,1,1
1427,-0.12,1644598402.78125,P05,D10,1,1,1
1428,-0.18,1644598402.796875,P05,D10,1,1,1
1429,-0.21,1644598402.8125,P05,D10,1,1,1
1430,-0.22,1644598402.828125,P05,D10,1,1,1
1431,-0.21,1644598402.84375,P05,D10,1,1,1
1432,-0.23,1644598402.859375,P05,D10,1,1,1
1433,-0.26,1644598402.875,P05,D10,1,1,1
1434,-0.28,1644598402.890625,P05,D10,1,1,1
1435,-0.22,1644598402.90625,P05,D10,1,1,1
1436,-0.05,1644598402.921875,P05,D10,1,1,1
1437,0.26,1644598402.9375,P05,D10,1,1,1
1438,0.63,1644598402.953125,P05,D10,1,1,1
1439,0.95,1644598402.96875,P05,D10,1,1,1
1440,1.11,1644598402.984375,P05,D10,1,1,1
1441,1.04,1644598403.0,P05,D10,1,1,1
1442,0.75,1644598403.015625,P05,D10,1,1,1
1443,0.38,1644598403.03125,P05,D10,1,1,1
1444,0.08,1644598403.046875,P05,D10,1,1,1
1445,-0.03,1644598403.0625,P05,D10,1,1,1
1446,0.08,1644598403.078125,P05,D10,1,1,1
1447,0.32,1644598403.09375,P05,D10,1,1,1
1448,0.55,1644598403.109375,P05,D10,1,1,1
1449,0.63,1644598403.125,P05,D10,1,1,1
1450,0.52,1644598403.140625,P05,D10,1,1,1
1451,0.26,1644598403.15625,P05,D10,1,1,1
1452,-0.01,1644598403.171875,P05,D10,1,1,1
1453,-0.19,1644598403.1875,P05,D10,1,1,1
1454,-0.24,1644598403.203125,P05,D10,1,1,1
1455,-0.19,1644598403.21875,P05,D10,1,1,1
1456,-0.1,1644598403.234375,P05,D10,1,1,1
1457,0.0,1644598403.25,P05,D10,1,1,1
1458,0.1,1644598403.265625,P05,D10,1,1,1
1459,0.22,1644598403.28125,P05,D10,1,1,1
1460,0.36,1644598403.296875,P05,D10,1,1,1
1461,0.47,1644598403.3125,P05,D10,1,1,1
1462,0.51,1644598403.328125,P05,D10,1,1,1
1463,0.45,1644598403.34375,P05,D10,1,1,1
1464,0.32,1644598403.359375,P05,D10,1,1,1
1465,0.19,1644598403.375,P05,D10,1,1,1
1466,0.12,1644598403.390625,P05,D10,1,1,1
1467,0.13,1644598403.40625,P05,D10,1,1,1
1468,0.21,1644598403.421875,P05,D10,1,1,1
1469,0.32,1644598403.4375,P05,D10,1,1,1
1470,0.43,1644598403.453125,P05,D10,1,1,1
1471,0.54,1644598403.46875,P05,D10,1,1,1
1472,0.68,1644598403.484375,P05,D10,1,1,1
1473,0.84,1644598403.5,P05,D10,1,1,1
1474,0.95,1644598403.515625,P05,D10,1,1,1
1475,0.95,1644598403.53125,P05,D10,1,1,1
1476,0.78,1644598403.546875,P05,D10,1,1,1
1477,0.43,1644598403.5625,P05,D10,1,1,1
1478,-0.0,1644598403.578125,P05,D10,1,1,1
1479,-0.38,1644598403.59375,P05,D10,1,1,1
1480,-0.62,1644598403.609375,P05,D10,1,1,1
1481,-0.66,1644598403.625,P05,D10,1,1,1
1482,-0.56,1644598403.640625,P05,D10,1,1,1
1483,-0.42,1644598403.65625,P05,D10,1,1,1
1484,-0.36,1644598403.671875,P05,D10,1,1,1
1485,-0.43,1644598403.6875,P05,D10,1,1,1
1486,-0.61,1644598403.703125,P05,D10,1,1,1
1487,-0.82,1644598403.71875,P05,D10,1,1,1
1488,-0.92,1644598403.734375,P05,D10,1,1,1
1489,-0.82,1644598403.75,P05,D10,1,1,1
1490,-0.5,1644598403.765625,P05,D10,1,1,1
1491,-0.08,1644598403.78125,P05,D10,1,1,1
1492,0.28,1644598403.796875,P05,D10,1,1,1
1493,0.42,1644598403.8125,P05,D10,1,1,1
1494,0.27,1644598403.828125,P05,D10,1,1,1
1495,-0.1,1644598403.84375,P05,D10,1,1,1
1496,-0.52,1644598403.859375,P05,D10,1,1,1
1497,-0.84,1644598403.875,P05,D10,1,1,1
1498,-0.95,1644598403.890625,P05,D10,1,1,1
1499,-0.86,1644598403.90625,P05,D10,1,1,1
1500,-0.67,1644598403.921875,P05,D10,1,1,1
1501,-0.51,1644598403.9375,P05,D10,1,1,1
1502,-0.43,1644598403.953125,P05,D10,1,1,1
1503,-0.41,1644598403.96875,P05,D10,1,1,1
1504,-0.39,1644598403.984375,P05,D10,1,1,1
1505,-0.31,1644598404.0,P05,D10,1,1,1
1506,-0.17,1644598404.015625,P05,D10,1,1,1
1507,-0.03,1644598404.03125,P05,D10,1,1,1
1508,0.06,1644598404.046875,P05,D10,1,1,1
1509,0.05,1644598404.0625,P05,D10,1,1,1
1510,-0.03,1644598404.078125,P05,D10,1,1,1
1511,-0.09,1644598404.09375,P05,D10,1,1,1
1512,-0.09,1644598404.109375,P05,D10,1,1,1
1513,-0.05,1644598404.125,P05,D10,1,1,1
1514,-0.03,1644598404.140625,P05,D10,1,1,1
1515,-0.09,1644598404.15625,P05,D10,1,1,1
1516,-0.27,1644598404.171875,P05,D10,1,1,1
1517,-0.53,1644598404.1875,P05,D10,1,1,1
1518,-0.79,1644598404.203125,P05,D10,1,1,1
1519,-0.98,1644598404.21875,P05,D10,1,1,1
1520,-1.03,1644598404.234375,P05,D10,1,1,1
1521,-0.97,1644598404.25,P05,D10,1,1,1
1522,-0.79,1644598404.265625,P05,D10,1,1,1
1523,-0.57,1644598404.28125,P05,D10,1,1,1
1524,-0.34,1644598404.296875,P05,D10,1,1,1
1525,-0.16,1644598404.3125,P05,D10,1,1,1
1526,-0.07,1644598404.328125,P05,D10,1,1,1
1527,-0.07,1644598404.34375,P05,D10,1,1,1
1528,-0.13,1644598404.359375,P05,D10,1,1,1
1529,-0.22,1644598404.375,P05,D10,1,1,1
1530,-0.27,1644598404.390625,P05,D10,1,1,1
1531,-0.24,1644598404.40625,P05,D10,1,1,1
1532,-0.12,1644598404.421875,P05,D10,1,1,1
1533,0.06,1644598404.4375,P05,D10,1,1,1
1534,0.25,1644598404.453125,P05,D10,1,1,1
1535,0.4,1644598404.46875,P05,D10,1,1,1
1536,0.47,1644598404.484375,P05,D10,1,1,1
1537,0.46,1644598404.5,P05,D10,1,1,1
1538,0.36,1644598404.515625,P05,D10,1,1,1
1539,0.24,1644598404.53125,P05,D10,1,1,1
1540,0.13,1644598404.546875,P05,D10,1,1,1
1541,0.07,1644598404.5625,P05,D10,1,1,1
1542,0.07,1644598404.578125,P05,D10,1,1,1
1543,0.14,1644598404.59375,P05,D10,1,1,1
1544,0.24,1644598404.609375,P05,D10,1,1,1
1545,0.38,1644598404.625,P05,D10,1,1,1
1546,0.56,1644598404.640625,P05,D10,1,1,1
1547,0.74,1644598404.65625,P05,D10,1,1,1
1548,0.91,1644598404.671875,P05,D10,1,1,1
1549,1.02,1644598404.6875,P05,D10,1,1,1
1550,1.05,1644598404.703125,P05,D10,1,1,1
1551,0.99,1644598404.71875,P05,D10,1,1,1
1552,0.86,1644598404.734375,P05,D10,1,1,1
1553,0.73,1644598404.75,P05,D10,1,1,1
1554,0.62,1644598404.765625,P05,D10,1,1,1
1555,0.57,1644598404.78125,P05,D10,1,1,1
1556,0.61,1644598404.796875,P05,D10,1,1,1
1557,0.75,1644598404.8125,P05,D10,1,1,1
1558,0.99,1644598404.828125,P05,D10,1,1,1
1559,1.25,1644598404.84375,P05,D10,1,1,1
1560,1.46,1644598404.859375,P05,D10,1,1,1
1561,1.51,1644598404.875,P05,D10,1,1,1
1562,1.34,1644598404.890625,P05,D10,1,1,1
1563,0.97,1644598404.90625,P05,D10,1,1,1
1564,0.52,1644598404.921875,P05,D10,1,1,1
1565,0.1,1644598404.9375,P05,D10,1,1,1
1566,-0.18,1644598404.953125,P05,D10,1,1,1
1567,-0.3,1644598404.96875,P05,D10,1,1,1
1568,-0.33,1644598404.984375,P05,D10,1,1,1
1569,-0.35,1644598405.0,P05,D10,1,1,1
1570,-0.42,1644598405.015625,P05,D10,1,1,1
1571,-0.59,1644598405.03125,P05,D10,1,1,1
1572,-0.85,1644598405.046875,P05,D10,1,1,1
1573,-1.12,1644598405.0625,P05,D10,1,1,1
1574,-1.35,1644598405.078125,P05,D10,1,1,1
1575,-1.46,1644598405.09375,P05,D10,1,1,1
1576,-1.43,1644598405.109375,P05,D10,1,1,1
1577,-1.27,1644598405.125,P05,D10,1,1,1
1578,-1.0,1644598405.140625,P05,D10,1,1,1
1579,-0.69,1644598405.15625,P05,D10,1,1,1
1580,-0.42,1644598405.171875,P05,D10,1,1,1
1581,-0.21,1644598405.1875,P05,D10,1,1,1
1582,-0.07,1644598405.203125,P05,D10,1,1,1
1583,0.04,1644598405.21875,P05,D10,1,1,1
1584,0.14,1644598405.234375,P05,D10,1,1,1
1585,0.23,1644598405.25,P05,D10,1,1,1
1586,0.32,1644598405.265625,P05,D10,1,1,1
1587,0.38,1644598405.28125,P05,D10,1,1,1
1588,0.41,1644598405.296875,P05,D10,1,1,1
1589,0.43,1644598405.3125,P05,D10,1,1,1
1590,0.46,1644598405.328125,P05,D10,1,1,1
1591,0.5,1644598405.34375,P05,D10,1,1,1
1592,0.56,1644598405.359375,P05,D10,1,1,1
1593,0.6,1644598405.375,P05,D10,1,1,1
1594,0.61,1644598405.390625,P05,D10,1,1,1
1595,0.55,1644598405.40625,P05,D10,1,1,1
1596,0.43,1644598405.421875,P05,D10,1,1,1
1597,0.26,1644598405.4375,P05,D10,1,1,1
1598,0.09,1644598405.453125,P05,D10,1,1,1
1599,-0.02,1644598405.46875,P05,D10,1,1,1
1600,-0.04,1644598405.484375,P05,D10,1,1,1
1601,0.01,1644598405.5,P05,D10,1,1,1
1602,0.05,1644598405.515625,P05,D10,1,1,1
1603,0.04,1644598405.53125,P05,D10,1,1,1
1604,-0.06,1644598405.546875,P05,D10,1,1,1
1605,-0.19,1644598405.5625,P05,D10,1,1,1
1606,-0.27,1644598405.578125,P05,D10,1,1,1
1607,-0.25,1644598405.59375,P05,D10,1,1,1
1608,-0.13,1644598405.609375,P05,D10,1,1,1
1609,-0.03,1644598405.625,P05,D10,1,1,1
1610,-0.05,1644598405.640625,P05,D10,1,1,1
1611,-0.22,1644598405.65625,P05,D10,1,1,1
1612,-0.47,1644598405.671875,P05,D10,1,1,1
1613,-0.62,1644598405.6875,P05,D10,1,1,1
1614,-0.54,1644598405.703125,P05,D10,1,1,1
1615,-0.18,1644598405.71875,P05,D10,1,1,1
1616,0.33,1644598405.734375,P05,D10,1,1,1
1617,0.78,1644598405.75,P05,D10,1,1,1
1618,0.97,1644598405.765625,P05,D10,1,1,1
1619,0.81,1644598405.78125,P05,D10,1,1,1
1620,0.36,1644598405.796875,P05,D10,1,1,1
1621,-0.17,1644598405.8125,P05,D10,1,1,1
1622,-0.61,1644598405.828125,P05,D10,1,1,1
1623,-0.79,1644598405.84375,P05,D10,1,1,1
1624,-0.72,1644598405.859375,P05,D10,1,1,1
1625,-0.46,1644598405.875,P05,D10,1,1,1
1626,-0.15,1644598405.890625,P05,D10,1,1,1
1627,0.09,1644598405.90625,P05,D10,1,1,1
1628,0.19,1644598405.921875,P05,D10,1,1,1
1629,0.15,1644598405.9375,P05,D10,1,1,1
1630,-0.01,1644598405.953125,P05,D10,1,1,1
1631,-0.22,1644598405.96875,P05,D10,1,1,1
1632,-0.38,1644598405.984375,P05,D10,1,1,1
1633,-0.49,1644598406.0,P05,D10,1,1,1
1634,-0.53,1644598406.015625,P05,D10,1,1,1
1635,-0.53,1644598406.03125,P05,D10,1,1,1
1636,-0.54,1644598406.046875,P05,D10,1,1,1
1637,-0.57,1644598406.0625,P05,D10,1,1,1
1638,-0.61,1644598406.078125,P05,D10,1,1,1
1639,-0.63,1644598406.09375,P05,D10,1,1,1
1640,-0.64,1644598406.109375,P05,D10,1,1,1
1641,-0.64,1644598406.125,P05,D10,1,1,1
1642,-0.65,1644598406.140625,P05,D10,1,1,1
1643,-0.65,1644598406.15625,P05,D10,1,1,1
1644,-0.65,1644598406.171875,P05,D10,1,1,1
1645,-0.59,1644598406.1875,P05,D10,1,1,1
1646,-0.48,1644598406.203125,P05,D10,1,1,1
1647,-0.35,1644598406.21875,P05,D10,1,1,1
1648,-0.28,1644598406.234375,P05,D10,1,1,1
1649,-0.29,1644598406.25,P05,D10,1,1,1
1650,-0.37,1644598406.265625,P05,D10,1,1,1
1651,-0.42,1644598406.28125,P05,D10,1,1,1
1652,-0.34,1644598406.296875,P05,D10,1,1,1
1653,-0.06,1644598406.3125,P05,D10,1,1,1
1654,0.35,1644598406.328125,P05,D10,1,1,1
1655,0.75,1644598406.34375,P05,D10,1,1,1
1656,1.0,1644598406.359375,P05,D10,1,1,1
1657,1.01,1644598406.375,P05,D10,1,1,1
1658,0.84,1644598406.390625,P05,D10,1,1,1
1659,0.62,1644598406.40625,P05,D10,1,1,1
1660,0.5,1644598406.421875,P05,D10,1,1,1
1661,0.57,1644598406.4375,P05,D10,1,1,1
1662,0.78,1644598406.453125,P05,D10,1,1,1
1663,0.99,1644598406.46875,P05,D10,1,1,1
1664,1.07,1644598406.484375,P05,D10,1,1,1
1665,0.95,1644598406.5,P05,D10,1,1,1
1666,0.66,1644598406.515625,P05,D10,1,1,1
1667,0.32,1644598406.53125,P05,D10,1,1,1
1668,0.07,1644598406.546875,P05,D10,1,1,1
1669,-0.02,1644598406.5625,P05,D10,1,1,1
1670,0.08,1644598406.578125,P05,D10,1,1,1
1671,0.31,1644598406.59375,P05,D10,1,1,1
1672,0.57,1644598406.609375,P05,D10,1,1,1
1673,0.76,1644598406.625,P05,D10,1,1,1
1674,0.83,1644598406.640625,P05,D10,1,1,1
1675,0.77,1644598406.65625,P05,D10,1,1,1
1676,0.58,1644598406.671875,P05,D10,1,1,1
1677,0.33,1644598406.6875,P05,D10,1,1,1
1678,0.08,1644598406.703125,P05,D10,1,1,1
1679,-0.12,1644598406.71875,P05,D10,1,1,1
1680,-0.22,1644598406.734375,P05,D10,1,1,1
1681,-0.2,1644598406.75,P05,D10,1,1,1
1682,-0.06,1644598406.765625,P05,D10,1,1,1
1683,0.15,1644598406.78125,P05,D10,1,1,1
1684,0.35,1644598406.796875,P05,D10,1,1,1
1685,0.47,1644598406.8125,P05,D10,1,1,1
1686,0.43,1644598406.828125,P05,D10,1,1,1
1687,0.23,1644598406.84375,P05,D10,1,1,1
1688,-0.07,1644598406.859375,P05,D10,1,1,1
1689,-0.39,1644598406.875,P05,D10,1,1,1
1690,-0.62,1644598406.890625,P05,D10,1,1,1
1691,-0.72,1644598406.90625,P05,D10,1,1,1
1692,-0.69,1644598406.921875,P05,D10,1,1,1
1693,-0.55,1644598406.9375,P05,D10,1,1,1
1694,-0.38,1644598406.953125,P05,D10,1,1,1
1695,-0.23,1644598406.96875,P05,D10,1,1,1
1696,-0.12,1644598406.984375,P05,D10,1,1,1
1697,-0.09,1644598407.0,P05,D10,1,1,1
1698,-0.12,1644598407.015625,P05,D10,1,1,1
1699,-0.16,1644598407.03125,P05,D10,1,1,1
1700,-0.17,1644598407.046875,P05,D10,1,1,1
1701,-0.13,1644598407.0625,P05,D10,1,1,1
1702,-0.06,1644598407.078125,P05,D10,1,1,1
1703,-0.02,1644598407.09375,P05,D10,1,1,1
1704,-0.06,1644598407.109375,P05,D10,1,1,1
1705,-0.21,1644598407.125,P05,D10,1,1,1
1706,-0.43,1644598407.140625,P05,D10,1,1,1
1707,-0.62,1644598407.15625,P05,D10,1,1,1
1708,-0.73,1644598407.171875,P05,D10,1,1,1
1709,-0.73,1644598407.1875,P05,D10,1,1,1
1710,-0.72,1644598407.203125,P05,D10,1,1,1
1711,-0.81,1644598407.21875,P05,D10,1,1,1
1712,-1.05,1644598407.234375,P05,D10,1,1,1
1713,-1.41,1644598407.25,P05,D10,1,1,1
1714,-1.76,1644598407.265625,P05,D10,1,1,1
1715,-1.95,1644598407.28125,P05,D10,1,1,1
1716,-1.91,1644598407.296875,P05,D10,1,1,1
1717,-1.69,1644598407.3125,P05,D10,1,1,1
1718,-1.37,1644598407.328125,P05,D10,1,1,1
1719,-1.07,1644598407.34375,P05,D10,1,1,1
1720,-0.81,1644598407.359375,P05,D10,1,1,1
1721,-0.57,1644598407.375,P05,D10,1,1,1
1722,-0.27,1644598407.390625,P05,D10,1,1,1
1723,0.06,1644598407.40625,P05,D10,1,1,1
1724,0.36,1644598407.421875,P05,D10,1,1,1
1725,0.54,1644598407.4375,P05,D10,1,1,1
1726,0.51,1644598407.453125,P05,D10,1,1,1
1727,0.27,1644598407.46875,P05,D10,1,1,1
1728,-0.06,1644598407.484375,P05,D10,1,1,1
1729,-0.35,1644598407.5,P05,D10,1,1,1
1730,-0.47,1644598407.515625,P05,D10,1,1,1
1731,-0.35,1644598407.53125,P05,D10,1,1,1
1732,-0.02,1644598407.546875,P05,D10,1,1,1
1733,0.37,1644598407.5625,P05,D10,1,1,1
1734,0.7,1644598407.578125,P05,D10,1,1,1
1735,0.86,1644598407.59375,P05,D10,1,1,1
1736,0.85,1644598407.609375,P05,D10,1,1,1
1737,0.75,1644598407.625,P05,D10,1,1,1
1738,0.67,1644598407.640625,P05,D10,1,1,1
1739,0.67,1644598407.65625,P05,D10,1,1,1
1740,0.74,1644598407.671875,P05,D10,1,1,1
1741,0.84,1644598407.6875,P05,D10,1,1,1
1742,0.9,1644598407.703125,P05,D10,1,1,1
1743,0.91,1644598407.71875,P05,D10,1,1,1
1744,0.94,1644598407.734375,P05,D10,1,1,1
1745,1.04,1644598407.75,P05,D10,1,1,1
1746,1.26,1644598407.765625,P05,D10,1,1,1
1747,1.52,1644598407.78125,P05,D10,1,1,1
1748,1.68,1644598407.796875,P05,D10,1,1,1
1749,1.6,1644598407.8125,P05,D10,1,1,1
1750,1.26,1644598407.828125,P05,D10,1,1,1
1751,0.72,1644598407.84375,P05,D10,1,1,1
1752,0.15,1644598407.859375,P05,D10,1,1,1
1753,-0.28,1644598407.875,P05,D10,1,1,1
1754,-0.47,1644598407.890625,P05,D10,1,1,1
1755,-0.46,1644598407.90625,P05,D10,1,1,1
1756,-0.36,1644598407.921875,P05,D10,1,1,1
1757,-0.29,1644598407.9375,P05,D10,1,1,1
1758,-0.32,1644598407.953125,P05,D10,1,1,1
1759,-0.45,1644598407.96875,P05,D10,1,1,1
1760,-0.59,1644598407.984375,P05,D10,1,1,1
1761,-0.64,1644598408.0,P05,D10,1,1,1
1762,-0.57,1644598408.015625,P05,D10,1,1,1
1763,-0.38,1644598408.03125,P05,D10,1,1,1
1764,-0.11,1644598408.046875,P05,D10,1,1,1
1765,0.15,1644598408.0625,P05,D10,1,1,1
1766,0.35,1644598408.078125,P05,D10,1,1,1
1767,0.44,1644598408.09375,P05,D10,1,1,1
1768,0.39,1644598408.109375,P05,D10,1,1,1
1769,0.19,1644598408.125,P05,D10,1,1,1
1770,-0.08,1644598408.140625,P05,D10,1,1,1
1771,-0.34,1644598408.15625,P05,D10,1,1,1
1772,-0.49,1644598408.171875,P05,D10,1,1,1
1773,-0.46,1644598408.1875,P05,D10,1,1,1
1774,-0.29,1644598408.203125,P05,D10,1,1,1
1775,-0.03,1644598408.21875,P05,D10,1,1,1
1776,0.21,1644598408.234375,P05,D10,1,1,1
1777,0.36,1644598408.25,P05,D10,1,1,1
1778,0.44,1644598408.265625,P05,D10,1,1,1
1779,0.49,1644598408.28125,P05,D10,1,1,1
1780,0.6,1644598408.296875,P05,D10,1,1,1
1781,0.78,1644598408.3125,P05,D10,1,1,1
1782,0.99,1644598408.328125,P05,D10,1,1,1
1783,1.13,1644598408.34375,P05,D10,1,1,1
1784,1.16,1644598408.359375,P05,D10,1,1,1
1785,1.05,1644598408.375,P05,D10,1,1,1
1786,0.83,1644598408.390625,P05,D10,1,1,1
1787,0.57,1644598408.40625,P05,D10,1,1,1
1788,0.29,1644598408.421875,P05,D10,1,1,1
1789,-0.01,1644598408.4375,P05,D10,1,1,1
1790,-0.35,1644598408.453125,P05,D10,1,1,1
1791,-0.74,1644598408.46875,P05,D10,1,1,1
1792,-1.11,1644598408.484375,P05,D10,1,1,1
1793,-1.38,1644598408.5,P05,D10,1,1,1
1794,-1.49,1644598408.515625,P05,D10,1,1,1
1795,-1.4,1644598408.53125,P05,D10,1,1,1
1796,-1.19,1644598408.546875,P05,D10,1,1,1
1797,-0.97,1644598408.5625,P05,D10,1,1,1
1798,-0.83,1644598408.578125,P05,D10,1,1,1
1799,-0.78,1644598408.59375,P05,D10,1,1,1
1800,-0.79,1644598408.609375,P05,D10,1,1,1
1801,-0.77,1644598408.625,P05,D10,1,1,1
1802,-0.67,1644598408.640625,P05,D10,1,1,1
1803,-0.5,1644598408.65625,P05,D10,1,1,1
1804,-0.32,1644598408.671875,P05,D10,1,1,1
1805,-0.17,1644598408.6875,P05,D10,1,1,1
1806,-0.1,1644598408.703125,P05,D10,1,1,1
1807,-0.08,1644598408.71875,P05,D10,1,1,1
1808,-0.07,1644598408.734375,P05,D10,1,1,1
1809,-0.05,1644598408.75,P05,D10,1,1,1
1810,-0.04,1644598408.765625,P05,D10,1,1,1
1811,-0.04,1644598408.78125,P05,D10,1,1,1
1812,-0.03,1644598408.796875,P05,D10,1,1,1
1813,0.03,1644598408.8125,P05,D10,1,1,1
1814,0.2,1644598408.828125,P05,D10,1,1,1
1815,0.49,1644598408.84375,P05,D10,1,1,1
1816,0.83,1644598408.859375,P05,D10,1,1,1
1817,1.09,1644598408.875,P05,D10,1,1,1
1818,1.12,1644598408.890625,P05,D10,1,1,1
1819,0.91,1644598408.90625,P05,D10,1,1,1
1820,0.55,1644598408.921875,P05,D10,1,1,1
1821,0.21,1644598408.9375,P05,D10,1,1,1
1822,0.07,1644598408.953125,P05,D10,1,1,1
1823,0.18,1644598408.96875,P05,D10,1,1,1
1824,0.47,1644598408.984375,P05,D10,1,1,1
1825,0.78,1644598409.0,P05,D10,1,1,1
1826,0.98,1644598409.015625,P05,D10,1,1,1
1827,1.01,1644598409.03125,P05,D10,1,1,1
1828,0.89,1644598409.046875,P05,D10,1,1,1
1829,0.7,1644598409.0625,P05,D10,1,1,1
1830,0.46,1644598409.078125,P05,D10,1,1,1
1831,0.18,1644598409.09375,P05,D10,1,1,1
1832,-0.15,1644598409.109375,P05,D10,1,1,1
1833,-0.49,1644598409.125,P05,D10,1,1,1
1834,-0.79,1644598409.140625,P05,D10,1,1,1
1835,-0.97,1644598409.15625,P05,D10,1,1,1
1836,-1.01,1644598409.171875,P05,D10,1,1,1
1837,-0.95,1644598409.1875,P05,D10,1,1,1
1838,-0.83,1644598409.203125,P05,D10,1,1,1
1839,-0.71,1644598409.21875,P05,D10,1,1,1
1840,-0.57,1644598409.234375,P05,D10,1,1,1
1841,-0.39,1644598409.25,P05,D10,1,1,1
1842,-0.14,1644598409.265625,P05,D10,1,1,1
1843,0.14,1644598409.28125,P05,D10,1,1,1
1844,0.45,1644598409.296875,P05,D10,1,1,1
1845,0.75,1644598409.3125,P05,D10,1,1,1
1846,1.03,1644598409.328125,P05,D10,1,1,1
1847,1.29,1644598409.34375,P05,D10,1,1,1
1848,1.51,1644598409.359375,P05,D10,1,1,1
1849,1.59,1644598409.375,P05,D10,1,1,1
1850,1.45,1644598409.390625,P05,D10,1,1,1
1851,1.03,1644598409.40625,P05,D10,1,1,1
1852,0.37,1644598409.421875,P05,D10,1,1,1
1853,-0.39,1644598409.4375,P05,D10,1,1,1
1854,-1.08,1644598409.453125,P05,D10,1,1,1
1855,-1.53,1644598409.46875,P05,D10,1,1,1
1856,-1.67,1644598409.484375,P05,D10,1,1,1
1857,-1.5,1644598409.5,P05,D10,1,1,1
1858,-1.13,1644598409.515625,P05,D10,1,1,1
1859,-0.65,1644598409.53125,P05,D10,1,1,1
1860,-0.19,1644598409.546875,P05,D10,1,1,1
1861,0.15,1644598409.5625,P05,D10,1,1,1
1862,0.32,1644598409.578125,P05,D10,1,1,1
1863,0.3,1644598409.59375,P05,D10,1,1,1
1864,0.11,1644598409.609375,P05,D10,1,1,1
1865,-0.15,1644598409.625,P05,D10,1,1,1
1866,-0.41,1644598409.640625,P05,D10,1,1,1
1867,-0.57,1644598409.65625,P05,D10,1,1,1
1868,-0.6,1644598409.671875,P05,D10,1,1,1
1869,-0.49,1644598409.6875,P05,D10,1,1,1
1870,-0.3,1644598409.703125,P05,D10,1,1,1
1871,-0.07,1644598409.71875,P05,D10,1,1,1
1872,0.13,1644598409.734375,P05,D10,1,1,1
1873,0.27,1644598409.75,P05,D10,1,1,1
1874,0.35,1644598409.765625,P05,D10,1,1,1
1875,0.32,1644598409.78125,P05,D10,1,1,1
1876,0.22,1644598409.796875,P05,D10,1,1,1
1877,0.07,1644598409.8125,P05,D10,1,1,1
1878,-0.08,1644598409.828125,P05,D10,1,1,1
1879,-0.15,1644598409.84375,P05,D10,1,1,1
1880,-0.09,1644598409.859375,P05,D10,1,1,1
1881,0.1,1644598409.875,P05,D10,1,1,1
1882,0.39,1644598409.890625,P05,D10,1,1,1
1883,0.68,1644598409.90625,P05,D10,1,1,1
1884,0.92,1644598409.921875,P05,D10,1,1,1
1885,1.06,1644598409.9375,P05,D10,1,1,1
1886,1.1,1644598409.953125,P05,D10,1,1,1
1887,1.05,1644598409.96875,P05,D10,1,1,1
1888,0.92,1644598409.984375,P05,D10,1,1,1
1889,0.71,1644598410.0,P05,D10,1,1,1
1890,0.44,1644598410.015625,P05,D10,1,1,1
1891,0.16,1644598410.03125,P05,D10,1,1,1
1892,-0.07,1644598410.046875,P05,D10,1,1,1
1893,-0.18,1644598410.0625,P05,D10,1,1,1
1894,-0.16,1644598410.078125,P05,D10,1,1,1
1895,-0.04,1644598410.09375,P05,D10,1,1,1
1896,0.08,1644598410.109375,P05,D10,1,1,1
1897,0.1,1644598410.125,P05,D10,1,1,1
1898,-0.07,1644598410.140625,P05,D10,1,1,1
1899,-0.43,1644598410.15625,P05,D10,1,1,1
1900,-0.93,1644598410.171875,P05,D10,1,1,1
1901,-1.43,1644598410.1875,P05,D10,1,1,1
1902,-1.76,1644598410.203125,P05,D10,1,1,1
1903,-1.8,1644598410.21875,P05,D10,1,1,1
1904,-1.52,1644598410.234375,P05,D10,1,1,1
1905,-1.01,1644598410.25,P05,D10,1,1,1
1906,-0.44,1644598410.265625,P05,D10,1,1,1
1907,0.01,1644598410.28125,P05,D10,1,1,1
1908,0.23,1644598410.296875,P05,D10,1,1,1
1909,0.24,1644598410.3125,P05,D10,1,1,1
1910,0.13,1644598410.328125,P05,D10,1,1,1
1911,0.08,1644598410.34375,P05,D10,1,1,1
1912,0.19,1644598410.359375,P05,D10,1,1,1
1913,0.47,1644598410.375,P05,D10,1,1,1
1914,0.83,1644598410.390625,P05,D10,1,1,1
1915,1.12,1644598410.40625,P05,D10,1,1,1
1916,1.21,1644598410.421875,P05,D10,1,1,1
1917,1.06,1644598410.4375,P05,D10,1,1,1
1918,0.71,1644598410.453125,P05,D10,1,1,1
1919,0.27,1644598410.46875,P05,D10,1,1,1
1920,-0.12,1644598410.484375,P05,D10,1,1,1
1921,-0.36,1644598410.5,P05,D10,1,1,1
1922,-0.44,1644598410.515625,P05,D10,1,1,1
1923,-0.38,1644598410.53125,P05,D10,1,1,1
1924,-0.26,1644598410.546875,P05,D10,1,1,1
1925,-0.18,1644598410.5625,P05,D10,1,1,1
1926,-0.19,1644598410.578125,P05,D10,1,1,1
1927,-0.29,1644598410.59375,P05,D10,1,1,1
1928,-0.46,1644598410.609375,P05,D10,1,1,1
1929,-0.62,1644598410.625,P05,D10,1,1,1
1930,-0.73,1644598410.640625,P05,D10,1,1,1
1931,-0.78,1644598410.65625,P05,D10,1,1,1
1932,-0.81,1644598410.671875,P05,D10,1,1,1
1933,-0.84,1644598410.6875,P05,D10,1,1,1
1934,-0.88,1644598410.703125,P05,D10,1,1,1
1935,-0.88,1644598410.71875,P05,D10,1,1,1
1936,-0.76,1644598410.734375,P05,D10,1,1,1
1937,-0.48,1644598410.75,P05,D10,1,1,1
1938,-0.09,1644598410.765625,P05,D10,1,1,1
1939,0.31,1644598410.78125,P05,D10,1,1,1
1940,0.57,1644598410.796875,P05,D10,1,1,1
1941,0.6,1644598410.8125,P05,D10,1,1,1
1942,0.42,1644598410.828125,P05,D10,1,1,1
1943,0.16,1644598410.84375,P05,D10,1,1,1
1944,-0.05,1644598410.859375,P05,D10,1,1,1
1945,-0.11,1644598410.875,P05,D10,1,1,1
1946,-0.02,1644598410.890625,P05,D10,1,1,1
1947,0.17,1644598410.90625,P05,D10,1,1,1
1948,0.37,1644598410.921875,P05,D10,1,1,1
1949,0.53,1644598410.9375,P05,D10,1,1,1
1950,0.66,1644598410.953125,P05,D10,1,1,1
1951,0.75,1644598410.96875,P05,D10,1,1,1
1952,0.77,1644598410.984375,P05,D10,1,1,1
1953,0.68,1644598411.0,P05,D10,1,1,1
1954,0.44,1644598411.015625,P05,D10,1,1,1
1955,0.09,1644598411.03125,P05,D10,1,1,1
1956,-0.27,1644598411.046875,P05,D10,1,1,1
1957,-0.49,1644598411.0625,P05,D10,1,1,1
1958,-0.5,1644598411.078125,P05,D10,1,1,1
1959,-0.33,1644598411.09375,P05,D10,1,1,1
1960,-0.08,1644598411.109375,P05,D10,1,1,1
1961,0.1,1644598411.125,P05,D10,1,1,1
1962,0.14,1644598411.140625,P05,D10,1,1,1
1963,0.07,1644598411.15625,P05,D10,1,1,1
1964,-0.03,1644598411.171875,P05,D10,1,1,1
1965,-0.07,1644598411.1875,P05,D10,1,1,1
1966,-0.05,1644598411.203125,P05,D10,1,1,1
1967,-0.02,1644598411.21875,P05,D10,1,1,1
1968,-0.1,1644598411.234375,P05,D10,1,1,1
1969,-0.29,1644598411.25,P05,D10,1,1,1
1970,-0.54,1644598411.265625,P05,D10,1,1,1
1971,-0.69,1644598411.28125,P05,D10,1,1,1
1972,-0.67,1644598411.296875,P05,D10,1,1,1
1973,-0.42,1644598411.3125,P05,D10,1,1,1
1974,-0.06,1644598411.328125,P05,D10,1,1,1
1975,0.29,1644598411.34375,P05,D10,1,1,1
1976,0.51,1644598411.359375,P05,D10,1,1,1
1977,0.54,1644598411.375,P05,D10,1,1,1
1978,0.42,1644598411.390625,P05,D10,1,1,1
1979,0.23,1644598411.40625,P05,D10,1,1,1
1980,0.06,1644598411.421875,P05,D10,1,1,1
1981,-0.03,1644598411.4375,P05,D10,1,1,1
1982,-0.0,1644598411.453125,P05,D10,1,1,1
1983,0.12,1644598411.46875,P05,D10,1,1,1
1984,0.28,1644598411.484375,P05,D10,1,1,1
1985,0.41,1644598411.5,P05,D10,1,1,1
1986,0.45,1644598411.515625,P05,D10,1,1,1
1987,0.37,1644598411.53125,P05,D10,1,1,1
1988,0.21,1644598411.546875,P05,D10,1,1,1
1989,0.04,1644598411.5625,P05,D10,1,1,1
1990,-0.02,1644598411.578125,P05,D10,1,1,1
1991,0.06,1644598411.59375,P05,D10,1,1,1
1992,0.24,1644598411.609375,P05,D10,1,1,1
1993,0.43,1644598411.625,P05,D10,1,1,1
1994,0.54,1644598411.640625,P05,D10,1,1,1
1995,0.52,1644598411.65625,P05,D10,1,1,1
1996,0.39,1644598411.671875,P05,D10,1,1,1
1997,0.22,1644598411.6875,P05,D10,1,1,1
1998,0.08,1644598411.703125,P05,D10,1,1,1
1999,0.03,1644598411.71875,P05,D10,1,1,1
2000,0.04,1644598411.734375,P05,D10,1,1,1
2001,0.08,1644598411.75,P05,D10,1,1,1
2002,0.1,1644598411.765625,P05,D10,1,1,1
2003,0.06,1644598411.78125,P05,D10,1,1,1
2004,-0.02,1644598411.796875,P05,D10,1,1,1
2005,-0.08,1644598411.8125,P05,D10,1,1,1
2006,-0.06,1644598411.828125,P05,D10,1,1,1
2007,0.1,1644598411.84375,P05,D10,1,1,1
2008,0.37,1644598411.859375,P05,D10,1,1,1
2009,0.67,1644598411.875,P05,D10,1,1,1
2010,0.85,1644598411.890625,P05,D10,1,1,1
2011,0.83,1644598411.90625,P05,D10,1,1,1
2012,0.56,1644598411.921875,P05,D10,1,1,1
2013,0.11,1644598411.9375,P05,D10,1,1,1
2014,-0.39,1644598411.953125,P05,D10,1,1,1
2015,-0.79,1644598411.96875,P05,D10,1,1,1
2016,-0.99,1644598411.984375,P05,D10,1,1,1
2017,-0.98,1644598412.0,P05,D10,1,1,1
2018,-0.8,1644598412.015625,P05,D10,1,1,1
2019,-0.54,1644598412.03125,P05,D10,1,1,1
2020,-0.28,1644598412.046875,P05,D10,1,1,1
2021,-0.09,1644598412.0625,P05,D10,1,1,1
2022,0.01,1644598412.078125,P05,D10,1,1,1
2023,0.04,1644598412.09375,P05,D10,1,1,1
2024,-0.0,1644598412.109375,P05,D10,1,1,1
2025,-0.06,1644598412.125,P05,D10,1,1,1
2026,-0.12,1644598412.140625,P05,D10,1,1,1
2027,-0.17,1644598412.15625,P05,D10,1,1,1
2028,-0.24,1644598412.171875,P05,D10,1,1,1
2029,-0.36,1644598412.1875,P05,D10,1,1,1
2030,-0.52,1644598412.203125,P05,D10,1,1,1
2031,-0.67,1644598412.21875,P05,D10,1,1,1
2032,-0.72,1644598412.234375,P05,D10,1,1,1
2033,-0.6,1644598412.25,P05,D10,1,1,1
2034,-0.3,1644598412.265625,P05,D10,1,1,1
2035,0.13,1644598412.28125,P05,D10,1,1,1
2036,0.56,1644598412.296875,P05,D10,1,1,1
2037,0.89,1644598412.3125,P05,D10,1,1,1
2038,1.06,1644598412.328125,P05,D10,1,1,1
2039,1.06,1644598412.34375,P05,D10,1,1,1
2040,0.93,1644598412.359375,P05,D10,1,1,1
2041,0.72,1644598412.375,P05,D10,1,1,1
2042,0.47,1644598412.390625,P05,D10,1,1,1
2043,0.21,1644598412.40625,P05,D10,1,1,1
2044,-0.01,1644598412.421875,P05,D10,1,1,1
2045,-0.14,1644598412.4375,P05,D10,1,1,1
2046,-0.14,1644598412.453125,P05,D10,1,1,1
2047,-0.03,1644598412.46875,P05,D10,1,1,1
2048,0.15,1644598412.484375,P05,D10,1,1,1
2049,0.29,1644598412.5,P05,D10,1,1,1
2050,0.31,1644598412.515625,P05,D10,1,1,1
2051,0.18,1644598412.53125,P05,D10,1,1,1
2052,-0.06,1644598412.546875,P05,D10,1,1,1
2053,-0.33,1644598412.5625,P05,D10,1,1,1
2054,-0.51,1644598412.578125,P05,D10,1,1,1
2055,-0.53,1644598412.59375,P05,D10,1,1,1
2056,-0.39,1644598412.609375,P05,D10,1,1,1
2057,-0.14,1644598412.625,P05,D10,1,1,1
2058,0.14,1644598412.640625,P05,D10,1,1,1
2059,0.36,1644598412.65625,P05,D10,1,1,1
2060,0.48,1644598412.671875,P05,D10,1,1,1
2061,0.51,1644598412.6875,P05,D10,1,1,1
2062,0.44,1644598412.703125,P05,D10,1,1,1
2063,0.29,1644598412.71875,P05,D10,1,1,1
2064,0.06,1644598412.734375,P05,D10,1,1,1
2065,-0.26,1644598412.75,P05,D10,1,1,1
2066,-0.6,1644598412.765625,P05,D10,1,1,1
2067,-0.89,1644598412.78125,P05,D10,1,1,1
2068,-1.0,1644598412.796875,P05,D10,1,1,1
2069,-0.87,1644598412.8125,P05,D10,1,1,1
2070,-0.5,1644598412.828125,P05,D10,1,1,1
2071,-0.0,1644598412.84375,P05,D10,1,1,1
2072,0.47,1644598412.859375,P05,D10,1,1,1
2073,0.76,1644598412.875,P05,D10,1,1,1
2074,0.81,1644598412.890625,P05,D10,1,1,1
2075,0.65,1644598412.90625,P05,D10,1,1,1
2076,0.38,1644598412.921875,P05,D10,1,1,1
2077,0.12,1644598412.9375,P05,D10,1,1,1
2078,-0.02,1644598412.953125,P05,D10,1,1,1
2079,0.0,1644598412.96875,P05,D10,1,1,1
2080,0.13,1644598412.984375,P05,D10,1,1,1
2081,0.27,1644598413.0,P05,D10,1,1,1
2082,0.32,1644598413.015625,P05,D10,1,1,1
2083,0.21,1644598413.03125,P05,D10,1,1,1
2084,-0.06,1644598413.046875,P05,D10,1,1,1
2085,-0.41,1644598413.0625,P05,D10,1,1,1
2086,-0.74,1644598413.078125,P05,D10,1,1,1
2087,-0.94,1644598413.09375,P05,D10,1,1,1
2088,-0.98,1644598413.109375,P05,D10,1,1,1
2089,-0.84,1644598413.125,P05,D10,1,1,1
2090,-0.62,1644598413.140625,P05,D10,1,1,1
2091,-0.41,1644598413.15625,P05,D10,1,1,1
2092,-0.29,1644598413.171875,P05,D10,1,1,1
2093,-0.31,1644598413.1875,P05,D10,1,1,1
2094,-0.48,1644598413.203125,P05,D10,1,1,1
2095,-0.75,1644598413.21875,P05,D10,1,1,1
2096,-1.04,1644598413.234375,P05,D10,1,1,1
2097,-1.26,1644598413.25,P05,D10,1,1,1
2098,-1.31,1644598413.265625,P05,D10,1,1,1
2099,-1.16,1644598413.28125,P05,D10,1,1,1
2100,-0.78,1644598413.296875,P05,D10,1,1,1
2101,-0.27,1644598413.3125,P05,D10,1,1,1
2102,0.25,1644598413.328125,P05,D10,1,1,1
2103,0.67,1644598413.34375,P05,D10,1,1,1
2104,0.87,1644598413.359375,P05,D10,1,1,1
2105,0.82,1644598413.375,P05,D10,1,1,1
2106,0.55,1644598413.390625,P05,D10,1,1,1
2107,0.19,1644598413.40625,P05,D10,1,1,1
2108,-0.13,1644598413.421875,P05,D10,1,1,1
2109,-0.29,1644598413.4375,P05,D10,1,1,1
2110,-0.24,1644598413.453125,P05,D10,1,1,1
2111,0.02,1644598413.46875,P05,D10,1,1,1
2112,0.4,1644598413.484375,P05,D10,1,1,1
2113,0.83,1644598413.5,P05,D10,1,1,1
2114,1.2,1644598413.515625,P05,D10,1,1,1
2115,1.46,1644598413.53125,P05,D10,1,1,1
2116,1.59,1644598413.546875,P05,D10,1,1,1
2117,1.62,1644598413.5625,P05,D10,1,1,1
2118,1.56,1644598413.578125,P05,D10,1,1,1
2119,1.43,1644598413.59375,P05,D10,1,1,1
2120,1.22,1644598413.609375,P05,D10,1,1,1
2121,0.97,1644598413.625,P05,D10,1,1,1
2122,0.7,1644598413.640625,P05,D10,1,1,1
2123,0.46,1644598413.65625,P05,D10,1,1,1
2124,0.26,1644598413.671875,P05,D10,1,1,1
2125,0.1,1644598413.6875,P05,D10,1,1,1
2126,-0.05,1644598413.703125,P05,D10,1,1,1
2127,-0.23,1644598413.71875,P05,D10,1,1,1
2128,-0.43,1644598413.734375,P05,D10,1,1,1
2129,-0.62,1644598413.75,P05,D10,1,1,1
2130,-0.76,1644598413.765625,P05,D10,1,1,1
2131,-0.81,1644598413.78125,P05,D10,1,1,1
2132,-0.78,1644598413.796875,P05,D10,1,1,1
2133,-0.7,1644598413.8125,P05,D10,1,1,1
2134,-0.62,1644598413.828125,P05,D10,1,1,1
2135,-0.54,1644598413.84375,P05,D10,1,1,1
2136,-0.46,1644598413.859375,P05,D10,1,1,1
2137,-0.37,1644598413.875,P05,D10,1,1,1
2138,-0.27,1644598413.890625,P05,D10,1,1,1
2139,-0.17,1644598413.90625,P05,D10,1,1,1
2140,-0.09,1644598413.921875,P05,D10,1,1,1
2141,-0.03,1644598413.9375,P05,D10,1,1,1
2142,0.01,1644598413.953125,P05,D10,1,1,1
2143,0.01,1644598413.96875,P05,D10,1,1,1
2144,-0.03,1644598413.984375,P05,D10,1,1,1
2145,-0.13,1644598414.0,P05,D10,1,1,1
2146,-0.28,1644598414.015625,P05,D10,1,1,1
2147,-0.45,1644598414.03125,P05,D10,1,1,1
2148,-0.58,1644598414.046875,P05,D10,1,1,1
2149,-0.63,1644598414.0625,P05,D10,1,1,1
2150,-0.55,1644598414.078125,P05,D10,1,1,1
2151,-0.38,1644598414.09375,P05,D10,1,1,1
2152,-0.18,1644598414.109375,P05,D10,1,1,1
2153,-0.02,1644598414.125,P05,D10,1,1,1
2154,0.05,1644598414.140625,P05,D10,1,1,1
2155,0.01,1644598414.15625,P05,D10,1,1,1
2156,-0.09,1644598414.171875,P05,D10,1,1,1
2157,-0.18,1644598414.1875,P05,D10,1,1,1
2158,-0.19,1644598414.203125,P05,D10,1,1,1
2159,-0.09,1644598414.21875,P05,D10,1,1,1
2160,0.09,1644598414.234375,P05,D10,1,1,1
2161,0.28,1644598414.25,P05,D10,1,1,1
2162,0.37,1644598414.265625,P05,D10,1,1,1
2163,0.3,1644598414.28125,P05,D10,1,1,1
2164,0.11,1644598414.296875,P05,D10,1,1,1
2165,-0.14,1644598414.3125,P05,D10,1,1,1
2166,-0.33,1644598414.328125,P05,D10,1,1,1
2167,-0.44,1644598414.34375,P05,D10,1,1,1
2168,-0.49,1644598414.359375,P05,D10,1,1,1
2169,-0.58,1644598414.375,P05,D10,1,1,1
2170,-0.77,1644598414.390625,P05,D10,1,1,1
2171,-1.05,1644598414.40625,P05,D10,1,1,1
2172,-1.29,1644598414.421875,P05,D10,1,1,1
2173,-1.35,1644598414.4375,P05,D10,1,1,1
2174,-1.11,1644598414.453125,P05,D10,1,1,1
2175,-0.59,1644598414.46875,P05,D10,1,1,1
2176,0.08,1644598414.484375,P05,D10,1,1,1
2177,0.67,1644598414.5,P05,D10,1,1,1
2178,0.98,1644598414.515625,P05,D10,1,1,1
2179,0.94,1644598414.53125,P05,D10,1,1,1
2180,0.61,1644598414.546875,P05,D10,1,1,1
2181,0.15,1644598414.5625,P05,D10,1,1,1
2182,-0.27,1644598414.578125,P05,D10,1,1,1
2183,-0.51,1644598414.59375,P05,D10,1,1,1
2184,-0.56,1644598414.609375,P05,D10,1,1,1
2185,-0.46,1644598414.625,P05,D10,1,1,1
2186,-0.3,1644598414.640625,P05,D10,1,1,1
2187,-0.16,1644598414.65625,P05,D10,1,1,1
2188,-0.06,1644598414.671875,P05,D10,1,1,1
2189,-0.01,1644598414.6875,P05,D10,1,1,1
2190,0.02,1644598414.703125,P05,D10,1,1,1
2191,0.04,1644598414.71875,P05,D10,1,1,1
2192,0.08,1644598414.734375,P05,D10,1,1,1
2193,0.12,1644598414.75,P05,D10,1,1,1
2194,0.16,1644598414.765625,P05,D10,1,1,1
2195,0.2,1644598414.78125,P05,D10,1,1,1
2196,0.24,1644598414.796875,P05,D10,1,1,1
2197,0.25,1644598414.8125,P05,D10,1,1,1
2198,0.2,1644598414.828125,P05,D10,1,1,1
2199,0.13,1644598414.84375,P05,D10,1,1,1
2200,0.05,1644598414.859375,P05,D10,1,1,1
2201,0.04,1644598414.875,P05,D10,1,1,1
2202,0.13,1644598414.890625,P05,D10,1,1,1
2203,0.34,1644598414.90625,P05,D10,1,1,1
2204,0.6,1644598414.921875,P05,D10,1,1,1
2205,0.83,1644598414.9375,P05,D10,1,1,1
2206,0.92,1644598414.953125,P05,D10,1,1,1
2207,0.83,1644598414.96875,P05,D10,1,1,1
2208,0.6,1644598414.984375,P05,D10,1,1,1
2209,0.3,1644598415.0,P05,D10,1,1,1
2210,0.04,1644598415.015625,P05,D10,1,1,1
2211,-0.13,1644598415.03125,P05,D10,1,1,1
2212,-0.18,1644598415.046875,P05,D10,1,1,1
2213,-0.13,1644598415.0625,P05,D10,1,1,1
2214,-0.02,1644598415.078125,P05,D10,1,1,1
2215,0.13,1644598415.09375,P05,D10,1,1,1
2216,0.29,1644598415.109375,P05,D10,1,1,1
2217,0.45,1644598415.125,P05,D10,1,1,1
2218,0.6,1644598415.140625,P05,D10,1,1,1
2219,0.69,1644598415.15625,P05,D10,1,1,1
2220,0.73,1644598415.171875,P05,D10,1,1,1
2221,0.72,1644598415.1875,P05,D10,1,1,1
2222,0.69,1644598415.203125,P05,D10,1,1,1
2223,0.67,1644598415.21875,P05,D10,1,1,1
2224,0.65,1644598415.234375,P05,D10,1,1,1
2225,0.6,1644598415.25,P05,D10,1,1,1
2226,0.44,1644598415.265625,P05,D10,1,1,1
2227,0.16,1644598415.28125,P05,D10,1,1,1
2228,-0.2,1644598415.296875,P05,D10,1,1,1
2229,-0.49,1644598415.3125,P05,D10,1,1,1
2230,-0.58,1644598415.328125,P05,D10,1,1,1
2231,-0.39,1644598415.34375,P05,D10,1,1,1
2232,0.05,1644598415.359375,P05,D10,1,1,1
2233,0.57,1644598415.375,P05,D10,1,1,1
2234,0.99,1644598415.390625,P05,D10,1,1,1
2235,1.14,1644598415.40625,P05,D10,1,1,1
2236,0.95,1644598415.421875,P05,D10,1,1,1
2237,0.49,1644598415.4375,P05,D10,1,1,1
2238,-0.11,1644598415.453125,P05,D10,1,1,1
2239,-0.65,1644598415.46875,P05,D10,1,1,1
2240,-0.97,1644598415.484375,P05,D10,1,1,1
2241,-0.99,1644598415.5,P05,D10,1,1,1
2242,-0.74,1644598415.515625,P05,D10,1,1,1
2243,-0.34,1644598415.53125,P05,D10,1,1,1
2244,0.08,1644598415.546875,P05,D10,1,1,1
2245,0.39,1644598415.5625,P05,D10,1,1,1
2246,0.56,1644598415.578125,P05,D10,1,1,1
2247,0.63,1644598415.59375,P05,D10,1,1,1
2248,0.68,1644598415.609375,P05,D10,1,1,1
2249,0.75,1644598415.625,P05,D10,1,1,1
2250,0.83,1644598415.640625,P05,D10,1,1,1
2251,0.84,1644598415.65625,P05,D10,1,1,1
2252,0.73,1644598415.671875,P05,D10,1,1,1
2253,0.54,1644598415.6875,P05,D10,1,1,1
2254,0.34,1644598415.703125,P05,D10,1,1,1
2255,0.23,1644598415.71875,P05,D10,1,1,1
2256,0.25,1644598415.734375,P05,D10,1,1,1
2257,0.35,1644598415.75,P05,D10,1,1,1
2258,0.43,1644598415.765625,P05,D10,1,1,1
2259,0.37,1644598415.78125,P05,D10,1,1,1
2260,0.15,1644598415.796875,P05,D10,1,1,1
2261,-0.18,1644598415.8125,P05,D10,1,1,1
2262,-0.54,1644598415.828125,P05,D10,1,1,1
2263,-0.85,1644598415.84375,P05,D10,1,1,1
2264,-1.06,1644598415.859375,P05,D10,1,1,1
2265,-1.2,1644598415.875,P05,D10,1,1,1
2266,-1.27,1644598415.890625,P05,D10,1,1,1
2267,-1.29,1644598415.90625,P05,D10,1,1,1
2268,-1.29,1644598415.921875,P05,D10,1,1,1
2269,-1.25,1644598415.9375,P05,D10,1,1,1
2270,-1.19,1644598415.953125,P05,D10,1,1,1
2271,-1.06,1644598415.96875,P05,D10,1,1,1
2272,-0.84,1644598415.984375,P05,D10,1,1,1
2273,-0.5,1644598416.0,P05,D10,1,1,1
2274,-0.08,1644598416.015625,P05,D10,1,1,1
2275,0.33,1644598416.03125,P05,D10,1,1,1
2276,0.59,1644598416.046875,P05,D10,1,1,1
2277,0.59,1644598416.0625,P05,D10,1,1,1
2278,0.38,1644598416.078125,P05,D10,1,1,1
2279,0.06,1644598416.09375,P05,D10,1,1,1
2280,-0.17,1644598416.109375,P05,D10,1,1,1
2281,-0.2,1644598416.125,P05,D10,1,1,1
2282,-0.04,1644598416.140625,P05,D10,1,1,1
2283,0.21,1644598416.15625,P05,D10,1,1,1
2284,0.4,1644598416.171875,P05,D10,1,1,1
2285,0.42,1644598416.1875,P05,D10,1,1,1
2286,0.28,1644598416.203125,P05,D10,1,1,1
2287,0.05,1644598416.21875,P05,D10,1,1,1
2288,-0.18,1644598416.234375,P05,D10,1,1,1
2289,-0.35,1644598416.25,P05,D10,1,1,1
2290,-0.44,1644598416.265625,P05,D10,1,1,1
2291,-0.48,1644598416.28125,P05,D10,1,1,1
2292,-0.5,1644598416.296875,P05,D10,1,1,1
2293,-0.52,1644598416.3125,P05,D10,1,1,1
2294,-0.51,1644598416.328125,P05,D10,1,1,1
2295,-0.42,1644598416.34375,P05,D10,1,1,1
2296,-0.23,1644598416.359375,P05,D10,1,1,1
2297,0.03,1644598416.375,P05,D10,1,1,1
2298,0.3,1644598416.390625,P05,D10,1,1,1
2299,0.46,1644598416.40625,P05,D10,1,1,1
2300,0.45,1644598416.421875,P05,D10,1,1,1
2301,0.3,1644598416.4375,P05,D10,1,1,1
2302,0.1,1644598416.453125,P05,D10,1,1,1
2303,-0.0,1644598416.46875,P05,D10,1,1,1
2304,0.06,1644598416.484375,P05,D10,1,1,1
2305,0.27,1644598416.5,P05,D10,1,1,1
2306,0.5,1644598416.515625,P05,D10,1,1,1
2307,0.63,1644598416.53125,P05,D10,1,1,1
2308,0.61,1644598416.546875,P05,D10,1,1,1
2309,0.48,1644598416.5625,P05,D10,1,1,1
2310,0.34,1644598416.578125,P05,D10,1,1,1
2311,0.28,1644598416.59375,P05,D10,1,1,1
2312,0.29,1644598416.609375,P05,D10,1,1,1
2313,0.29,1644598416.625,P05,D10,1,1,1
2314,0.2,1644598416.640625,P05,D10,1,1,1
2315,-0.0,1644598416.65625,P05,D10,1,1,1
2316,-0.23,1644598416.671875,P05,D10,1,1,1
2317,-0.39,1644598416.6875,P05,D10,1,1,1
2318,-0.4,1644598416.703125,P05,D10,1,1,1
2319,-0.25,1644598416.71875,P05,D10,1,1,1
2320,-0.02,1644598416.734375,P05,D10,1,1,1
2321,0.19,1644598416.75,P05,D10,1,1,1
2322,0.27,1644598416.765625,P05,D10,1,1,1
2323,0.19,1644598416.78125,P05,D10,1,1,1
2324,-0.03,1644598416.796875,P05,D10,1,1,1
2325,-0.32,1644598416.8125,P05,D10,1,1,1
2326,-0.6,1644598416.828125,P05,D10,1,1,1
2327,-0.77,1644598416.84375,P05,D10,1,1,1
2328,-0.78,1644598416.859375,P05,D10,1,1,1
2329,-0.61,1644598416.875,P05,D10,1,1,1
2330,-0.3,1644598416.890625,P05,D10,1,1,1
2331,0.08,1644598416.90625,P05,D10,1,1,1
2332,0.46,1644598416.921875,P05,D10,1,1,1
2333,0.82,1644598416.9375,P05,D10,1,1,1
2334,1.13,1644598416.953125,P05,D10,1,1,1
2335,1.39,1644598416.96875,P05,D10,1,1,1
2336,1.54,1644598416.984375,P05,D10,1,1,1
2337,1.49,1644598417.0,P05,D10,1,1,1
2338,1.18,1644598417.015625,P05,D10,1,1,1
2339,0.62,1644598417.03125,P05,D10,1,1,1
2340,-0.05,1644598417.046875,P05,D10,1,1,1
2341,-0.62,1644598417.0625,P05,D10,1,1,1
2342,-0.9,1644598417.078125,P05,D10,1,1,1
2343,-0.83,1644598417.09375,P05,D10,1,1,1
2344,-0.51,1644598417.109375,P05,D10,1,1,1
2345,-0.14,1644598417.125,P05,D10,1,1,1
2346,0.06,1644598417.140625,P05,D10,1,1,1
2347,0.0,1644598417.15625,P05,D10,1,1,1
2348,-0.23,1644598417.171875,P05,D10,1,1,1
2349,-0.51,1644598417.1875,P05,D10,1,1,1
2350,-0.69,1644598417.203125,P05,D10,1,1,1
2351,-0.72,1644598417.21875,P05,D10,1,1,1
2352,-0.64,1644598417.234375,P05,D10,1,1,1
2353,-0.51,1644598417.25,P05,D10,1,1,1
2354,-0.38,1644598417.265625,P05,D10,1,1,1
2355,-0.27,1644598417.28125,P05,D10,1,1,1
2356,-0.14,1644598417.296875,P05,D10,1,1,1
2357,-0.02,1644598417.3125,P05,D10,1,1,1
2358,0.06,1644598417.328125,P05,D10,1,1,1
2359,0.03,1644598417.34375,P05,D10,1,1,1
2360,-0.15,1644598417.359375,P05,D10,1,1,1
2361,-0.46,1644598417.375,P05,D10,1,1,1
2362,-0.82,1644598417.390625,P05,D10,1,1,1
2363,-1.13,1644598417.40625,P05,D10,1,1,1
2364,-1.31,1644598417.421875,P05,D10,1,1,1
2365,-1.32,1644598417.4375,P05,D10,1,1,1
2366,-1.2,1644598417.453125,P05,D10,1,1,1
2367,-1.01,1644598417.46875,P05,D10,1,1,1
2368,-0.83,1644598417.484375,P05,D10,1,1,1
2369,-0.69,1644598417.5,P05,D10,1,1,1
2370,-0.62,1644598417.515625,P05,D10,1,1,1
2371,-0.59,1644598417.53125,P05,D10,1,1,1
2372,-0.59,1644598417.546875,P05,D10,1,1,1
2373,-0.56,1644598417.5625,P05,D10,1,1,1
2374,-0.47,1644598417.578125,P05,D10,1,1,1
2375,-0.3,1644598417.59375,P05,D10,1,1,1
2376,-0.03,1644598417.609375,P05,D10,1,1,1
2377,0.28,1644598417.625,P05,D10,1,1,1
2378,0.59,1644598417.640625,P05,D10,1,1,1
2379,0.83,1644598417.65625,P05,D10,1,1,1
2380,0.98,1644598417.671875,P05,D10,1,1,1
2381,1.02,1644598417.6875,P05,D10,1,1,1
2382,0.97,1644598417.703125,P05,D10,1,1,1
2383,0.89,1644598417.71875,P05,D10,1,1,1
2384,0.79,1644598417.734375,P05,D10,1,1,1
2385,0.69,1644598417.75,P05,D10,1,1,1
2386,0.59,1644598417.765625,P05,D10,1,1,1
2387,0.53,1644598417.78125,P05,D10,1,1,1
2388,0.51,1644598417.796875,P05,D10,1,1,1
2389,0.57,1644598417.8125,P05,D10,1,1,1
2390,0.69,1644598417.828125,P05,D10,1,1,1
2391,0.81,1644598417.84375,P05,D10,1,1,1
2392,0.85,1644598417.859375,P05,D10,1,1,1
2393,0.74,1644598417.875,P05,D10,1,1,1
2394,0.51,1644598417.890625,P05,D10,1,1,1
2395,0.21,1644598417.90625,P05,D10,1,1,1
2396,-0.04,1644598417.921875,P05,D10,1,1,1
2397,-0.18,1644598417.9375,P05,D10,1,1,1
2398,-0.24,1644598417.953125,P05,D10,1,1,1
2399,-0.24,1644598417.96875,P05,D10,1,1,1
2400,-0.24,1644598417.984375,P05,D10,1,1,1
2401,-0.23,1644598418.0,P05,D10,1,1,1
2402,-0.2,1644598418.015625,P05,D10,1,1,1
2403,-0.11,1644598418.03125,P05,D10,1,1,1
2404,0.04,1644598418.046875,P05,D10,1,1,1
2405,0.19,1644598418.0625,P05,D10,1,1,1
2406,0.31,1644598418.078125,P05,D10,1,1,1
2407,0.37,1644598418.09375,P05,D10,1,1,1
2408,0.38,1644598418.109375,P05,D10,1,1,1
2409,0.38,1644598418.125,P05,D10,1,1,1
2410,0.37,1644598418.140625,P05,D10,1,1,1
2411,0.33,1644598418.15625,P05,D10,1,1,1
2412,0.23,1644598418.171875,P05,D10,1,1,1
2413,0.06,1644598418.1875,P05,D10,1,1,1
2414,-0.16,1644598418.203125,P05,D10,1,1,1
2415,-0.37,1644598418.21875,P05,D10,1,1,1
2416,-0.52,1644598418.234375,P05,D10,1,1,1
2417,-0.57,1644598418.25,P05,D10,1,1,1
2418,-0.56,1644598418.265625,P05,D10,1,1,1
2419,-0.51,1644598418.28125,P05,D10,1,1,1
2420,-0.45,1644598418.296875,P05,D10,1,1,1
2421,-0.36,1644598418.3125,P05,D10,1,1,1
2422,-0.24,1644598418.328125,P05,D10,1,1,1
2423,-0.08,1644598418.34375,P05,D10,1,1,1
2424,0.09,1644598418.359375,P05,D10,1,1,1
2425,0.21,1644598418.375,P05,D10,1,1,1
2426,0.22,1644598418.390625,P05,D10,1,1,1
2427,0.11,1644598418.40625,P05,D10,1,1,1
2428,-0.08,1644598418.421875,P05,D10,1,1,1
2429,-0.28,1644598418.4375,P05,D10,1,1,1
2430,-0.36,1644598418.453125,P05,D10,1,1,1
2431,-0.3,1644598418.46875,P05,D10,1,1,1
2432,-0.11,1644598418.484375,P05,D10,1,1,1
2433,0.1,1644598418.5,P05,D10,1,1,1
2434,0.26,1644598418.515625,P05,D10,1,1,1
2435,0.32,1644598418.53125,P05,D10,1,1,1
2436,0.31,1644598418.546875,P05,D10,1,1,1
2437,0.32,1644598418.5625,P05,D10,1,1,1
2438,0.42,1644598418.578125,P05,D10,1,1,1
2439,0.59,1644598418.59375,P05,D10,1,1,1
2440,0.75,1644598418.609375,P05,D10,1,1,1
2441,0.8,1644598418.625,P05,D10,1,1,1
2442,0.66,1644598418.640625,P05,D10,1,1,1
2443,0.36,1644598418.65625,P05,D10,1,1,1
2444,-0.02,1644598418.671875,P05,D10,1,1,1
2445,-0.38,1644598418.6875,P05,D10,1,1,1
2446,-0.61,1644598418.703125,P05,D10,1,1,1
2447,-0.68,1644598418.71875,P05,D10,1,1,1
2448,-0.63,1644598418.734375,P05,D10,1,1,1
2449,-0.48,1644598418.75,P05,D10,1,1,1
2450,-0.31,1644598418.765625,P05,D10,1,1,1
2451,-0.18,1644598418.78125,P05,D10,1,1,1
2452,-0.13,1644598418.796875,P05,D10,1,1,1
2453,-0.16,1644598418.8125,P05,D10,1,1,1
2454,-0.27,1644598418.828125,P05,D10,1,1,1
2455,-0.41,1644598418.84375,P05,D10,1,1,1
2456,-0.53,1644598418.859375,P05,D10,1,1,1
2457,-0.57,1644598418.875,P05,D10,1,1,1
2458,-0.51,1644598418.890625,P05,D10,1,1,1
2459,-0.33,1644598418.90625,P05,D10,1,1,1
2460,-0.08,1644598418.921875,P05,D10,1,1,1
2461,0.18,1644598418.9375,P05,D10,1,1,1
2462,0.39,1644598418.953125,P05,D10,1,1,1
2463,0.49,1644598418.96875,P05,D10,1,1,1
2464,0.46,1644598418.984375,P05,D10,1,1,1
2465,0.26,1644598419.0,P05,D10,1,1,1
2466,-0.07,1644598419.015625,P05,D10,1,1,1
2467,-0.48,1644598419.03125,P05,D10,1,1,1
2468,-0.87,1644598419.046875,P05,D10,1,1,1
2469,-1.12,1644598419.0625,P05,D10,1,1,1
2470,-1.11,1644598419.078125,P05,D10,1,1,1
2471,-0.82,1644598419.09375,P05,D10,1,1,1
2472,-0.31,1644598419.109375,P05,D10,1,1,1
2473,0.26,1644598419.125,P05,D10,1,1,1
2474,0.71,1644598419.140625,P05,D10,1,1,1
2475,0.89,1644598419.15625,P05,D10,1,1,1
2476,0.78,1644598419.171875,P05,D10,1,1,1
2477,0.5,1644598419.1875,P05,D10,1,1,1
2478,0.21,1644598419.203125,P05,D10,1,1,1
2479,0.04,1644598419.21875,P05,D10,1,1,1
2480,0.02,1644598419.234375,P05,D10,1,1,1
2481,0.06,1644598419.25,P05,D10,1,1,1
2482,0.08,1644598419.265625,P05,D10,1,1,1
2483,0.02,1644598419.28125,P05,D10,1,1,1
2484,-0.11,1644598419.296875,P05,D10,1,1,1
2485,-0.23,1644598419.3125,P05,D10,1,1,1
2486,-0.25,1644598419.328125,P05,D10,1,1,1
2487,-0.17,1644598419.34375,P05,D10,1,1,1
2488,-0.01,1644598419.359375,P05,D10,1,1,1
2489,0.1,1644598419.375,P05,D10,1,1,1
2490,0.11,1644598419.390625,P05,D10,1,1,1
2491,0.01,1644598419.40625,P05,D10,1,1,1
2492,-0.13,1644598419.421875,P05,D10,1,1,1
2493,-0.2,1644598419.4375,P05,D10,1,1,1
2494,-0.14,1644598419.453125,P05,D10,1,1,1
2495,0.06,1644598419.46875,P05,D10,1,1,1
2496,0.28,1644598419.484375,P05,D10,1,1,1
2497,0.41,1644598419.5,P05,D10,1,1,1
2498,0.36,1644598419.515625,P05,D10,1,1,1
2499,0.15,1644598419.53125,P05,D10,1,1,1
2500,-0.12,1644598419.546875,P05,D10,1,1,1
2501,-0.3,1644598419.5625,P05,D10,1,1,1
2502,-0.31,1644598419.578125,P05,D10,1,1,1
2503,-0.13,1644598419.59375,P05,D10,1,1,1
2504,0.16,1644598419.609375,P05,D10,1,1,1
2505,0.46,1644598419.625,P05,D10,1,1,1
2506,0.69,1644598419.640625,P05,D10,1,1,1
2507,0.8,1644598419.65625,P05,D10,1,1,1
2508,0.83,1644598419.671875,P05,D10,1,1,1
2509,0.81,1644598419.6875,P05,D10,1,1,1
2510,0.77,1644598419.703125,P05,D10,1,1,1
2511,0.68,1644598419.71875,P05,D10,1,1,1
2512,0.55,1644598419.734375,P05,D10,1,1,1
2513,0.37,1644598419.75,P05,D10,1,1,1
2514,0.21,1644598419.765625,P05,D10,1,1,1
2515,0.14,1644598419.78125,P05,D10,1,1,1
2516,0.24,1644598419.796875,P05,D10,1,1,1
2517,0.49,1644598419.8125,P05,D10,1,1,1
2518,0.78,1644598419.828125,P05,D10,1,1,1
2519,0.98,1644598419.84375,P05,D10,1,1,1
2520,0.95,1644598419.859375,P05,D10,1,1,1
2521,0.66,1644598419.875,P05,D10,1,1,1
2522,0.21,1644598419.890625,P05,D10,1,1,1
2523,-0.24,1644598419.90625,P05,D10,1,1,1
2524,-0.54,1644598419.921875,P05,D10,1,1,1
2525,-0.64,1644598419.9375,P05,D10,1,1,1
2526,-0.59,1644598419.953125,P05,D10,1,1,1
2527,-0.5,1644598419.96875,P05,D10,1,1,1
2528,-0.45,1644598419.984375,P05,D10,1,1,1
2529,-0.47,1644598420.0,P05,D10,1,1,1
2530,-0.52,1644598420.015625,P05,D10,1,1,1
2531,-0.54,1644598420.03125,P05,D10,1,1,1
2532,-0.5,1644598420.046875,P05,D10,1,1,1
2533,-0.43,1644598420.0625,P05,D10,1,1,1
2534,-0.36,1644598420.078125,P05,D10,1,1,1
2535,-0.35,1644598420.09375,P05,D10,1,1,1
2536,-0.41,1644598420.109375,P05,D10,1,1,1
2537,-0.5,1644598420.125,P05,D10,1,1,1
2538,-0.57,1644598420.140625,P05,D10,1,1,1
2539,-0.57,1644598420.15625,P05,D10,1,1,1
2540,-0.48,1644598420.171875,P05,D10,1,1,1
2541,-0.29,1644598420.1875,P05,D10,1,1,1
2542,-0.07,1644598420.203125,P05,D10,1,1,1
2543,0.12,1644598420.21875,P05,D10,1,1,1
2544,0.24,1644598420.234375,P05,D10,1,1,1
2545,0.27,1644598420.25,P05,D10,1,1,1
2546,0.24,1644598420.265625,P05,D10,1,1,1
2547,0.21,1644598420.28125,P05,D10,1,1,1
2548,0.21,1644598420.296875,P05,D10,1,1,1
2549,0.24,1644598420.3125,P05,D10,1,1,1
2550,0.28,1644598420.328125,P05,D10,1,1,1
2551,0.28,1644598420.34375,P05,D10,1,1,1
2552,0.22,1644598420.359375,P05,D10,1,1,1
2553,0.12,1644598420.375,P05,D10,1,1,1
2554,0.04,1644598420.390625,P05,D10,1,1,1
2555,-0.01,1644598420.40625,P05,D10,1,1,1
2556,-0.02,1644598420.421875,P05,D10,1,1,1
2557,-0.04,1644598420.4375,P05,D10,1,1,1
2558,-0.09,1644598420.453125,P05,D10,1,1,1
2559,-0.2,1644598420.46875,P05,D10,1,1,1
2560,-0.31,1644598420.484375,P05,D10,1,1,1
2561,-0.37,1644598420.5,P05,D10,1,1,1
2562,-0.33,1644598420.515625,P05,D10,1,1,1
2563,-0.21,1644598420.53125,P05,D10,1,1,1
2564,-0.05,1644598420.546875,P05,D10,1,1,1
2565,0.09,1644598420.5625,P05,D10,1,1,1
2566,0.14,1644598420.578125,P05,D10,1,1,1
2567,0.1,1644598420.59375,P05,D10,1,1,1
2568,-0.0,1644598420.609375,P05,D10,1,1,1
2569,-0.11,1644598420.625,P05,D10,1,1,1
2570,-0.16,1644598420.640625,P05,D10,1,1,1
2571,-0.12,1644598420.65625,P05,D10,1,1,1
2572,0.01,1644598420.671875,P05,D10,1,1,1
2573,0.17,1644598420.6875,P05,D10,1,1,1
2574,0.29,1644598420.703125,P05,D10,1,1,1
2575,0.31,1644598420.71875,P05,D10,1,1,1
2576,0.23,1644598420.734375,P05,D10,1,1,1
2577,0.1,1644598420.75,P05,D10,1,1,1
2578,-0.03,1644598420.765625,P05,D10,1,1,1
2579,-0.12,1644598420.78125,P05,D10,1,1,1
2580,-0.17,1644598420.796875,P05,D10,1,1,1
2581,-0.22,1644598420.8125,P05,D10,1,1,1
2582,-0.31,1644598420.828125,P05,D10,1,1,1
2583,-0.4,1644598420.84375,P05,D10,1,1,1
2584,-0.46,1644598420.859375,P05,D10,1,1,1
2585,-0.42,1644598420.875,P05,D10,1,1,1
2586,-0.26,1644598420.890625,P05,D10,1,1,1
2587,-0.04,1644598420.90625,P05,D10,1,1,1
2588,0.15,1644598420.921875,P05,D10,1,1,1
2589,0.22,1644598420.9375,P05,D10,1,1,1
2590,0.14,1644598420.953125,P05,D10,1,1,1
2591,-0.02,1644598420.96875,P05,D10,1,1,1
2592,-0.17,1644598420.984375,P05,D10,1,1,1
2593,-0.22,1644598421.0,P05,D10,1,1,1
2594,-0.14,1644598421.015625,P05,D10,1,1,1
2595,0.02,1644598421.03125,P05,D10,1,1,1
2596,0.18,1644598421.046875,P05,D10,1,1,1
2597,0.28,1644598421.0625,P05,D10,1,1,1
2598,0.29,1644598421.078125,P05,D10,1,1,1
2599,0.25,1644598421.09375,P05,D10,1,1,1
2600,0.22,1644598421.109375,P05,D10,1,1,1
2601,0.24,1644598421.125,P05,D10,1,1,1
2602,0.27,1644598421.140625,P05,D10,1,1,1
2603,0.27,1644598421.15625,P05,D10,1,1,1
2604,0.18,1644598421.171875,P05,D10,1,1,1
2605,-0.03,1644598421.1875,P05,D10,1,1,1
2606,-0.31,1644598421.203125,P05,D10,1,1,1
2607,-0.55,1644598421.21875,P05,D10,1,1,1
2608,-0.64,1644598421.234375,P05,D10,1,1,1
2609,-0.52,1644598421.25,P05,D10,1,1,1
2610,-0.22,1644598421.265625,P05,D10,1,1,1
2611,0.14,1644598421.28125,P05,D10,1,1,1
2612,0.42,1644598421.296875,P05,D10,1,1,1
2613,0.54,1644598421.3125,P05,D10,1,1,1
2614,0.46,1644598421.328125,P05,D10,1,1,1
2615,0.25,1644598421.34375,P05,D10,1,1,1
2616,0.02,1644598421.359375,P05,D10,1,1,1
2617,-0.15,1644598421.375,P05,D10,1,1,1
2618,-0.24,1644598421.390625,P05,D10,1,1,1
2619,-0.27,1644598421.40625,P05,D10,1,1,1
2620,-0.3,1644598421.421875,P05,D10,1,1,1
2621,-0.31,1644598421.4375,P05,D10,1,1,1
2622,-0.29,1644598421.453125,P05,D10,1,1,1
2623,-0.19,1644598421.46875,P05,D10,1,1,1
2624,0.01,1644598421.484375,P05,D10,1,1,1
2625,0.27,1644598421.5,P05,D10,1,1,1
2626,0.5,1644598421.515625,P05,D10,1,1,1
2627,0.62,1644598421.53125,P05,D10,1,1,1
2628,0.62,1644598421.546875,P05,D10,1,1,1
2629,0.53,1644598421.5625,P05,D10,1,1,1
2630,0.42,1644598421.578125,P05,D10,1,1,1
2631,0.31,1644598421.59375,P05,D10,1,1,1
2632,0.2,1644598421.609375,P05,D10,1,1,1
2633,0.07,1644598421.625,P05,D10,1,1,1
2634,-0.12,1644598421.640625,P05,D10,1,1,1
2635,-0.32,1644598421.65625,P05,D10,1,1,1
2636,-0.47,1644598421.671875,P05,D10,1,1,1
2637,-0.51,1644598421.6875,P05,D10,1,1,1
2638,-0.42,1644598421.703125,P05,D10,1,1,1
2639,-0.27,1644598421.71875,P05,D10,1,1,1
2640,-0.12,1644598421.734375,P05,D10,1,1,1
2641,-0.01,1644598421.75,P05,D10,1,1,1
2642,0.04,1644598421.765625,P05,D10,1,1,1
2643,0.07,1644598421.78125,P05,D10,1,1,1
2644,0.13,1644598421.796875,P05,D10,1,1,1
2645,0.23,1644598421.8125,P05,D10,1,1,1
2646,0.36,1644598421.828125,P05,D10,1,1,1
2647,0.48,1644598421.84375,P05,D10,1,1,1
2648,0.54,1644598421.859375,P05,D10,1,1,1
2649,0.51,1644598421.875,P05,D10,1,1,1
2650,0.41,1644598421.890625,P05,D10,1,1,1
2651,0.3,1644598421.90625,P05,D10,1,1,1
2652,0.2,1644598421.921875,P05,D10,1,1,1
2653,0.15,1644598421.9375,P05,D10,1,1,1
2654,0.12,1644598421.953125,P05,D10,1,1,1
2655,0.07,1644598421.96875,P05,D10,1,1,1
2656,-0.04,1644598421.984375,P05,D10,1,1,1
2657,-0.17,1644598422.0,P05,D10,1,1,1
2658,-0.25,1644598422.015625,P05,D10,1,1,1
2659,-0.22,1644598422.03125,P05,D10,1,1,1
2660,-0.03,1644598422.046875,P05,D10,1,1,1
2661,0.24,1644598422.0625,P05,D10,1,1,1
2662,0.43,1644598422.078125,P05,D10,1,1,1
2663,0.4,1644598422.09375,P05,D10,1,1,1
2664,0.1,1644598422.109375,P05,D10,1,1,1
2665,-0.38,1644598422.125,P05,D10,1,1,1
2666,-0.88,1644598422.140625,P05,D10,1,1,1
2667,-1.19,1644598422.15625,P05,D10,1,1,1
2668,-1.2,1644598422.171875,P05,D10,1,1,1
2669,-0.92,1644598422.1875,P05,D10,1,1,1
2670,-0.46,1644598422.203125,P05,D10,1,1,1
2671,-0.02,1644598422.21875,P05,D10,1,1,1
2672,0.28,1644598422.234375,P05,D10,1,1,1
2673,0.36,1644598422.25,P05,D10,1,1,1
2674,0.26,1644598422.265625,P05,D10,1,1,1
2675,0.08,1644598422.28125,P05,D10,1,1,1
2676,-0.08,1644598422.296875,P05,D10,1,1,1
2677,-0.12,1644598422.3125,P05,D10,1,1,1
2678,-0.04,1644598422.328125,P05,D10,1,1,1
2679,0.13,1644598422.34375,P05,D10,1,1,1
2680,0.3,1644598422.359375,P05,D10,1,1,1
2681,0.38,1644598422.375,P05,D10,1,1,1
2682,0.35,1644598422.390625,P05,D10,1,1,1
2683,0.23,1644598422.40625,P05,D10,1,1,1
2684,0.11,1644598422.421875,P05,D10,1,1,1
2685,0.05,1644598422.4375,P05,D10,1,1,1
2686,0.07,1644598422.453125,P05,D10,1,1,1
2687,0.13,1644598422.46875,P05,D10,1,1,1
2688,0.12,1644598422.484375,P05,D10,1,1,1
2689,-0.02,1644598422.5,P05,D10,1,1,1
2690,-0.3,1644598422.515625,P05,D10,1,1,1
2691,-0.63,1644598422.53125,P05,D10,1,1,1
2692,-0.87,1644598422.546875,P05,D10,1,1,1
2693,-0.91,1644598422.5625,P05,D10,1,1,1
2694,-0.71,1644598422.578125,P05,D10,1,1,1
2695,-0.34,1644598422.59375,P05,D10,1,1,1
2696,0.08,1644598422.609375,P05,D10,1,1,1
2697,0.4,1644598422.625,P05,D10,1,1,1
2698,0.59,1644598422.640625,P05,D10,1,1,1
2699,0.67,1644598422.65625,P05,D10,1,1,1
2700,0.72,1644598422.671875,P05,D10,1,1,1
2701,0.81,1644598422.6875,P05,D10,1,1,1
2702,0.94,1644598422.703125,P05,D10,1,1,1
2703,1.05,1644598422.71875,P05,D10,1,1,1
2704,1.06,1644598422.734375,P05,D10,1,1,1
2705,0.9,1644598422.75,P05,D10,1,1,1
2706,0.58,1644598422.765625,P05,D10,1,1,1
2707,0.21,1644598422.78125,P05,D10,1,1,1
2708,-0.1,1644598422.796875,P05,D10,1,1,1
2709,-0.25,1644598422.8125,P05,D10,1,1,1
2710,-0.2,1644598422.828125,P05,D10,1,1,1
2711,-0.0,1644598422.84375,P05,D10,1,1,1
2712,0.21,1644598422.859375,P05,D10,1,1,1
2713,0.3,1644598422.875,P05,D10,1,1,1
2714,0.2,1644598422.890625,P05,D10,1,1,1
2715,-0.08,1644598422.90625,P05,D10,1,1,1
2716,-0.44,1644598422.921875,P05,D10,1,1,1
2717,-0.73,1644598422.9375,P05,D10,1,1,1
2718,-0.85,1644598422.953125,P05,D10,1,1,1
2719,-0.77,1644598422.96875,P05,D10,1,1,1
2720,-0.56,1644598422.984375,P05,D10,1,1,1
2721,-0.31,1644598423.0,P05,D10,1,1,1
2722,-0.1,1644598423.015625,P05,D10,1,1,1
2723,-0.0,1644598423.03125,P05,D10,1,1,1
2724,-0.02,1644598423.046875,P05,D10,1,1,1
2725,-0.13,1644598423.0625,P05,D10,1,1,1
2726,-0.31,1644598423.078125,P05,D10,1,1,1
2727,-0.52,1644598423.09375,P05,D10,1,1,1
2728,-0.72,1644598423.109375,P05,D10,1,1,1
2729,-0.83,1644598423.125,P05,D10,1,1,1
2730,-0.82,1644598423.140625,P05,D10,1,1,1
2731,-0.68,1644598423.15625,P05,D10,1,1,1
2732,-0.46,1644598423.171875,P05,D10,1,1,1
2733,-0.23,1644598423.1875,P05,D10,1,1,1
2734,-0.08,1644598423.203125,P05,D10,1,1,1
2735,-0.03,1644598423.21875,P05,D10,1,1,1
2736,-0.01,1644598423.234375,P05,D10,1,1,1
2737,0.02,1644598423.25,P05,D10,1,1,1
2738,0.13,1644598423.265625,P05,D10,1,1,1
2739,0.31,1644598423.28125,P05,D10,1,1,1
2740,0.47,1644598423.296875,P05,D10,1,1,1
2741,0.55,1644598423.3125,P05,D10,1,1,1
2742,0.48,1644598423.328125,P05,D10,1,1,1
2743,0.31,1644598423.34375,P05,D10,1,1,1
2744,0.11,1644598423.359375,P05,D10,1,1,1
2745,-0.03,1644598423.375,P05,D10,1,1,1
2746,-0.04,1644598423.390625,P05,D10,1,1,1
2747,0.12,1644598423.40625,P05,D10,1,1,1
2748,0.42,1644598423.421875,P05,D10,1,1,1
2749,0.77,1644598423.4375,P05,D10,1,1,1
2750,1.12,1644598423.453125,P05,D10,1,1,1
2751,1.35,1644598423.46875,P05,D10,1,1,1
2752,1.37,1644598423.484375,P05,D10,1,1,1
2753,1.13,1644598423.5,P05,D10,1,1,1
2754,0.64,1644598423.515625,P05,D10,1,1,1
2755,-0.0,1644598423.53125,P05,D10,1,1,1
2756,-0.61,1644598423.546875,P05,D10,1,1,1
2757,-1.0,1644598423.5625,P05,D10,1,1,1
2758,-1.09,1644598423.578125,P05,D10,1,1,1
2759,-0.92,1644598423.59375,P05,D10,1,1,1
2760,-0.67,1644598423.609375,P05,D10,1,1,1
2761,-0.54,1644598423.625,P05,D10,1,1,1
2762,-0.64,1644598423.640625,P05,D10,1,1,1
2763,-0.91,1644598423.65625,P05,D10,1,1,1
2764,-1.17,1644598423.671875,P05,D10,1,1,1
2765,-1.25,1644598423.6875,P05,D10,1,1,1
2766,-1.05,1644598423.703125,P05,D10,1,1,1
2767,-0.65,1644598423.71875,P05,D10,1,1,1
2768,-0.17,1644598423.734375,P05,D10,1,1,1
2769,0.26,1644598423.75,P05,D10,1,1,1
2770,0.55,1644598423.765625,P05,D10,1,1,1
2771,0.73,1644598423.78125,P05,D10,1,1,1
2772,0.85,1644598423.796875,P05,D10,1,1,1
2773,0.94,1644598423.8125,P05,D10,1,1,1
2774,0.97,1644598423.828125,P05,D10,1,1,1
2775,0.91,1644598423.84375,P05,D10,1,1,1
2776,0.71,1644598423.859375,P05,D10,1,1,1
2777,0.38,1644598423.875,P05,D10,1,1,1
2778,-0.01,1644598423.890625,P05,D10,1,1,1
2779,-0.35,1644598423.90625,P05,D10,1,1,1
2780,-0.53,1644598423.921875,P05,D10,1,1,1
2781,-0.49,1644598423.9375,P05,D10,1,1,1
2782,-0.24,1644598423.953125,P05,D10,1,1,1
2783,0.14,1644598423.96875,P05,D10,1,1,1
2784,0.51,1644598423.984375,P05,D10,1,1,1
2785,0.7,1644598424.0,P05,D10,1,1,1
2786,0.63,1644598424.015625,P05,D10,1,1,1
2787,0.3,1644598424.03125,P05,D10,1,1,1
2788,-0.18,1644598424.046875,P05,D10,1,1,1
2789,-0.64,1644598424.0625,P05,D10,1,1,1
2790,-0.96,1644598424.078125,P05,D10,1,1,1
2791,-1.08,1644598424.09375,P05,D10,1,1,1
2792,-1.05,1644598424.109375,P05,D10,1,1,1
2793,-0.96,1644598424.125,P05,D10,1,1,1
2794,-0.89,1644598424.140625,P05,D10,1,1,1
2795,-0.87,1644598424.15625,P05,D10,1,1,1
2796,-0.91,1644598424.171875,P05,D10,1,1,1
2797,-0.96,1644598424.1875,P05,D10,1,1,1
2798,-0.95,1644598424.203125,P05,D10,1,1,1
2799,-0.87,1644598424.21875,P05,D10,1,1,1
2800,-0.68,1644598424.234375,P05,D10,1,1,1
2801,-0.38,1644598424.25,P05,D10,1,1,1
2802,-0.0,1644598424.265625,P05,D10,1,1,1
2803,0.41,1644598424.28125,P05,D10,1,1,1
2804,0.8,1644598424.296875,P05,D10,1,1,1
2805,1.08,1644598424.3125,P05,D10,1,1,1
2806,1.19,1644598424.328125,P05,D10,1,1,1
2807,1.07,1644598424.34375,P05,D10,1,1,1
2808,0.74,1644598424.359375,P05,D10,1,1,1
2809,0.29,1644598424.375,P05,D10,1,1,1
2810,-0.14,1644598424.390625,P05,D10,1,1,1
2811,-0.4,1644598424.40625,P05,D10,1,1,1
2812,-0.42,1644598424.421875,P05,D10,1,1,1
2813,-0.24,1644598424.4375,P05,D10,1,1,1
2814,0.0,1644598424.453125,P05,D10,1,1,1
2815,0.18,1644598424.46875,P05,D10,1,1,1
2816,0.22,1644598424.484375,P05,D10,1,1,1
2817,0.17,1644598424.5,P05,D10,1,1,1
2818,0.13,1644598424.515625,P05,D10,1,1,1
2819,0.2,1644598424.53125,P05,D10,1,1,1
2820,0.38,1644598424.546875,P05,D10,1,1,1
2821,0.58,1644598424.5625,P05,D10,1,1,1
2822,0.71,1644598424.578125,P05,D10,1,1,1
2823,0.68,1644598424.59375,P05,D10,1,1,1
2824,0.49,1644598424.609375,P05,D10,1,1,1
2825,0.21,1644598424.625,P05,D10,1,1,1
2826,-0.07,1644598424.640625,P05,D10,1,1,1
2827,-0.29,1644598424.65625,P05,D10,1,1,1
2828,-0.4,1644598424.671875,P05,D10,1,1,1
2829,-0.4,1644598424.6875,P05,D10,1,1,1
2830,-0.3,1644598424.703125,P05,D10,1,1,1
2831,-0.11,1644598424.71875,P05,D10,1,1,1
2832,0.1,1644598424.734375,P05,D10,1,1,1
2833,0.27,1644598424.75,P05,D10,1,1,1
2834,0.33,1644598424.765625,P05,D10,1,1,1
2835,0.26,1644598424.78125,P05,D10,1,1,1
2836,0.05,1644598424.796875,P05,D10,1,1,1
2837,-0.23,1644598424.8125,P05,D10,1,1,1
2838,-0.53,1644598424.828125,P05,D10,1,1,1
2839,-0.77,1644598424.84375,P05,D10,1,1,1
2840,-0.9,1644598424.859375,P05,D10,1,1,1
2841,-0.91,1644598424.875,P05,D10,1,1,1
2842,-0.8,1644598424.890625,P05,D10,1,1,1
2843,-0.6,1644598424.90625,P05,D10,1,1,1
2844,-0.36,1644598424.921875,P05,D10,1,1,1
2845,-0.13,1644598424.9375,P05,D10,1,1,1
2846,0.04,1644598424.953125,P05,D10,1,1,1
2847,0.15,1644598424.96875,P05,D10,1,1,1
2848,0.22,1644598424.984375,P05,D10,1,1,1
2849,0.28,1644598425.0,P05,D10,1,1,1
2850,0.34,1644598425.015625,P05,D10,1,1,1
2851,0.37,1644598425.03125,P05,D10,1,1,1
2852,0.3,1644598425.046875,P05,D10,1,1,1
2853,0.1,1644598425.0625,P05,D10,1,1,1
2854,-0.18,1644598425.078125,P05,D10,1,1,1
2855,-0.44,1644598425.09375,P05,D10,1,1,1
2856,-0.56,1644598425.109375,P05,D10,1,1,1
2857,-0.47,1644598425.125,P05,D10,1,1,1
2858,-0.19,1644598425.140625,P05,D10,1,1,1
2859,0.17,1644598425.15625,P05,D10,1,1,1
2860,0.5,1644598425.171875,P05,D10,1,1,1
2861,0.69,1644598425.1875,P05,D10,1,1,1
2862,0.74,1644598425.203125,P05,D10,1,1,1
2863,0.69,1644598425.21875,P05,D10,1,1,1
2864,0.6,1644598425.234375,P05,D10,1,1,1
2865,0.49,1644598425.25,P05,D10,1,1,1
2866,0.36,1644598425.265625,P05,D10,1,1,1
2867,0.18,1644598425.28125,P05,D10,1,1,1
2868,-0.06,1644598425.296875,P05,D10,1,1,1
2869,-0.28,1644598425.3125,P05,D10,1,1,1
2870,-0.42,1644598425.328125,P05,D10,1,1,1
2871,-0.4,1644598425.34375,P05,D10,1,1,1
2872,-0.21,1644598425.359375,P05,D10,1,1,1
2873,0.07,1644598425.375,P05,D10,1,1,1
2874,0.33,1644598425.390625,P05,D10,1,1,1
2875,0.48,1644598425.40625,P05,D10,1,1,1
2876,0.46,1644598425.421875,P05,D10,1,1,1
2877,0.29,1644598425.4375,P05,D10,1,1,1
2878,0.05,1644598425.453125,P05,D10,1,1,1
2879,-0.14,1644598425.46875,P05,D10,1,1,1
2880,-0.19,1644598425.484375,P05,D10,1,1,1
2881,-0.06,1644598425.5,P05,D10,1,1,1
2882,0.24,1644598425.515625,P05,D10,1,1,1
2883,0.62,1644598425.53125,P05,D10,1,1,1
2884,0.99,1644598425.546875,P05,D10,1,1,1
2885,1.25,1644598425.5625,P05,D10,1,1,1
2886,1.32,1644598425.578125,P05,D10,1,1,1
2887,1.2,1644598425.59375,P05,D10,1,1,1
2888,0.92,1644598425.609375,P05,D10,1,1,1
2889,0.59,1644598425.625,P05,D10,1,1,1
2890,0.32,1644598425.640625,P05,D10,1,1,1
2891,0.2,1644598425.65625,P05,D10,1,1,1
2892,0.25,1644598425.671875,P05,D10,1,1,1
2893,0.43,1644598425.6875,P05,D10,1,1,1
2894,0.64,1644598425.703125,P05,D10,1,1,1
2895,0.8,1644598425.71875,P05,D10,1,1,1
2896,0.87,1644598425.734375,P05,D10,1,1,1
2897,0.86,1644598425.75,P05,D10,1,1,1
2898,0.82,1644598425.765625,P05,D10,1,1,1
2899,0.8,1644598425.78125,P05,D10,1,1,1
2900,0.81,1644598425.796875,P05,D10,1,1,1
2901,0.81,1644598425.8125,P05,D10,1,1,1
2902,0.77,1644598425.828125,P05,D10,1,1,1
2903,0.66,1644598425.84375,P05,D10,1,1,1
2904,0.49,1644598425.859375,P05,D10,1,1,1
2905,0.25,1644598425.875,P05,D10,1,1,1
2906,-0.08,1644598425.890625,P05,D10,1,1,1
2907,-0.5,1644598425.90625,P05,D10,1,1,1
2908,-1.0,1644598425.921875,P05,D10,1,1,1
2909,-1.5,1644598425.9375,P05,D10,1,1,1
2910,-1.87,1644598425.953125,P05,D10,1,1,1
2911,-1.99,1644598425.96875,P05,D10,1,1,1
2912,-1.81,1644598425.984375,P05,D10,1,1,1
2913,-1.41,1644598426.0,P05,D10,1,1,1
2914,-0.94,1644598426.015625,P05,D10,1,1,1
2915,-0.56,1644598426.03125,P05,D10,1,1,1
2916,-0.37,1644598426.046875,P05,D10,1,1,1
2917,-0.34,1644598426.0625,P05,D10,1,1,1
2918,-0.36,1644598426.078125,P05,D10,1,1,1
2919,-0.34,1644598426.09375,P05,D10,1,1,1
2920,-0.23,1644598426.109375,P05,D10,1,1,1
