,data,timestamp,participant,document,val,arou,eng
0,-1.0,1644596864.78125,P05,D05,1,1,1
1,-1.45,1644596864.796875,P05,D05,1,1,1
2,-1.8,1644596864.8125,P05,D05,1,1,1
3,-2.01,1644596864.828125,P05,D05,1,1,1
4,-2.09,1644596864.84375,P05,D05,1,1,1
5,-2.07,1644596864.859375,P05,D05,1,1,1
6,-1.95,1644596864.875,P05,D05,1,1,1
7,-1.75,1644596864.890625,P05,D05,1,1,1
8,-1.47,1644596864.90625,P05,D05,1,1,1
9,-1.17,1644596864.921875,P05,D05,1,1,1
10,-0.94,1644596864.9375,P05,D05,1,1,1
11,-0.86,1644596864.953125,P05,D05,1,1,1
12,-0.93,1644596864.96875,P05,D05,1,1,1
13,-1.06,1644596864.984375,P05,D05,1,1,1
14,-1.09,1644596865.0,P05,D05,1,1,1
15,-0.87,1644596865.015625,P05,D05,1,1,1
16,-0.37,1644596865.03125,P05,D05,1,1,1
17,0.35,1644596865.046875,P05,D05,1,1,1
18,1.12,1644596865.0625,P05,D05,1,1,1
19,1.75,1644596865.078125,P05,D05,1,1,1
20,2.13,1644596865.09375,P05,D05,1,1,1
21,2.29,1644596865.109375,P05,D05,1,1,1
22,2.32,1644596865.125,P05,D05,1,1,1
23,2.34,1644596865.140625,P05,D05,1,1,1
24,2.38,1644596865.15625,P05,D05,1,1,1
25,2.4,1644596865.171875,P05,D05,1,1,1
26,2.3,1644596865.1875,P05,D05,1,1,1
27,2.01,1644596865.203125,P05,D05,1,1,1
28,1.58,1644596865.21875,P05,D05,1,1,1
29,1.13,1644596865.234375,P05,D05,1,1,1
30,0.81,1644596865.25,P05,D05,1,1,1
31,0.71,1644596865.265625,P05,D05,1,1,1
32,0.77,1644596865.28125,P05,D05,1,1,1
33,0.85,1644596865.296875,P05,D05,1,1,1
34,0.82,1644596865.3125,P05,D05,1,1,1
35,0.62,1644596865.328125,P05,D05,1,1,1
36,0.31,1644596865.34375,P05,D05,1,1,1
37,0.02,1644596865.359375,P05,D05,1,1,1
38,-0.12,1644596865.375,P05,D05,1,1,1
39,-0.11,1644596865.390625,P05,D05,1,1,1
40,0.02,1644596865.40625,P05,D05,1,1,1
41,0.15,1644596865.421875,P05,D05,1,1,1
42,0.2,1644596865.4375,P05,D05,1,1,1
43,0.17,1644596865.453125,P05,D05,1,1,1
44,0.09,1644596865.46875,P05,D05,1,1,1
45,0.03,1644596865.484375,P05,D05,1,1,1
46,0.03,1644596865.5,P05,D05,1,1,1
47,0.09,1644596865.515625,P05,D05,1,1,1
48,0.17,1644596865.53125,P05,D05,1,1,1
49,0.23,1644596865.546875,P05,D05,1,1,1
50,0.26,1644596865.5625,P05,D05,1,1,1
51,0.29,1644596865.578125,P05,D05,1,1,1
52,0.34,1644596865.59375,P05,D05,1,1,1
53,0.42,1644596865.609375,P05,D05,1,1,1
54,0.48,1644596865.625,P05,D05,1,1,1
55,0.43,1644596865.640625,P05,D05,1,1,1
56,0.19,1644596865.65625,P05,D05,1,1,1
57,-0.23,1644596865.671875,P05,D05,1,1,1
58,-0.75,1644596865.6875,P05,D05,1,1,1
59,-1.2,1644596865.703125,P05,D05,1,1,1
60,-1.47,1644596865.71875,P05,D05,1,1,1
61,-1.49,1644596865.734375,P05,D05,1,1,1
62,-1.29,1644596865.75,P05,D05,1,1,1
63,-0.98,1644596865.765625,P05,D05,1,1,1
64,-0.65,1644596865.78125,P05,D05,1,1,1
65,-0.36,1644596865.796875,P05,D05,1,1,1
66,-0.1,1644596865.8125,P05,D05,1,1,1
67,0.14,1644596865.828125,P05,D05,1,1,1
68,0.37,1644596865.84375,P05,D05,1,1,1
69,0.56,1644596865.859375,P05,D05,1,1,1
70,0.65,1644596865.875,P05,D05,1,1,1
71,0.56,1644596865.890625,P05,D05,1,1,1
72,0.28,1644596865.90625,P05,D05,1,1,1
73,-0.15,1644596865.921875,P05,D05,1,1,1
74,-0.63,1644596865.9375,P05,D05,1,1,1
75,-1.03,1644596865.953125,P05,D05,1,1,1
76,-1.26,1644596865.96875,P05,D05,1,1,1
77,-1.29,1644596865.984375,P05,D05,1,1,1
78,-1.18,1644596866.0,P05,D05,1,1,1
79,-1.02,1644596866.015625,P05,D05,1,1,1
80,-0.9,1644596866.03125,P05,D05,1,1,1
81,-0.87,1644596866.046875,P05,D05,1,1,1
82,-0.9,1644596866.0625,P05,D05,1,1,1
83,-0.95,1644596866.078125,P05,D05,1,1,1
84,-0.96,1644596866.09375,P05,D05,1,1,1
85,-0.93,1644596866.109375,P05,D05,1,1,1
86,-0.87,1644596866.125,P05,D05,1,1,1
87,-0.85,1644596866.140625,P05,D05,1,1,1
88,-0.92,1644596866.15625,P05,D05,1,1,1
89,-1.1,1644596866.171875,P05,D05,1,1,1
90,-1.36,1644596866.1875,P05,D05,1,1,1
91,-1.64,1644596866.203125,P05,D05,1,1,1
92,-1.85,1644596866.21875,P05,D05,1,1,1
93,-1.95,1644596866.234375,P05,D05,1,1,1
94,-1.9,1644596866.25,P05,D05,1,1,1
95,-1.69,1644596866.265625,P05,D05,1,1,1
96,-1.31,1644596866.28125,P05,D05,1,1,1
97,-0.8,1644596866.296875,P05,D05,1,1,1
98,-0.2,1644596866.3125,P05,D05,1,1,1
99,0.35,1644596866.328125,P05,D05,1,1,1
100,0.73,1644596866.34375,P05,D05,1,1,1
101,0.84,1644596866.359375,P05,D05,1,1,1
102,0.68,1644596866.375,P05,D05,1,1,1
103,0.35,1644596866.390625,P05,D05,1,1,1
104,0.01,1644596866.40625,P05,D05,1,1,1
105,-0.15,1644596866.421875,P05,D05,1,1,1
106,-0.06,1644596866.4375,P05,D05,1,1,1
107,0.26,1644596866.453125,P05,D05,1,1,1
108,0.71,1644596866.46875,P05,D05,1,1,1
109,1.19,1644596866.484375,P05,D05,1,1,1
110,1.61,1644596866.5,P05,D05,1,1,1
111,1.97,1644596866.515625,P05,D05,1,1,1
112,2.23,1644596866.53125,P05,D05,1,1,1
113,2.39,1644596866.546875,P05,D05,1,1,1
114,2.39,1644596866.5625,P05,D05,1,1,1
115,2.22,1644596866.578125,P05,D05,1,1,1
116,1.92,1644596866.59375,P05,D05,1,1,1
117,1.6,1644596866.609375,P05,D05,1,1,1
118,1.36,1644596866.625,P05,D05,1,1,1
119,1.27,1644596866.640625,P05,D05,1,1,1
120,1.3,1644596866.65625,P05,D05,1,1,1
121,1.32,1644596866.671875,P05,D05,1,1,1
122,1.25,1644596866.6875,P05,D05,1,1,1
123,1.03,1644596866.703125,P05,D05,1,1,1
124,0.74,1644596866.71875,P05,D05,1,1,1
125,0.49,1644596866.734375,P05,D05,1,1,1
126,0.37,1644596866.75,P05,D05,1,1,1
127,0.4,1644596866.765625,P05,D05,1,1,1
128,0.52,1644596866.78125,P05,D05,1,1,1
129,0.61,1644596866.796875,P05,D05,1,1,1
130,0.6,1644596866.8125,P05,D05,1,1,1
131,0.45,1644596866.828125,P05,D05,1,1,1
132,0.19,1644596866.84375,P05,D05,1,1,1
133,-0.1,1644596866.859375,P05,D05,1,1,1
134,-0.37,1644596866.875,P05,D05,1,1,1
135,-0.56,1644596866.890625,P05,D05,1,1,1
136,-0.65,1644596866.90625,P05,D05,1,1,1
137,-0.62,1644596866.921875,P05,D05,1,1,1
138,-0.52,1644596866.9375,P05,D05,1,1,1
139,-0.41,1644596866.953125,P05,D05,1,1,1
140,-0.38,1644596866.96875,P05,D05,1,1,1
141,-0.49,1644596866.984375,P05,D05,1,1,1
142,-0.8,1644596867.0,P05,D05,1,1,1
143,-1.25,1644596867.015625,P05,D05,1,1,1
144,-1.77,1644596867.03125,P05,D05,1,1,1
145,-2.22,1644596867.046875,P05,D05,1,1,1
146,-2.47,1644596867.0625,P05,D05,1,1,1
147,-2.45,1644596867.078125,P05,D05,1,1,1
148,-2.14,1644596867.09375,P05,D05,1,1,1
149,-1.61,1644596867.109375,P05,D05,1,1,1
150,-1.0,1644596867.125,P05,D05,1,1,1
151,-0.46,1644596867.140625,P05,D05,1,1,1
152,-0.1,1644596867.15625,P05,D05,1,1,1
153,0.04,1644596867.171875,P05,D05,1,1,1
154,0.03,1644596867.1875,P05,D05,1,1,1
155,-0.04,1644596867.203125,P05,D05,1,1,1
156,-0.06,1644596867.21875,P05,D05,1,1,1
157,0.03,1644596867.234375,P05,D05,1,1,1
158,0.22,1644596867.25,P05,D05,1,1,1
159,0.48,1644596867.265625,P05,D05,1,1,1
160,0.78,1644596867.28125,P05,D05,1,1,1
161,1.09,1644596867.296875,P05,D05,1,1,1
162,1.36,1644596867.3125,P05,D05,1,1,1
163,1.55,1644596867.328125,P05,D05,1,1,1
164,1.61,1644596867.34375,P05,D05,1,1,1
165,1.51,1644596867.359375,P05,D05,1,1,1
166,1.28,1644596867.375,P05,D05,1,1,1
167,0.97,1644596867.390625,P05,D05,1,1,1
168,0.7,1644596867.40625,P05,D05,1,1,1
169,0.5,1644596867.421875,P05,D05,1,1,1
170,0.4,1644596867.4375,P05,D05,1,1,1
171,0.33,1644596867.453125,P05,D05,1,1,1
172,0.25,1644596867.46875,P05,D05,1,1,1
173,0.12,1644596867.484375,P05,D05,1,1,1
174,-0.04,1644596867.5,P05,D05,1,1,1
175,-0.16,1644596867.515625,P05,D05,1,1,1
176,-0.19,1644596867.53125,P05,D05,1,1,1
177,-0.13,1644596867.546875,P05,D05,1,1,1
178,-0.06,1644596867.5625,P05,D05,1,1,1
179,-0.06,1644596867.578125,P05,D05,1,1,1
180,-0.19,1644596867.59375,P05,D05,1,1,1
181,-0.47,1644596867.609375,P05,D05,1,1,1
182,-0.82,1644596867.625,P05,D05,1,1,1
183,-1.16,1644596867.640625,P05,D05,1,1,1
184,-1.39,1644596867.65625,P05,D05,1,1,1
185,-1.48,1644596867.671875,P05,D05,1,1,1
186,-1.43,1644596867.6875,P05,D05,1,1,1
187,-1.3,1644596867.703125,P05,D05,1,1,1
188,-1.14,1644596867.71875,P05,D05,1,1,1
189,-0.94,1644596867.734375,P05,D05,1,1,1
190,-0.69,1644596867.75,P05,D05,1,1,1
191,-0.36,1644596867.765625,P05,D05,1,1,1
192,0.05,1644596867.78125,P05,D05,1,1,1
193,0.48,1644596867.796875,P05,D05,1,1,1
194,0.81,1644596867.8125,P05,D05,1,1,1
195,0.97,1644596867.828125,P05,D05,1,1,1
196,0.93,1644596867.84375,P05,D05,1,1,1
197,0.76,1644596867.859375,P05,D05,1,1,1
198,0.57,1644596867.875,P05,D05,1,1,1
199,0.47,1644596867.890625,P05,D05,1,1,1
200,0.49,1644596867.90625,P05,D05,1,1,1
201,0.61,1644596867.921875,P05,D05,1,1,1
202,0.74,1644596867.9375,P05,D05,1,1,1
203,0.81,1644596867.953125,P05,D05,1,1,1
204,0.77,1644596867.96875,P05,D05,1,1,1
205,0.63,1644596867.984375,P05,D05,1,1,1
206,0.41,1644596868.0,P05,D05,1,1,1
207,0.16,1644596868.015625,P05,D05,1,1,1
208,-0.1,1644596868.03125,P05,D05,1,1,1
209,-0.37,1644596868.046875,P05,D05,1,1,1
210,-0.61,1644596868.0625,P05,D05,1,1,1
211,-0.8,1644596868.078125,P05,D05,1,1,1
212,-0.86,1644596868.09375,P05,D05,1,1,1
213,-0.78,1644596868.109375,P05,D05,1,1,1
214,-0.53,1644596868.125,P05,D05,1,1,1
215,-0.14,1644596868.140625,P05,D05,1,1,1
216,0.31,1644596868.15625,P05,D05,1,1,1
217,0.7,1644596868.171875,P05,D05,1,1,1
218,0.93,1644596868.1875,P05,D05,1,1,1
219,0.91,1644596868.203125,P05,D05,1,1,1
220,0.64,1644596868.21875,P05,D05,1,1,1
221,0.17,1644596868.234375,P05,D05,1,1,1
222,-0.34,1644596868.25,P05,D05,1,1,1
223,-0.75,1644596868.265625,P05,D05,1,1,1
224,-0.93,1644596868.28125,P05,D05,1,1,1
225,-0.87,1644596868.296875,P05,D05,1,1,1
226,-0.65,1644596868.3125,P05,D05,1,1,1
227,-0.41,1644596868.328125,P05,D05,1,1,1
228,-0.27,1644596868.34375,P05,D05,1,1,1
229,-0.3,1644596868.359375,P05,D05,1,1,1
230,-0.43,1644596868.375,P05,D05,1,1,1
231,-0.59,1644596868.390625,P05,D05,1,1,1
232,-0.66,1644596868.40625,P05,D05,1,1,1
233,-0.62,1644596868.421875,P05,D05,1,1,1
234,-0.5,1644596868.4375,P05,D05,1,1,1
235,-0.36,1644596868.453125,P05,D05,1,1,1
236,-0.22,1644596868.46875,P05,D05,1,1,1
237,-0.09,1644596868.484375,P05,D05,1,1,1
238,0.09,1644596868.5,P05,D05,1,1,1
239,0.31,1644596868.515625,P05,D05,1,1,1
240,0.53,1644596868.53125,P05,D05,1,1,1
241,0.67,1644596868.546875,P05,D05,1,1,1
242,0.66,1644596868.5625,P05,D05,1,1,1
243,0.5,1644596868.578125,P05,D05,1,1,1
244,0.28,1644596868.59375,P05,D05,1,1,1
245,0.1,1644596868.609375,P05,D05,1,1,1
246,0.03,1644596868.625,P05,D05,1,1,1
247,0.07,1644596868.640625,P05,D05,1,1,1
248,0.16,1644596868.65625,P05,D05,1,1,1
249,0.19,1644596868.671875,P05,D05,1,1,1
250,0.12,1644596868.6875,P05,D05,1,1,1
251,-0.08,1644596868.703125,P05,D05,1,1,1
252,-0.33,1644596868.71875,P05,D05,1,1,1
253,-0.58,1644596868.734375,P05,D05,1,1,1
254,-0.75,1644596868.75,P05,D05,1,1,1
255,-0.8,1644596868.765625,P05,D05,1,1,1
256,-0.71,1644596868.78125,P05,D05,1,1,1
257,-0.47,1644596868.796875,P05,D05,1,1,1
258,-0.13,1644596868.8125,P05,D05,1,1,1
259,0.23,1644596868.828125,P05,D05,1,1,1
260,0.54,1644596868.84375,P05,D05,1,1,1
261,0.71,1644596868.859375,P05,D05,1,1,1
262,0.75,1644596868.875,P05,D05,1,1,1
263,0.72,1644596868.890625,P05,D05,1,1,1
264,0.68,1644596868.90625,P05,D05,1,1,1
265,0.68,1644596868.921875,P05,D05,1,1,1
266,0.69,1644596868.9375,P05,D05,1,1,1
267,0.6,1644596868.953125,P05,D05,1,1,1
268,0.34,1644596868.96875,P05,D05,1,1,1
269,-0.09,1644596868.984375,P05,D05,1,1,1
270,-0.59,1644596869.0,P05,D05,1,1,1
271,-1.0,1644596869.015625,P05,D05,1,1,1
272,-1.2,1644596869.03125,P05,D05,1,1,1
273,-1.17,1644596869.046875,P05,D05,1,1,1
274,-1.0,1644596869.0625,P05,D05,1,1,1
275,-0.82,1644596869.078125,P05,D05,1,1,1
276,-0.76,1644596869.09375,P05,D05,1,1,1
277,-0.81,1644596869.109375,P05,D05,1,1,1
278,-0.88,1644596869.125,P05,D05,1,1,1
279,-0.85,1644596869.140625,P05,D05,1,1,1
280,-0.62,1644596869.15625,P05,D05,1,1,1
281,-0.26,1644596869.171875,P05,D05,1,1,1
282,0.12,1644596869.1875,P05,D05,1,1,1
283,0.33,1644596869.203125,P05,D05,1,1,1
284,0.26,1644596869.21875,P05,D05,1,1,1
285,-0.09,1644596869.234375,P05,D05,1,1,1
286,-0.55,1644596869.25,P05,D05,1,1,1
287,-0.92,1644596869.265625,P05,D05,1,1,1
288,-1.01,1644596869.28125,P05,D05,1,1,1
289,-0.77,1644596869.296875,P05,D05,1,1,1
290,-0.28,1644596869.3125,P05,D05,1,1,1
291,0.28,1644596869.328125,P05,D05,1,1,1
292,0.75,1644596869.34375,P05,D05,1,1,1
293,1.05,1644596869.359375,P05,D05,1,1,1
294,1.17,1644596869.375,P05,D05,1,1,1
295,1.17,1644596869.390625,P05,D05,1,1,1
296,1.06,1644596869.40625,P05,D05,1,1,1
297,0.84,1644596869.421875,P05,D05,1,1,1
298,0.49,1644596869.4375,P05,D05,1,1,1
299,0.03,1644596869.453125,P05,D05,1,1,1
300,-0.46,1644596869.46875,P05,D05,1,1,1
301,-0.84,1644596869.484375,P05,D05,1,1,1
302,-1.02,1644596869.5,P05,D05,1,1,1
303,-0.96,1644596869.515625,P05,D05,1,1,1
304,-0.73,1644596869.53125,P05,D05,1,1,1
305,-0.42,1644596869.546875,P05,D05,1,1,1
306,-0.14,1644596869.5625,P05,D05,1,1,1
307,0.04,1644596869.578125,P05,D05,1,1,1
308,0.13,1644596869.59375,P05,D05,1,1,1
309,0.14,1644596869.609375,P05,D05,1,1,1
310,0.11,1644596869.625,P05,D05,1,1,1
311,0.04,1644596869.640625,P05,D05,1,1,1
312,-0.06,1644596869.65625,P05,D05,1,1,1
313,-0.17,1644596869.671875,P05,D05,1,1,1
314,-0.23,1644596869.6875,P05,D05,1,1,1
315,-0.19,1644596869.703125,P05,D05,1,1,1
316,-0.01,1644596869.71875,P05,D05,1,1,1
317,0.27,1644596869.734375,P05,D05,1,1,1
318,0.57,1644596869.75,P05,D05,1,1,1
319,0.79,1644596869.765625,P05,D05,1,1,1
320,0.89,1644596869.78125,P05,D05,1,1,1
321,0.87,1644596869.796875,P05,D05,1,1,1
322,0.81,1644596869.8125,P05,D05,1,1,1
323,0.79,1644596869.828125,P05,D05,1,1,1
324,0.84,1644596869.84375,P05,D05,1,1,1
325,0.96,1644596869.859375,P05,D05,1,1,1
326,1.1,1644596869.875,P05,D05,1,1,1
327,1.18,1644596869.890625,P05,D05,1,1,1
328,1.16,1644596869.90625,P05,D05,1,1,1
329,1.05,1644596869.921875,P05,D05,1,1,1
330,0.9,1644596869.9375,P05,D05,1,1,1
331,0.75,1644596869.953125,P05,D05,1,1,1
332,0.61,1644596869.96875,P05,D05,1,1,1
333,0.47,1644596869.984375,P05,D05,1,1,1
334,0.3,1644596870.0,P05,D05,1,1,1
335,0.12,1644596870.015625,P05,D05,1,1,1
336,-0.05,1644596870.03125,P05,D05,1,1,1
337,-0.17,1644596870.046875,P05,D05,1,1,1
338,-0.21,1644596870.0625,P05,D05,1,1,1
339,-0.21,1644596870.078125,P05,D05,1,1,1
340,-0.22,1644596870.09375,P05,D05,1,1,1
341,-0.34,1644596870.109375,P05,D05,1,1,1
342,-0.6,1644596870.125,P05,D05,1,1,1
343,-0.96,1644596870.140625,P05,D05,1,1,1
344,-1.31,1644596870.15625,P05,D05,1,1,1
345,-1.54,1644596870.171875,P05,D05,1,1,1
346,-1.58,1644596870.1875,P05,D05,1,1,1
347,-1.49,1644596870.203125,P05,D05,1,1,1
348,-1.34,1644596870.21875,P05,D05,1,1,1
349,-1.24,1644596870.234375,P05,D05,1,1,1
350,-1.21,1644596870.25,P05,D05,1,1,1
351,-1.18,1644596870.265625,P05,D05,1,1,1
352,-1.03,1644596870.28125,P05,D05,1,1,1
353,-0.69,1644596870.296875,P05,D05,1,1,1
354,-0.19,1644596870.3125,P05,D05,1,1,1
355,0.37,1644596870.328125,P05,D05,1,1,1
356,0.85,1644596870.34375,P05,D05,1,1,1
357,1.17,1644596870.359375,P05,D05,1,1,1
358,1.29,1644596870.375,P05,D05,1,1,1
359,1.25,1644596870.390625,P05,D05,1,1,1
360,1.09,1644596870.40625,P05,D05,1,1,1
361,0.85,1644596870.421875,P05,D05,1,1,1
362,0.57,1644596870.4375,P05,D05,1,1,1
363,0.31,1644596870.453125,P05,D05,1,1,1
364,0.14,1644596870.46875,P05,D05,1,1,1
365,0.13,1644596870.484375,P05,D05,1,1,1
366,0.29,1644596870.5,P05,D05,1,1,1
367,0.54,1644596870.515625,P05,D05,1,1,1
368,0.77,1644596870.53125,P05,D05,1,1,1
369,0.9,1644596870.546875,P05,D05,1,1,1
370,0.86,1644596870.5625,P05,D05,1,1,1
371,0.69,1644596870.578125,P05,D05,1,1,1
372,0.41,1644596870.59375,P05,D05,1,1,1
373,0.08,1644596870.609375,P05,D05,1,1,1
374,-0.25,1644596870.625,P05,D05,1,1,1
375,-0.51,1644596870.640625,P05,D05,1,1,1
376,-0.66,1644596870.65625,P05,D05,1,1,1
377,-0.64,1644596870.671875,P05,D05,1,1,1
378,-0.47,1644596870.6875,P05,D05,1,1,1
379,-0.19,1644596870.703125,P05,D05,1,1,1
380,0.1,1644596870.71875,P05,D05,1,1,1
381,0.34,1644596870.734375,P05,D05,1,1,1
382,0.47,1644596870.75,P05,D05,1,1,1
383,0.45,1644596870.765625,P05,D05,1,1,1
384,0.27,1644596870.78125,P05,D05,1,1,1
385,-0.07,1644596870.796875,P05,D05,1,1,1
386,-0.51,1644596870.8125,P05,D05,1,1,1
387,-0.95,1644596870.828125,P05,D05,1,1,1
388,-1.24,1644596870.84375,P05,D05,1,1,1
389,-1.28,1644596870.859375,P05,D05,1,1,1
390,-1.06,1644596870.875,P05,D05,1,1,1
391,-0.66,1644596870.890625,P05,D05,1,1,1
392,-0.25,1644596870.90625,P05,D05,1,1,1
393,0.02,1644596870.921875,P05,D05,1,1,1
394,0.09,1644596870.9375,P05,D05,1,1,1
395,0.01,1644596870.953125,P05,D05,1,1,1
396,-0.13,1644596870.96875,P05,D05,1,1,1
397,-0.22,1644596870.984375,P05,D05,1,1,1
398,-0.2,1644596871.0,P05,D05,1,1,1
399,-0.09,1644596871.015625,P05,D05,1,1,1
400,0.09,1644596871.03125,P05,D05,1,1,1
401,0.3,1644596871.046875,P05,D05,1,1,1
402,0.5,1644596871.0625,P05,D05,1,1,1
403,0.69,1644596871.078125,P05,D05,1,1,1
404,0.83,1644596871.09375,P05,D05,1,1,1
405,0.92,1644596871.109375,P05,D05,1,1,1
406,0.96,1644596871.125,P05,D05,1,1,1
407,0.93,1644596871.140625,P05,D05,1,1,1
408,0.86,1644596871.15625,P05,D05,1,1,1
409,0.77,1644596871.171875,P05,D05,1,1,1
410,0.69,1644596871.1875,P05,D05,1,1,1
411,0.67,1644596871.203125,P05,D05,1,1,1
412,0.74,1644596871.21875,P05,D05,1,1,1
413,0.9,1644596871.234375,P05,D05,1,1,1
414,1.11,1644596871.25,P05,D05,1,1,1
415,1.29,1644596871.265625,P05,D05,1,1,1
416,1.36,1644596871.28125,P05,D05,1,1,1
417,1.28,1644596871.296875,P05,D05,1,1,1
418,1.1,1644596871.3125,P05,D05,1,1,1
419,0.89,1644596871.328125,P05,D05,1,1,1
420,0.73,1644596871.34375,P05,D05,1,1,1
421,0.64,1644596871.359375,P05,D05,1,1,1
422,0.6,1644596871.375,P05,D05,1,1,1
423,0.53,1644596871.390625,P05,D05,1,1,1
424,0.37,1644596871.40625,P05,D05,1,1,1
425,0.11,1644596871.421875,P05,D05,1,1,1
426,-0.2,1644596871.4375,P05,D05,1,1,1
427,-0.52,1644596871.453125,P05,D05,1,1,1
428,-0.79,1644596871.46875,P05,D05,1,1,1
429,-1.02,1644596871.484375,P05,D05,1,1,1
430,-1.22,1644596871.5,P05,D05,1,1,1
431,-1.42,1644596871.515625,P05,D05,1,1,1
432,-1.58,1644596871.53125,P05,D05,1,1,1
433,-1.7,1644596871.546875,P05,D05,1,1,1
434,-1.75,1644596871.5625,P05,D05,1,1,1
435,-1.74,1644596871.578125,P05,D05,1,1,1
436,-1.7,1644596871.59375,P05,D05,1,1,1
437,-1.66,1644596871.609375,P05,D05,1,1,1
438,-1.62,1644596871.625,P05,D05,1,1,1
439,-1.51,1644596871.640625,P05,D05,1,1,1
440,-1.27,1644596871.65625,P05,D05,1,1,1
441,-0.9,1644596871.671875,P05,D05,1,1,1
442,-0.45,1644596871.6875,P05,D05,1,1,1
443,-0.04,1644596871.703125,P05,D05,1,1,1
444,0.23,1644596871.71875,P05,D05,1,1,1
445,0.33,1644596871.734375,P05,D05,1,1,1
446,0.31,1644596871.75,P05,D05,1,1,1
447,0.31,1644596871.765625,P05,D05,1,1,1
448,0.43,1644596871.78125,P05,D05,1,1,1
449,0.69,1644596871.796875,P05,D05,1,1,1
450,0.99,1644596871.8125,P05,D05,1,1,1
451,1.19,1644596871.828125,P05,D05,1,1,1
452,1.18,1644596871.84375,P05,D05,1,1,1
453,0.96,1644596871.859375,P05,D05,1,1,1
454,0.62,1644596871.875,P05,D05,1,1,1
455,0.32,1644596871.890625,P05,D05,1,1,1
456,0.16,1644596871.90625,P05,D05,1,1,1
457,0.16,1644596871.921875,P05,D05,1,1,1
458,0.29,1644596871.9375,P05,D05,1,1,1
459,0.45,1644596871.953125,P05,D05,1,1,1
460,0.57,1644596871.96875,P05,D05,1,1,1
461,0.62,1644596871.984375,P05,D05,1,1,1
462,0.61,1644596872.0,P05,D05,1,1,1
463,0.58,1644596872.015625,P05,D05,1,1,1
464,0.55,1644596872.03125,P05,D05,1,1,1
465,0.49,1644596872.046875,P05,D05,1,1,1
466,0.36,1644596872.0625,P05,D05,1,1,1
467,0.15,1644596872.078125,P05,D05,1,1,1
468,-0.14,1644596872.09375,P05,D05,1,1,1
469,-0.46,1644596872.109375,P05,D05,1,1,1
470,-0.71,1644596872.125,P05,D05,1,1,1
471,-0.84,1644596872.140625,P05,D05,1,1,1
472,-0.83,1644596872.15625,P05,D05,1,1,1
473,-0.72,1644596872.171875,P05,D05,1,1,1
474,-0.59,1644596872.1875,P05,D05,1,1,1
475,-0.51,1644596872.203125,P05,D05,1,1,1
476,-0.51,1644596872.21875,P05,D05,1,1,1
477,-0.53,1644596872.234375,P05,D05,1,1,1
478,-0.53,1644596872.25,P05,D05,1,1,1
479,-0.46,1644596872.265625,P05,D05,1,1,1
480,-0.32,1644596872.28125,P05,D05,1,1,1
481,-0.19,1644596872.296875,P05,D05,1,1,1
482,-0.1,1644596872.3125,P05,D05,1,1,1
483,-0.09,1644596872.328125,P05,D05,1,1,1
484,-0.08,1644596872.34375,P05,D05,1,1,1
485,0.02,1644596872.359375,P05,D05,1,1,1
486,0.27,1644596872.375,P05,D05,1,1,1
487,0.63,1644596872.390625,P05,D05,1,1,1
488,1.0,1644596872.40625,P05,D05,1,1,1
489,1.2,1644596872.421875,P05,D05,1,1,1
490,1.15,1644596872.4375,P05,D05,1,1,1
491,0.85,1644596872.453125,P05,D05,1,1,1
492,0.41,1644596872.46875,P05,D05,1,1,1
493,-0.0,1644596872.484375,P05,D05,1,1,1
494,-0.24,1644596872.5,P05,D05,1,1,1
495,-0.23,1644596872.515625,P05,D05,1,1,1
496,0.01,1644596872.53125,P05,D05,1,1,1
497,0.37,1644596872.546875,P05,D05,1,1,1
498,0.77,1644596872.5625,P05,D05,1,1,1
499,1.11,1644596872.578125,P05,D05,1,1,1
500,1.33,1644596872.59375,P05,D05,1,1,1
501,1.37,1644596872.609375,P05,D05,1,1,1
502,1.21,1644596872.625,P05,D05,1,1,1
503,0.89,1644596872.640625,P05,D05,1,1,1
504,0.48,1644596872.65625,P05,D05,1,1,1
505,0.1,1644596872.671875,P05,D05,1,1,1
506,-0.16,1644596872.6875,P05,D05,1,1,1
507,-0.25,1644596872.703125,P05,D05,1,1,1
508,-0.15,1644596872.71875,P05,D05,1,1,1
509,0.06,1644596872.734375,P05,D05,1,1,1
510,0.27,1644596872.75,P05,D05,1,1,1
511,0.36,1644596872.765625,P05,D05,1,1,1
512,0.24,1644596872.78125,P05,D05,1,1,1
513,-0.14,1644596872.796875,P05,D05,1,1,1
514,-0.72,1644596872.8125,P05,D05,1,1,1
515,-1.39,1644596872.828125,P05,D05,1,1,1
516,-1.96,1644596872.84375,P05,D05,1,1,1
517,-2.3,1644596872.859375,P05,D05,1,1,1
518,-2.32,1644596872.875,P05,D05,1,1,1
519,-2.1,1644596872.890625,P05,D05,1,1,1
520,-1.79,1644596872.90625,P05,D05,1,1,1
521,-1.56,1644596872.921875,P05,D05,1,1,1
522,-1.5,1644596872.9375,P05,D05,1,1,1
523,-1.59,1644596872.953125,P05,D05,1,1,1
524,-1.7,1644596872.96875,P05,D05,1,1,1
525,-1.72,1644596872.984375,P05,D05,1,1,1
526,-1.56,1644596873.0,P05,D05,1,1,1
527,-1.23,1644596873.015625,P05,D05,1,1,1
528,-0.8,1644596873.03125,P05,D05,1,1,1
529,-0.33,1644596873.046875,P05,D05,1,1,1
530,0.14,1644596873.0625,P05,D05,1,1,1
531,0.59,1644596873.078125,P05,D05,1,1,1
532,0.97,1644596873.09375,P05,D05,1,1,1
533,1.26,1644596873.109375,P05,D05,1,1,1
534,1.41,1644596873.125,P05,D05,1,1,1
535,1.42,1644596873.140625,P05,D05,1,1,1
536,1.36,1644596873.15625,P05,D05,1,1,1
537,1.29,1644596873.171875,P05,D05,1,1,1
538,1.27,1644596873.1875,P05,D05,1,1,1
539,1.27,1644596873.203125,P05,D05,1,1,1
540,1.25,1644596873.21875,P05,D05,1,1,1
541,1.16,1644596873.234375,P05,D05,1,1,1
542,0.98,1644596873.25,P05,D05,1,1,1
543,0.77,1644596873.265625,P05,D05,1,1,1
544,0.59,1644596873.28125,P05,D05,1,1,1
545,0.47,1644596873.296875,P05,D05,1,1,1
546,0.35,1644596873.3125,P05,D05,1,1,1
547,0.19,1644596873.328125,P05,D05,1,1,1
548,-0.03,1644596873.34375,P05,D05,1,1,1
549,-0.25,1644596873.359375,P05,D05,1,1,1
550,-0.35,1644596873.375,P05,D05,1,1,1
551,-0.24,1644596873.390625,P05,D05,1,1,1
552,0.09,1644596873.40625,P05,D05,1,1,1
553,0.51,1644596873.421875,P05,D05,1,1,1
554,0.87,1644596873.4375,P05,D05,1,1,1
555,1.02,1644596873.453125,P05,D05,1,1,1
556,0.93,1644596873.46875,P05,D05,1,1,1
557,0.67,1644596873.484375,P05,D05,1,1,1
558,0.36,1644596873.5,P05,D05,1,1,1
559,0.11,1644596873.515625,P05,D05,1,1,1
560,-0.05,1644596873.53125,P05,D05,1,1,1
561,-0.12,1644596873.546875,P05,D05,1,1,1
562,-0.17,1644596873.5625,P05,D05,1,1,1
563,-0.21,1644596873.578125,P05,D05,1,1,1
564,-0.24,1644596873.59375,P05,D05,1,1,1
565,-0.24,1644596873.609375,P05,D05,1,1,1
566,-0.21,1644596873.625,P05,D05,1,1,1
567,-0.15,1644596873.640625,P05,D05,1,1,1
568,-0.11,1644596873.65625,P05,D05,1,1,1
569,-0.14,1644596873.671875,P05,D05,1,1,1
570,-0.24,1644596873.6875,P05,D05,1,1,1
571,-0.41,1644596873.703125,P05,D05,1,1,1
572,-0.6,1644596873.71875,P05,D05,1,1,1
573,-0.74,1644596873.734375,P05,D05,1,1,1
574,-0.74,1644596873.75,P05,D05,1,1,1
575,-0.53,1644596873.765625,P05,D05,1,1,1
576,-0.12,1644596873.78125,P05,D05,1,1,1
577,0.45,1644596873.796875,P05,D05,1,1,1
578,1.04,1644596873.8125,P05,D05,1,1,1
579,1.52,1644596873.828125,P05,D05,1,1,1
580,1.79,1644596873.84375,P05,D05,1,1,1
581,1.81,1644596873.859375,P05,D05,1,1,1
582,1.62,1644596873.875,P05,D05,1,1,1
583,1.32,1644596873.890625,P05,D05,1,1,1
584,1.02,1644596873.90625,P05,D05,1,1,1
585,0.78,1644596873.921875,P05,D05,1,1,1
586,0.62,1644596873.9375,P05,D05,1,1,1
587,0.49,1644596873.953125,P05,D05,1,1,1
588,0.37,1644596873.96875,P05,D05,1,1,1
589,0.24,1644596873.984375,P05,D05,1,1,1
590,0.12,1644596874.0,P05,D05,1,1,1
591,0.04,1644596874.015625,P05,D05,1,1,1
592,0.0,1644596874.03125,P05,D05,1,1,1
593,-0.01,1644596874.046875,P05,D05,1,1,1
594,-0.05,1644596874.0625,P05,D05,1,1,1
595,-0.13,1644596874.078125,P05,D05,1,1,1
596,-0.27,1644596874.09375,P05,D05,1,1,1
597,-0.42,1644596874.109375,P05,D05,1,1,1
598,-0.52,1644596874.125,P05,D05,1,1,1
599,-0.55,1644596874.140625,P05,D05,1,1,1
600,-0.52,1644596874.15625,P05,D05,1,1,1
601,-0.46,1644596874.171875,P05,D05,1,1,1
602,-0.41,1644596874.1875,P05,D05,1,1,1
603,-0.36,1644596874.203125,P05,D05,1,1,1
604,-0.3,1644596874.21875,P05,D05,1,1,1
605,-0.25,1644596874.234375,P05,D05,1,1,1
606,-0.23,1644596874.25,P05,D05,1,1,1
607,-0.31,1644596874.265625,P05,D05,1,1,1
608,-0.5,1644596874.28125,P05,D05,1,1,1
609,-0.75,1644596874.296875,P05,D05,1,1,1
610,-0.98,1644596874.3125,P05,D05,1,1,1
611,-1.08,1644596874.328125,P05,D05,1,1,1
612,-1.01,1644596874.34375,P05,D05,1,1,1
613,-0.81,1644596874.359375,P05,D05,1,1,1
614,-0.59,1644596874.375,P05,D05,1,1,1
615,-0.47,1644596874.390625,P05,D05,1,1,1
616,-0.47,1644596874.40625,P05,D05,1,1,1
617,-0.56,1644596874.421875,P05,D05,1,1,1
618,-0.62,1644596874.4375,P05,D05,1,1,1
619,-0.57,1644596874.453125,P05,D05,1,1,1
620,-0.4,1644596874.46875,P05,D05,1,1,1
621,-0.19,1644596874.484375,P05,D05,1,1,1
622,-0.04,1644596874.5,P05,D05,1,1,1
623,-0.03,1644596874.515625,P05,D05,1,1,1
624,-0.18,1644596874.53125,P05,D05,1,1,1
625,-0.4,1644596874.546875,P05,D05,1,1,1
626,-0.59,1644596874.5625,P05,D05,1,1,1
627,-0.68,1644596874.578125,P05,D05,1,1,1
628,-0.62,1644596874.59375,P05,D05,1,1,1
629,-0.45,1644596874.609375,P05,D05,1,1,1
630,-0.23,1644596874.625,P05,D05,1,1,1
631,-0.04,1644596874.640625,P05,D05,1,1,1
632,0.06,1644596874.65625,P05,D05,1,1,1
633,0.04,1644596874.671875,P05,D05,1,1,1
634,-0.07,1644596874.6875,P05,D05,1,1,1
635,-0.23,1644596874.703125,P05,D05,1,1,1
636,-0.35,1644596874.71875,P05,D05,1,1,1
637,-0.39,1644596874.734375,P05,D05,1,1,1
638,-0.33,1644596874.75,P05,D05,1,1,1
639,-0.21,1644596874.765625,P05,D05,1,1,1
640,-0.12,1644596874.78125,P05,D05,1,1,1
641,-0.17,1644596874.796875,P05,D05,1,1,1
642,-0.42,1644596874.8125,P05,D05,1,1,1
643,-0.84,1644596874.828125,P05,D05,1,1,1
644,-1.34,1644596874.84375,P05,D05,1,1,1
645,-1.72,1644596874.859375,P05,D05,1,1,1
646,-1.83,1644596874.875,P05,D05,1,1,1
647,-1.6,1644596874.890625,P05,D05,1,1,1
648,-1.08,1644596874.90625,P05,D05,1,1,1
649,-0.42,1644596874.921875,P05,D05,1,1,1
650,0.23,1644596874.9375,P05,D05,1,1,1
651,0.75,1644596874.953125,P05,D05,1,1,1
652,1.12,1644596874.96875,P05,D05,1,1,1
653,1.33,1644596874.984375,P05,D05,1,1,1
654,1.42,1644596875.0,P05,D05,1,1,1
655,1.38,1644596875.015625,P05,D05,1,1,1
656,1.18,1644596875.03125,P05,D05,1,1,1
657,0.85,1644596875.046875,P05,D05,1,1,1
658,0.43,1644596875.0625,P05,D05,1,1,1
659,0.0,1644596875.078125,P05,D05,1,1,1
660,-0.31,1644596875.09375,P05,D05,1,1,1
661,-0.44,1644596875.109375,P05,D05,1,1,1
662,-0.35,1644596875.125,P05,D05,1,1,1
663,-0.09,1644596875.140625,P05,D05,1,1,1
664,0.24,1644596875.15625,P05,D05,1,1,1
665,0.53,1644596875.171875,P05,D05,1,1,1
666,0.72,1644596875.1875,P05,D05,1,1,1
667,0.76,1644596875.203125,P05,D05,1,1,1
668,0.69,1644596875.21875,P05,D05,1,1,1
669,0.58,1644596875.234375,P05,D05,1,1,1
670,0.51,1644596875.25,P05,D05,1,1,1
671,0.53,1644596875.265625,P05,D05,1,1,1
672,0.65,1644596875.28125,P05,D05,1,1,1
673,0.84,1644596875.296875,P05,D05,1,1,1
674,1.01,1644596875.3125,P05,D05,1,1,1
675,1.05,1644596875.328125,P05,D05,1,1,1
676,0.91,1644596875.34375,P05,D05,1,1,1
677,0.57,1644596875.359375,P05,D05,1,1,1
678,0.1,1644596875.375,P05,D05,1,1,1
679,-0.38,1644596875.390625,P05,D05,1,1,1
680,-0.74,1644596875.40625,P05,D05,1,1,1
681,-0.9,1644596875.421875,P05,D05,1,1,1
682,-0.84,1644596875.4375,P05,D05,1,1,1
683,-0.64,1644596875.453125,P05,D05,1,1,1
684,-0.41,1644596875.46875,P05,D05,1,1,1
685,-0.25,1644596875.484375,P05,D05,1,1,1
686,-0.17,1644596875.5,P05,D05,1,1,1
687,-0.14,1644596875.515625,P05,D05,1,1,1
688,-0.09,1644596875.53125,P05,D05,1,1,1
689,-0.0,1644596875.546875,P05,D05,1,1,1
690,0.11,1644596875.5625,P05,D05,1,1,1
691,0.21,1644596875.578125,P05,D05,1,1,1
692,0.28,1644596875.59375,P05,D05,1,1,1
693,0.33,1644596875.609375,P05,D05,1,1,1
694,0.41,1644596875.625,P05,D05,1,1,1
695,0.54,1644596875.640625,P05,D05,1,1,1
696,0.71,1644596875.65625,P05,D05,1,1,1
697,0.83,1644596875.671875,P05,D05,1,1,1
698,0.82,1644596875.6875,P05,D05,1,1,1
699,0.58,1644596875.703125,P05,D05,1,1,1
700,0.1,1644596875.71875,P05,D05,1,1,1
701,-0.54,1644596875.734375,P05,D05,1,1,1
702,-1.17,1644596875.75,P05,D05,1,1,1
703,-1.64,1644596875.765625,P05,D05,1,1,1
704,-1.82,1644596875.78125,P05,D05,1,1,1
705,-1.68,1644596875.796875,P05,D05,1,1,1
706,-1.31,1644596875.8125,P05,D05,1,1,1
707,-0.82,1644596875.828125,P05,D05,1,1,1
708,-0.33,1644596875.84375,P05,D05,1,1,1
709,0.07,1644596875.859375,P05,D05,1,1,1
710,0.36,1644596875.875,P05,D05,1,1,1
711,0.53,1644596875.890625,P05,D05,1,1,1
712,0.54,1644596875.90625,P05,D05,1,1,1
713,0.41,1644596875.921875,P05,D05,1,1,1
714,0.17,1644596875.9375,P05,D05,1,1,1
715,-0.1,1644596875.953125,P05,D05,1,1,1
716,-0.26,1644596875.96875,P05,D05,1,1,1
717,-0.23,1644596875.984375,P05,D05,1,1,1
718,-0.02,1644596876.0,P05,D05,1,1,1
719,0.24,1644596876.015625,P05,D05,1,1,1
720,0.4,1644596876.03125,P05,D05,1,1,1
721,0.37,1644596876.046875,P05,D05,1,1,1
722,0.21,1644596876.0625,P05,D05,1,1,1
723,0.04,1644596876.078125,P05,D05,1,1,1
724,0.01,1644596876.09375,P05,D05,1,1,1
725,0.18,1644596876.109375,P05,D05,1,1,1
726,0.49,1644596876.125,P05,D05,1,1,1
727,0.83,1644596876.140625,P05,D05,1,1,1
728,1.13,1644596876.15625,P05,D05,1,1,1
729,1.33,1644596876.171875,P05,D05,1,1,1
730,1.47,1644596876.1875,P05,D05,1,1,1
731,1.58,1644596876.203125,P05,D05,1,1,1
732,1.65,1644596876.21875,P05,D05,1,1,1
733,1.64,1644596876.234375,P05,D05,1,1,1
734,1.53,1644596876.25,P05,D05,1,1,1
735,1.3,1644596876.265625,P05,D05,1,1,1
736,1.0,1644596876.28125,P05,D05,1,1,1
737,0.69,1644596876.296875,P05,D05,1,1,1
738,0.4,1644596876.3125,P05,D05,1,1,1
739,0.18,1644596876.328125,P05,D05,1,1,1
740,0.03,1644596876.34375,P05,D05,1,1,1
741,-0.06,1644596876.359375,P05,D05,1,1,1
742,-0.11,1644596876.375,P05,D05,1,1,1
743,-0.14,1644596876.390625,P05,D05,1,1,1
744,-0.18,1644596876.40625,P05,D05,1,1,1
745,-0.26,1644596876.421875,P05,D05,1,1,1
746,-0.39,1644596876.4375,P05,D05,1,1,1
747,-0.54,1644596876.453125,P05,D05,1,1,1
748,-0.66,1644596876.46875,P05,D05,1,1,1
749,-0.68,1644596876.484375,P05,D05,1,1,1
750,-0.6,1644596876.5,P05,D05,1,1,1
751,-0.44,1644596876.515625,P05,D05,1,1,1
752,-0.27,1644596876.53125,P05,D05,1,1,1
753,-0.21,1644596876.546875,P05,D05,1,1,1
754,-0.29,1644596876.5625,P05,D05,1,1,1
755,-0.51,1644596876.578125,P05,D05,1,1,1
756,-0.78,1644596876.59375,P05,D05,1,1,1
757,-0.99,1644596876.609375,P05,D05,1,1,1
758,-1.08,1644596876.625,P05,D05,1,1,1
759,-1.06,1644596876.640625,P05,D05,1,1,1
760,-1.0,1644596876.65625,P05,D05,1,1,1
761,-0.99,1644596876.671875,P05,D05,1,1,1
762,-1.03,1644596876.6875,P05,D05,1,1,1
763,-1.08,1644596876.703125,P05,D05,1,1,1
764,-1.04,1644596876.71875,P05,D05,1,1,1
765,-0.86,1644596876.734375,P05,D05,1,1,1
766,-0.53,1644596876.75,P05,D05,1,1,1
767,-0.12,1644596876.765625,P05,D05,1,1,1
768,0.27,1644596876.78125,P05,D05,1,1,1
769,0.59,1644596876.796875,P05,D05,1,1,1
770,0.8,1644596876.8125,P05,D05,1,1,1
771,0.92,1644596876.828125,P05,D05,1,1,1
772,0.97,1644596876.84375,P05,D05,1,1,1
773,0.94,1644596876.859375,P05,D05,1,1,1
774,0.85,1644596876.875,P05,D05,1,1,1
775,0.73,1644596876.890625,P05,D05,1,1,1
776,0.65,1644596876.90625,P05,D05,1,1,1
777,0.69,1644596876.921875,P05,D05,1,1,1
778,0.85,1644596876.9375,P05,D05,1,1,1
779,1.08,1644596876.953125,P05,D05,1,1,1
780,1.22,1644596876.96875,P05,D05,1,1,1
781,1.17,1644596876.984375,P05,D05,1,1,1
782,0.9,1644596877.0,P05,D05,1,1,1
783,0.55,1644596877.015625,P05,D05,1,1,1
784,0.27,1644596877.03125,P05,D05,1,1,1
785,0.21,1644596877.046875,P05,D05,1,1,1
786,0.36,1644596877.0625,P05,D05,1,1,1
787,0.61,1644596877.078125,P05,D05,1,1,1
788,0.75,1644596877.09375,P05,D05,1,1,1
789,0.67,1644596877.109375,P05,D05,1,1,1
790,0.39,1644596877.125,P05,D05,1,1,1
791,0.05,1644596877.140625,P05,D05,1,1,1
792,-0.18,1644596877.15625,P05,D05,1,1,1
793,-0.21,1644596877.171875,P05,D05,1,1,1
794,-0.1,1644596877.1875,P05,D05,1,1,1
795,-0.0,1644596877.203125,P05,D05,1,1,1
796,-0.06,1644596877.21875,P05,D05,1,1,1
797,-0.33,1644596877.234375,P05,D05,1,1,1
798,-0.73,1644596877.25,P05,D05,1,1,1
799,-1.08,1644596877.265625,P05,D05,1,1,1
800,-1.2,1644596877.28125,P05,D05,1,1,1
801,-1.02,1644596877.296875,P05,D05,1,1,1
802,-0.66,1644596877.3125,P05,D05,1,1,1
803,-0.28,1644596877.328125,P05,D05,1,1,1
804,-0.09,1644596877.34375,P05,D05,1,1,1
805,-0.16,1644596877.359375,P05,D05,1,1,1
806,-0.42,1644596877.375,P05,D05,1,1,1
807,-0.71,1644596877.390625,P05,D05,1,1,1
808,-0.86,1644596877.40625,P05,D05,1,1,1
809,-0.83,1644596877.421875,P05,D05,1,1,1
810,-0.67,1644596877.4375,P05,D05,1,1,1
811,-0.47,1644596877.453125,P05,D05,1,1,1
812,-0.32,1644596877.46875,P05,D05,1,1,1
813,-0.22,1644596877.484375,P05,D05,1,1,1
814,-0.11,1644596877.5,P05,D05,1,1,1
815,0.05,1644596877.515625,P05,D05,1,1,1
816,0.29,1644596877.53125,P05,D05,1,1,1
817,0.57,1644596877.546875,P05,D05,1,1,1
818,0.8,1644596877.5625,P05,D05,1,1,1
819,0.94,1644596877.578125,P05,D05,1,1,1
820,0.97,1644596877.59375,P05,D05,1,1,1
821,0.88,1644596877.609375,P05,D05,1,1,1
822,0.7,1644596877.625,P05,D05,1,1,1
823,0.45,1644596877.640625,P05,D05,1,1,1
824,0.14,1644596877.65625,P05,D05,1,1,1
825,-0.23,1644596877.671875,P05,D05,1,1,1
826,-0.64,1644596877.6875,P05,D05,1,1,1
827,-1.04,1644596877.703125,P05,D05,1,1,1
828,-1.37,1644596877.71875,P05,D05,1,1,1
829,-1.53,1644596877.734375,P05,D05,1,1,1
830,-1.48,1644596877.75,P05,D05,1,1,1
831,-1.21,1644596877.765625,P05,D05,1,1,1
832,-0.81,1644596877.78125,P05,D05,1,1,1
833,-0.4,1644596877.796875,P05,D05,1,1,1
834,-0.09,1644596877.8125,P05,D05,1,1,1
835,0.08,1644596877.828125,P05,D05,1,1,1
836,0.14,1644596877.84375,P05,D05,1,1,1
837,0.13,1644596877.859375,P05,D05,1,1,1
838,0.1,1644596877.875,P05,D05,1,1,1
839,0.04,1644596877.890625,P05,D05,1,1,1
840,-0.08,1644596877.90625,P05,D05,1,1,1
841,-0.23,1644596877.921875,P05,D05,1,1,1
842,-0.38,1644596877.9375,P05,D05,1,1,1
843,-0.47,1644596877.953125,P05,D05,1,1,1
844,-0.46,1644596877.96875,P05,D05,1,1,1
845,-0.36,1644596877.984375,P05,D05,1,1,1
846,-0.24,1644596878.0,P05,D05,1,1,1
847,-0.17,1644596878.015625,P05,D05,1,1,1
848,-0.16,1644596878.03125,P05,D05,1,1,1
849,-0.2,1644596878.046875,P05,D05,1,1,1
850,-0.21,1644596878.0625,P05,D05,1,1,1
851,-0.17,1644596878.078125,P05,D05,1,1,1
852,-0.09,1644596878.09375,P05,D05,1,1,1
853,-0.0,1644596878.109375,P05,D05,1,1,1
854,0.04,1644596878.125,P05,D05,1,1,1
855,0.04,1644596878.140625,P05,D05,1,1,1
856,0.01,1644596878.15625,P05,D05,1,1,1
857,-0.03,1644596878.171875,P05,D05,1,1,1
858,-0.05,1644596878.1875,P05,D05,1,1,1
859,-0.04,1644596878.203125,P05,D05,1,1,1
860,0.01,1644596878.21875,P05,D05,1,1,1
861,0.09,1644596878.234375,P05,D05,1,1,1
862,0.21,1644596878.25,P05,D05,1,1,1
863,0.35,1644596878.265625,P05,D05,1,1,1
864,0.45,1644596878.28125,P05,D05,1,1,1
865,0.43,1644596878.296875,P05,D05,1,1,1
866,0.23,1644596878.3125,P05,D05,1,1,1
867,-0.13,1644596878.328125,P05,D05,1,1,1
868,-0.58,1644596878.34375,P05,D05,1,1,1
869,-0.95,1644596878.359375,P05,D05,1,1,1
870,-1.11,1644596878.375,P05,D05,1,1,1
871,-0.97,1644596878.390625,P05,D05,1,1,1
872,-0.56,1644596878.40625,P05,D05,1,1,1
873,-0.0,1644596878.421875,P05,D05,1,1,1
874,0.52,1644596878.4375,P05,D05,1,1,1
875,0.85,1644596878.453125,P05,D05,1,1,1
876,0.88,1644596878.46875,P05,D05,1,1,1
877,0.63,1644596878.484375,P05,D05,1,1,1
878,0.23,1644596878.5,P05,D05,1,1,1
879,-0.17,1644596878.515625,P05,D05,1,1,1
880,-0.41,1644596878.53125,P05,D05,1,1,1
881,-0.43,1644596878.546875,P05,D05,1,1,1
882,-0.28,1644596878.5625,P05,D05,1,1,1
883,-0.04,1644596878.578125,P05,D05,1,1,1
884,0.16,1644596878.59375,P05,D05,1,1,1
885,0.29,1644596878.609375,P05,D05,1,1,1
886,0.34,1644596878.625,P05,D05,1,1,1
887,0.36,1644596878.640625,P05,D05,1,1,1
888,0.37,1644596878.65625,P05,D05,1,1,1
889,0.34,1644596878.671875,P05,D05,1,1,1
890,0.27,1644596878.6875,P05,D05,1,1,1
891,0.14,1644596878.703125,P05,D05,1,1,1
892,-0.01,1644596878.71875,P05,D05,1,1,1
893,-0.09,1644596878.734375,P05,D05,1,1,1
894,-0.05,1644596878.75,P05,D05,1,1,1
895,0.13,1644596878.765625,P05,D05,1,1,1
896,0.42,1644596878.78125,P05,D05,1,1,1
897,0.72,1644596878.796875,P05,D05,1,1,1
898,0.95,1644596878.8125,P05,D05,1,1,1
899,1.06,1644596878.828125,P05,D05,1,1,1
900,1.06,1644596878.84375,P05,D05,1,1,1
901,1.02,1644596878.859375,P05,D05,1,1,1
902,1.0,1644596878.875,P05,D05,1,1,1
903,1.05,1644596878.890625,P05,D05,1,1,1
904,1.14,1644596878.90625,P05,D05,1,1,1
905,1.17,1644596878.921875,P05,D05,1,1,1
906,1.05,1644596878.9375,P05,D05,1,1,1
907,0.69,1644596878.953125,P05,D05,1,1,1
908,0.15,1644596878.96875,P05,D05,1,1,1
909,-0.44,1644596878.984375,P05,D05,1,1,1
910,-0.9,1644596879.0,P05,D05,1,1,1
911,-1.12,1644596879.015625,P05,D05,1,1,1
912,-1.1,1644596879.03125,P05,D05,1,1,1
913,-0.98,1644596879.046875,P05,D05,1,1,1
914,-0.89,1644596879.0625,P05,D05,1,1,1
915,-0.93,1644596879.078125,P05,D05,1,1,1
916,-1.04,1644596879.09375,P05,D05,1,1,1
917,-1.1,1644596879.109375,P05,D05,1,1,1
918,-0.99,1644596879.125,P05,D05,1,1,1
919,-0.68,1644596879.140625,P05,D05,1,1,1
920,-0.26,1644596879.15625,P05,D05,1,1,1
921,0.13,1644596879.171875,P05,D05,1,1,1
922,0.35,1644596879.1875,P05,D05,1,1,1
923,0.36,1644596879.203125,P05,D05,1,1,1
924,0.21,1644596879.21875,P05,D05,1,1,1
925,0.02,1644596879.234375,P05,D05,1,1,1
926,-0.12,1644596879.25,P05,D05,1,1,1
927,-0.18,1644596879.265625,P05,D05,1,1,1
928,-0.16,1644596879.28125,P05,D05,1,1,1
929,-0.1,1644596879.296875,P05,D05,1,1,1
930,-0.04,1644596879.3125,P05,D05,1,1,1
931,-0.01,1644596879.328125,P05,D05,1,1,1
932,-0.0,1644596879.34375,P05,D05,1,1,1
933,-0.03,1644596879.359375,P05,D05,1,1,1
934,-0.11,1644596879.375,P05,D05,1,1,1
935,-0.23,1644596879.390625,P05,D05,1,1,1
936,-0.4,1644596879.40625,P05,D05,1,1,1
937,-0.56,1644596879.421875,P05,D05,1,1,1
938,-0.67,1644596879.4375,P05,D05,1,1,1
939,-0.66,1644596879.453125,P05,D05,1,1,1
940,-0.51,1644596879.46875,P05,D05,1,1,1
941,-0.21,1644596879.484375,P05,D05,1,1,1
942,0.21,1644596879.5,P05,D05,1,1,1
943,0.7,1644596879.515625,P05,D05,1,1,1
944,1.18,1644596879.53125,P05,D05,1,1,1
945,1.55,1644596879.546875,P05,D05,1,1,1
946,1.72,1644596879.5625,P05,D05,1,1,1
947,1.64,1644596879.578125,P05,D05,1,1,1
948,1.34,1644596879.59375,P05,D05,1,1,1
949,0.9,1644596879.609375,P05,D05,1,1,1
950,0.44,1644596879.625,P05,D05,1,1,1
951,0.07,1644596879.640625,P05,D05,1,1,1
952,-0.17,1644596879.65625,P05,D05,1,1,1
953,-0.28,1644596879.671875,P05,D05,1,1,1
954,-0.27,1644596879.6875,P05,D05,1,1,1
955,-0.16,1644596879.703125,P05,D05,1,1,1
956,0.03,1644596879.71875,P05,D05,1,1,1
957,0.27,1644596879.734375,P05,D05,1,1,1
958,0.52,1644596879.75,P05,D05,1,1,1
959,0.71,1644596879.765625,P05,D05,1,1,1
960,0.79,1644596879.78125,P05,D05,1,1,1
961,0.73,1644596879.796875,P05,D05,1,1,1
962,0.58,1644596879.8125,P05,D05,1,1,1
963,0.38,1644596879.828125,P05,D05,1,1,1
964,0.17,1644596879.84375,P05,D05,1,1,1
965,-0.02,1644596879.859375,P05,D05,1,1,1
966,-0.2,1644596879.875,P05,D05,1,1,1
967,-0.37,1644596879.890625,P05,D05,1,1,1
968,-0.51,1644596879.90625,P05,D05,1,1,1
969,-0.58,1644596879.921875,P05,D05,1,1,1
970,-0.55,1644596879.9375,P05,D05,1,1,1
971,-0.4,1644596879.953125,P05,D05,1,1,1
972,-0.17,1644596879.96875,P05,D05,1,1,1
973,0.07,1644596879.984375,P05,D05,1,1,1
974,0.24,1644596880.0,P05,D05,1,1,1
975,0.26,1644596880.015625,P05,D05,1,1,1
976,0.13,1644596880.03125,P05,D05,1,1,1
977,-0.12,1644596880.046875,P05,D05,1,1,1
978,-0.4,1644596880.0625,P05,D05,1,1,1
979,-0.62,1644596880.078125,P05,D05,1,1,1
980,-0.71,1644596880.09375,P05,D05,1,1,1
981,-0.67,1644596880.109375,P05,D05,1,1,1
982,-0.52,1644596880.125,P05,D05,1,1,1
983,-0.32,1644596880.140625,P05,D05,1,1,1
984,-0.14,1644596880.15625,P05,D05,1,1,1
985,0.02,1644596880.171875,P05,D05,1,1,1
986,0.14,1644596880.1875,P05,D05,1,1,1
987,0.26,1644596880.203125,P05,D05,1,1,1
988,0.43,1644596880.21875,P05,D05,1,1,1
989,0.67,1644596880.234375,P05,D05,1,1,1
990,0.98,1644596880.25,P05,D05,1,1,1
991,1.29,1644596880.265625,P05,D05,1,1,1
992,1.51,1644596880.28125,P05,D05,1,1,1
993,1.57,1644596880.296875,P05,D05,1,1,1
994,1.42,1644596880.3125,P05,D05,1,1,1
995,1.1,1644596880.328125,P05,D05,1,1,1
996,0.71,1644596880.34375,P05,D05,1,1,1
997,0.39,1644596880.359375,P05,D05,1,1,1
998,0.22,1644596880.375,P05,D05,1,1,1
999,0.18,1644596880.390625,P05,D05,1,1,1
1000,0.23,1644596880.40625,P05,D05,1,1,1
1001,0.27,1644596880.421875,P05,D05,1,1,1
1002,0.25,1644596880.4375,P05,D05,1,1,1
1003,0.16,1644596880.453125,P05,D05,1,1,1
1004,0.05,1644596880.46875,P05,D05,1,1,1
1005,-0.04,1644596880.484375,P05,D05,1,1,1
1006,-0.08,1644596880.5,P05,D05,1,1,1
1007,-0.06,1644596880.515625,P05,D05,1,1,1
1008,-0.0,1644596880.53125,P05,D05,1,1,1
1009,0.09,1644596880.546875,P05,D05,1,1,1
1010,0.18,1644596880.5625,P05,D05,1,1,1
1011,0.23,1644596880.578125,P05,D05,1,1,1
1012,0.22,1644596880.59375,P05,D05,1,1,1
1013,0.11,1644596880.609375,P05,D05,1,1,1
1014,-0.09,1644596880.625,P05,D05,1,1,1
1015,-0.33,1644596880.640625,P05,D05,1,1,1
1016,-0.51,1644596880.65625,P05,D05,1,1,1
1017,-0.58,1644596880.671875,P05,D05,1,1,1
1018,-0.51,1644596880.6875,P05,D05,1,1,1
1019,-0.38,1644596880.703125,P05,D05,1,1,1
1020,-0.26,1644596880.71875,P05,D05,1,1,1
1021,-0.2,1644596880.734375,P05,D05,1,1,1
1022,-0.22,1644596880.75,P05,D05,1,1,1
1023,-0.29,1644596880.765625,P05,D05,1,1,1
1024,-0.37,1644596880.78125,P05,D05,1,1,1
1025,-0.48,1644596880.796875,P05,D05,1,1,1
1026,-0.65,1644596880.8125,P05,D05,1,1,1
1027,-0.91,1644596880.828125,P05,D05,1,1,1
1028,-1.25,1644596880.84375,P05,D05,1,1,1
1029,-1.59,1644596880.859375,P05,D05,1,1,1
1030,-1.82,1644596880.875,P05,D05,1,1,1
1031,-1.87,1644596880.890625,P05,D05,1,1,1
1032,-1.72,1644596880.90625,P05,D05,1,1,1
1033,-1.39,1644596880.921875,P05,D05,1,1,1
1034,-0.96,1644596880.9375,P05,D05,1,1,1
1035,-0.52,1644596880.953125,P05,D05,1,1,1
1036,-0.1,1644596880.96875,P05,D05,1,1,1
1037,0.26,1644596880.984375,P05,D05,1,1,1
1038,0.51,1644596881.0,P05,D05,1,1,1
1039,0.63,1644596881.015625,P05,D05,1,1,1
1040,0.55,1644596881.03125,P05,D05,1,1,1
1041,0.29,1644596881.046875,P05,D05,1,1,1
1042,-0.1,1644596881.0625,P05,D05,1,1,1
1043,-0.54,1644596881.078125,P05,D05,1,1,1
1044,-0.93,1644596881.09375,P05,D05,1,1,1
1045,-1.22,1644596881.109375,P05,D05,1,1,1
1046,-1.42,1644596881.125,P05,D05,1,1,1
1047,-1.58,1644596881.140625,P05,D05,1,1,1
1048,-1.74,1644596881.15625,P05,D05,1,1,1
1049,-1.86,1644596881.171875,P05,D05,1,1,1
1050,-1.89,1644596881.1875,P05,D05,1,1,1
1051,-1.73,1644596881.203125,P05,D05,1,1,1
1052,-1.36,1644596881.21875,P05,D05,1,1,1
1053,-0.8,1644596881.234375,P05,D05,1,1,1
1054,-0.15,1644596881.25,P05,D05,1,1,1
1055,0.47,1644596881.265625,P05,D05,1,1,1
1056,0.94,1644596881.28125,P05,D05,1,1,1
1057,1.21,1644596881.296875,P05,D05,1,1,1
1058,1.26,1644596881.3125,P05,D05,1,1,1
1059,1.12,1644596881.328125,P05,D05,1,1,1
1060,0.82,1644596881.34375,P05,D05,1,1,1
1061,0.46,1644596881.359375,P05,D05,1,1,1
1062,0.11,1644596881.375,P05,D05,1,1,1
1063,-0.16,1644596881.390625,P05,D05,1,1,1
1064,-0.31,1644596881.40625,P05,D05,1,1,1
1065,-0.38,1644596881.421875,P05,D05,1,1,1
1066,-0.42,1644596881.4375,P05,D05,1,1,1
1067,-0.49,1644596881.453125,P05,D05,1,1,1
1068,-0.59,1644596881.46875,P05,D05,1,1,1
1069,-0.67,1644596881.484375,P05,D05,1,1,1
1070,-0.65,1644596881.5,P05,D05,1,1,1
1071,-0.49,1644596881.515625,P05,D05,1,1,1
1072,-0.23,1644596881.53125,P05,D05,1,1,1
1073,0.06,1644596881.546875,P05,D05,1,1,1
1074,0.3,1644596881.5625,P05,D05,1,1,1
1075,0.43,1644596881.578125,P05,D05,1,1,1
1076,0.48,1644596881.59375,P05,D05,1,1,1
1077,0.47,1644596881.609375,P05,D05,1,1,1
1078,0.44,1644596881.625,P05,D05,1,1,1
1079,0.44,1644596881.640625,P05,D05,1,1,1
1080,0.45,1644596881.65625,P05,D05,1,1,1
1081,0.46,1644596881.671875,P05,D05,1,1,1
1082,0.49,1644596881.6875,P05,D05,1,1,1
1083,0.53,1644596881.703125,P05,D05,1,1,1
1084,0.58,1644596881.71875,P05,D05,1,1,1
1085,0.63,1644596881.734375,P05,D05,1,1,1
1086,0.69,1644596881.75,P05,D05,1,1,1
1087,0.76,1644596881.765625,P05,D05,1,1,1
1088,0.86,1644596881.78125,P05,D05,1,1,1
1089,0.97,1644596881.796875,P05,D05,1,1,1
1090,1.08,1644596881.8125,P05,D05,1,1,1
1091,1.16,1644596881.828125,P05,D05,1,1,1
1092,1.2,1644596881.84375,P05,D05,1,1,1
1093,1.18,1644596881.859375,P05,D05,1,1,1
1094,1.09,1644596881.875,P05,D05,1,1,1
1095,0.89,1644596881.890625,P05,D05,1,1,1
1096,0.57,1644596881.90625,P05,D05,1,1,1
1097,0.12,1644596881.921875,P05,D05,1,1,1
1098,-0.4,1644596881.9375,P05,D05,1,1,1
1099,-0.86,1644596881.953125,P05,D05,1,1,1
1100,-1.12,1644596881.96875,P05,D05,1,1,1
1101,-1.09,1644596881.984375,P05,D05,1,1,1
1102,-0.82,1644596882.0,P05,D05,1,1,1
1103,-0.42,1644596882.015625,P05,D05,1,1,1
1104,-0.05,1644596882.03125,P05,D05,1,1,1
1105,0.2,1644596882.046875,P05,D05,1,1,1
1106,0.31,1644596882.0625,P05,D05,1,1,1
1107,0.3,1644596882.078125,P05,D05,1,1,1
1108,0.21,1644596882.09375,P05,D05,1,1,1
1109,0.06,1644596882.109375,P05,D05,1,1,1
1110,-0.14,1644596882.125,P05,D05,1,1,1
1111,-0.34,1644596882.140625,P05,D05,1,1,1
1112,-0.46,1644596882.15625,P05,D05,1,1,1
1113,-0.43,1644596882.171875,P05,D05,1,1,1
1114,-0.22,1644596882.1875,P05,D05,1,1,1
1115,0.11,1644596882.203125,P05,D05,1,1,1
1116,0.45,1644596882.21875,P05,D05,1,1,1
1117,0.67,1644596882.234375,P05,D05,1,1,1
1118,0.71,1644596882.25,P05,D05,1,1,1
1119,0.58,1644596882.265625,P05,D05,1,1,1
1120,0.35,1644596882.28125,P05,D05,1,1,1
1121,0.09,1644596882.296875,P05,D05,1,1,1
1122,-0.12,1644596882.3125,P05,D05,1,1,1
1123,-0.22,1644596882.328125,P05,D05,1,1,1
1124,-0.17,1644596882.34375,P05,D05,1,1,1
1125,0.01,1644596882.359375,P05,D05,1,1,1
1126,0.27,1644596882.375,P05,D05,1,1,1
1127,0.51,1644596882.390625,P05,D05,1,1,1
1128,0.65,1644596882.40625,P05,D05,1,1,1
1129,0.64,1644596882.421875,P05,D05,1,1,1
1130,0.51,1644596882.4375,P05,D05,1,1,1
1131,0.32,1644596882.453125,P05,D05,1,1,1
1132,0.14,1644596882.46875,P05,D05,1,1,1
1133,0.03,1644596882.484375,P05,D05,1,1,1
1134,-0.03,1644596882.5,P05,D05,1,1,1
1135,-0.06,1644596882.515625,P05,D05,1,1,1
1136,-0.08,1644596882.53125,P05,D05,1,1,1
1137,-0.06,1644596882.546875,P05,D05,1,1,1
1138,0.08,1644596882.5625,P05,D05,1,1,1
1139,0.35,1644596882.578125,P05,D05,1,1,1
1140,0.73,1644596882.59375,P05,D05,1,1,1
1141,1.08,1644596882.609375,P05,D05,1,1,1
1142,1.26,1644596882.625,P05,D05,1,1,1
1143,1.17,1644596882.640625,P05,D05,1,1,1
1144,0.81,1644596882.65625,P05,D05,1,1,1
1145,0.31,1644596882.671875,P05,D05,1,1,1
1146,-0.19,1644596882.6875,P05,D05,1,1,1
1147,-0.52,1644596882.703125,P05,D05,1,1,1
1148,-0.63,1644596882.71875,P05,D05,1,1,1
1149,-0.56,1644596882.734375,P05,D05,1,1,1
1150,-0.43,1644596882.75,P05,D05,1,1,1
1151,-0.38,1644596882.765625,P05,D05,1,1,1
1152,-0.47,1644596882.78125,P05,D05,1,1,1
1153,-0.67,1644596882.796875,P05,D05,1,1,1
1154,-0.86,1644596882.8125,P05,D05,1,1,1
1155,-0.92,1644596882.828125,P05,D05,1,1,1
1156,-0.82,1644596882.84375,P05,D05,1,1,1
1157,-0.6,1644596882.859375,P05,D05,1,1,1
1158,-0.39,1644596882.875,P05,D05,1,1,1
1159,-0.34,1644596882.890625,P05,D05,1,1,1
1160,-0.47,1644596882.90625,P05,D05,1,1,1
1161,-0.69,1644596882.921875,P05,D05,1,1,1
1162,-0.81,1644596882.9375,P05,D05,1,1,1
1163,-0.67,1644596882.953125,P05,D05,1,1,1
1164,-0.23,1644596882.96875,P05,D05,1,1,1
1165,0.36,1644596882.984375,P05,D05,1,1,1
1166,0.86,1644596883.0,P05,D05,1,1,1
1167,1.06,1644596883.015625,P05,D05,1,1,1
1168,0.93,1644596883.03125,P05,D05,1,1,1
1169,0.58,1644596883.046875,P05,D05,1,1,1
1170,0.23,1644596883.0625,P05,D05,1,1,1
1171,0.04,1644596883.078125,P05,D05,1,1,1
1172,0.06,1644596883.09375,P05,D05,1,1,1
1173,0.16,1644596883.109375,P05,D05,1,1,1
1174,0.17,1644596883.125,P05,D05,1,1,1
1175,-0.04,1644596883.140625,P05,D05,1,1,1
1176,-0.42,1644596883.15625,P05,D05,1,1,1
1177,-0.78,1644596883.171875,P05,D05,1,1,1
1178,-0.94,1644596883.1875,P05,D05,1,1,1
1179,-0.81,1644596883.203125,P05,D05,1,1,1
1180,-0.49,1644596883.21875,P05,D05,1,1,1
1181,-0.12,1644596883.234375,P05,D05,1,1,1
1182,0.16,1644596883.25,P05,D05,1,1,1
1183,0.3,1644596883.265625,P05,D05,1,1,1
1184,0.38,1644596883.28125,P05,D05,1,1,1
1185,0.49,1644596883.296875,P05,D05,1,1,1
1186,0.64,1644596883.3125,P05,D05,1,1,1
1187,0.77,1644596883.328125,P05,D05,1,1,1
1188,0.75,1644596883.34375,P05,D05,1,1,1
1189,0.54,1644596883.359375,P05,D05,1,1,1
1190,0.2,1644596883.375,P05,D05,1,1,1
1191,-0.11,1644596883.390625,P05,D05,1,1,1
1192,-0.28,1644596883.40625,P05,D05,1,1,1
1193,-0.25,1644596883.421875,P05,D05,1,1,1
1194,-0.13,1644596883.4375,P05,D05,1,1,1
1195,-0.06,1644596883.453125,P05,D05,1,1,1
1196,-0.12,1644596883.46875,P05,D05,1,1,1
1197,-0.3,1644596883.484375,P05,D05,1,1,1
1198,-0.49,1644596883.5,P05,D05,1,1,1
1199,-0.59,1644596883.515625,P05,D05,1,1,1
1200,-0.58,1644596883.53125,P05,D05,1,1,1
1201,-0.48,1644596883.546875,P05,D05,1,1,1
1202,-0.36,1644596883.5625,P05,D05,1,1,1
1203,-0.25,1644596883.578125,P05,D05,1,1,1
1204,-0.14,1644596883.59375,P05,D05,1,1,1
1205,-0.01,1644596883.609375,P05,D05,1,1,1
1206,0.16,1644596883.625,P05,D05,1,1,1
1207,0.32,1644596883.640625,P05,D05,1,1,1
1208,0.41,1644596883.65625,P05,D05,1,1,1
1209,0.37,1644596883.671875,P05,D05,1,1,1
1210,0.21,1644596883.6875,P05,D05,1,1,1
1211,0.0,1644596883.703125,P05,D05,1,1,1
1212,-0.16,1644596883.71875,P05,D05,1,1,1
1213,-0.19,1644596883.734375,P05,D05,1,1,1
1214,-0.07,1644596883.75,P05,D05,1,1,1
1215,0.17,1644596883.765625,P05,D05,1,1,1
1216,0.46,1644596883.78125,P05,D05,1,1,1
1217,0.73,1644596883.796875,P05,D05,1,1,1
1218,0.9,1644596883.8125,P05,D05,1,1,1
1219,0.93,1644596883.828125,P05,D05,1,1,1
1220,0.82,1644596883.84375,P05,D05,1,1,1
1221,0.58,1644596883.859375,P05,D05,1,1,1
1222,0.28,1644596883.875,P05,D05,1,1,1
1223,0.02,1644596883.890625,P05,D05,1,1,1
1224,-0.14,1644596883.90625,P05,D05,1,1,1
1225,-0.13,1644596883.921875,P05,D05,1,1,1
1226,0.01,1644596883.9375,P05,D05,1,1,1
1227,0.22,1644596883.953125,P05,D05,1,1,1
1228,0.4,1644596883.96875,P05,D05,1,1,1
1229,0.46,1644596883.984375,P05,D05,1,1,1
1230,0.37,1644596884.0,P05,D05,1,1,1
1231,0.13,1644596884.015625,P05,D05,1,1,1
1232,-0.14,1644596884.03125,P05,D05,1,1,1
1233,-0.35,1644596884.046875,P05,D05,1,1,1
1234,-0.4,1644596884.0625,P05,D05,1,1,1
1235,-0.3,1644596884.078125,P05,D05,1,1,1
1236,-0.11,1644596884.09375,P05,D05,1,1,1
1237,0.04,1644596884.109375,P05,D05,1,1,1
1238,0.04,1644596884.125,P05,D05,1,1,1
1239,-0.13,1644596884.140625,P05,D05,1,1,1
1240,-0.41,1644596884.15625,P05,D05,1,1,1
1241,-0.66,1644596884.171875,P05,D05,1,1,1
1242,-0.78,1644596884.1875,P05,D05,1,1,1
1243,-0.74,1644596884.203125,P05,D05,1,1,1
1244,-0.62,1644596884.21875,P05,D05,1,1,1
1245,-0.54,1644596884.234375,P05,D05,1,1,1
1246,-0.6,1644596884.25,P05,D05,1,1,1
1247,-0.77,1644596884.265625,P05,D05,1,1,1
1248,-0.9,1644596884.28125,P05,D05,1,1,1
1249,-0.81,1644596884.296875,P05,D05,1,1,1
1250,-0.41,1644596884.3125,P05,D05,1,1,1
1251,0.25,1644596884.328125,P05,D05,1,1,1
1252,0.97,1644596884.34375,P05,D05,1,1,1
1253,1.49,1644596884.359375,P05,D05,1,1,1
1254,1.61,1644596884.375,P05,D05,1,1,1
1255,1.33,1644596884.390625,P05,D05,1,1,1
1256,0.78,1644596884.40625,P05,D05,1,1,1
1257,0.22,1644596884.421875,P05,D05,1,1,1
1258,-0.15,1644596884.4375,P05,D05,1,1,1
1259,-0.27,1644596884.453125,P05,D05,1,1,1
1260,-0.18,1644596884.46875,P05,D05,1,1,1
1261,0.0,1644596884.484375,P05,D05,1,1,1
1262,0.19,1644596884.5,P05,D05,1,1,1
1263,0.36,1644596884.515625,P05,D05,1,1,1
1264,0.51,1644596884.53125,P05,D05,1,1,1
1265,0.65,1644596884.546875,P05,D05,1,1,1
1266,0.71,1644596884.5625,P05,D05,1,1,1
1267,0.63,1644596884.578125,P05,D05,1,1,1
1268,0.39,1644596884.59375,P05,D05,1,1,1
1269,0.02,1644596884.609375,P05,D05,1,1,1
1270,-0.37,1644596884.625,P05,D05,1,1,1
1271,-0.66,1644596884.640625,P05,D05,1,1,1
1272,-0.77,1644596884.65625,P05,D05,1,1,1
1273,-0.69,1644596884.671875,P05,D05,1,1,1
1274,-0.44,1644596884.6875,P05,D05,1,1,1
1275,-0.07,1644596884.703125,P05,D05,1,1,1
1276,0.37,1644596884.71875,P05,D05,1,1,1
1277,0.84,1644596884.734375,P05,D05,1,1,1
1278,1.24,1644596884.75,P05,D05,1,1,1
1279,1.41,1644596884.765625,P05,D05,1,1,1
1280,1.25,1644596884.78125,P05,D05,1,1,1
1281,0.74,1644596884.796875,P05,D05,1,1,1
1282,-0.01,1644596884.8125,P05,D05,1,1,1
1283,-0.77,1644596884.828125,P05,D05,1,1,1
1284,-1.29,1644596884.84375,P05,D05,1,1,1
1285,-1.41,1644596884.859375,P05,D05,1,1,1
1286,-1.14,1644596884.875,P05,D05,1,1,1
1287,-0.66,1644596884.890625,P05,D05,1,1,1
1288,-0.21,1644596884.90625,P05,D05,1,1,1
1289,-0.02,1644596884.921875,P05,D05,1,1,1
1290,-0.2,1644596884.9375,P05,D05,1,1,1
1291,-0.7,1644596884.953125,P05,D05,1,1,1
1292,-1.34,1644596884.96875,P05,D05,1,1,1
1293,-1.9,1644596884.984375,P05,D05,1,1,1
1294,-2.19,1644596885.0,P05,D05,1,1,1
1295,-2.14,1644596885.015625,P05,D05,1,1,1
1296,-1.8,1644596885.03125,P05,D05,1,1,1
1297,-1.31,1644596885.046875,P05,D05,1,1,1
1298,-0.82,1644596885.0625,P05,D05,1,1,1
1299,-0.4,1644596885.078125,P05,D05,1,1,1
1300,-0.06,1644596885.09375,P05,D05,1,1,1
1301,0.22,1644596885.109375,P05,D05,1,1,1
1302,0.46,1644596885.125,P05,D05,1,1,1
1303,0.6,1644596885.140625,P05,D05,1,1,1
1304,0.53,1644596885.15625,P05,D05,1,1,1
1305,0.19,1644596885.171875,P05,D05,1,1,1
1306,-0.37,1644596885.1875,P05,D05,1,1,1
1307,-1.0,1644596885.203125,P05,D05,1,1,1
1308,-1.42,1644596885.21875,P05,D05,1,1,1
1309,-1.45,1644596885.234375,P05,D05,1,1,1
1310,-1.05,1644596885.25,P05,D05,1,1,1
1311,-0.35,1644596885.265625,P05,D05,1,1,1
1312,0.36,1644596885.28125,P05,D05,1,1,1
1313,0.85,1644596885.296875,P05,D05,1,1,1
1314,0.98,1644596885.3125,P05,D05,1,1,1
1315,0.79,1644596885.328125,P05,D05,1,1,1
1316,0.43,1644596885.34375,P05,D05,1,1,1
1317,0.09,1644596885.359375,P05,D05,1,1,1
1318,-0.1,1644596885.375,P05,D05,1,1,1
1319,-0.09,1644596885.390625,P05,D05,1,1,1
1320,0.11,1644596885.40625,P05,D05,1,1,1
1321,0.41,1644596885.421875,P05,D05,1,1,1
1322,0.75,1644596885.4375,P05,D05,1,1,1
1323,1.04,1644596885.453125,P05,D05,1,1,1
1324,1.21,1644596885.46875,P05,D05,1,1,1
1325,1.21,1644596885.484375,P05,D05,1,1,1
1326,0.99,1644596885.5,P05,D05,1,1,1
1327,0.55,1644596885.515625,P05,D05,1,1,1
1328,-0.05,1644596885.53125,P05,D05,1,1,1
1329,-0.71,1644596885.546875,P05,D05,1,1,1
1330,-1.24,1644596885.5625,P05,D05,1,1,1
1331,-1.47,1644596885.578125,P05,D05,1,1,1
1332,-1.28,1644596885.59375,P05,D05,1,1,1
1333,-0.72,1644596885.609375,P05,D05,1,1,1
1334,0.05,1644596885.625,P05,D05,1,1,1
1335,0.77,1644596885.640625,P05,D05,1,1,1
1336,1.2,1644596885.65625,P05,D05,1,1,1
1337,1.23,1644596885.671875,P05,D05,1,1,1
1338,0.95,1644596885.6875,P05,D05,1,1,1
1339,0.55,1644596885.703125,P05,D05,1,1,1
1340,0.22,1644596885.71875,P05,D05,1,1,1
1341,0.05,1644596885.734375,P05,D05,1,1,1
1342,0.02,1644596885.75,P05,D05,1,1,1
1343,0.04,1644596885.765625,P05,D05,1,1,1
1344,0.05,1644596885.78125,P05,D05,1,1,1
1345,0.04,1644596885.796875,P05,D05,1,1,1
1346,0.04,1644596885.8125,P05,D05,1,1,1
1347,0.08,1644596885.828125,P05,D05,1,1,1
1348,0.14,1644596885.84375,P05,D05,1,1,1
1349,0.18,1644596885.859375,P05,D05,1,1,1
1350,0.2,1644596885.875,P05,D05,1,1,1
1351,0.2,1644596885.890625,P05,D05,1,1,1
1352,0.24,1644596885.90625,P05,D05,1,1,1
1353,0.31,1644596885.921875,P05,D05,1,1,1
1354,0.4,1644596885.9375,P05,D05,1,1,1
1355,0.45,1644596885.953125,P05,D05,1,1,1
1356,0.43,1644596885.96875,P05,D05,1,1,1
1357,0.35,1644596885.984375,P05,D05,1,1,1
1358,0.26,1644596886.0,P05,D05,1,1,1
1359,0.22,1644596886.015625,P05,D05,1,1,1
1360,0.25,1644596886.03125,P05,D05,1,1,1
1361,0.31,1644596886.046875,P05,D05,1,1,1
1362,0.31,1644596886.0625,P05,D05,1,1,1
1363,0.21,1644596886.078125,P05,D05,1,1,1
1364,0.01,1644596886.09375,P05,D05,1,1,1
1365,-0.19,1644596886.109375,P05,D05,1,1,1
1366,-0.31,1644596886.125,P05,D05,1,1,1
1367,-0.3,1644596886.140625,P05,D05,1,1,1
1368,-0.16,1644596886.15625,P05,D05,1,1,1
1369,0.03,1644596886.171875,P05,D05,1,1,1
1370,0.19,1644596886.1875,P05,D05,1,1,1
1371,0.23,1644596886.203125,P05,D05,1,1,1
1372,0.15,1644596886.21875,P05,D05,1,1,1
1373,-0.03,1644596886.234375,P05,D05,1,1,1
1374,-0.24,1644596886.25,P05,D05,1,1,1
1375,-0.4,1644596886.265625,P05,D05,1,1,1
1376,-0.47,1644596886.28125,P05,D05,1,1,1
1377,-0.43,1644596886.296875,P05,D05,1,1,1
1378,-0.34,1644596886.3125,P05,D05,1,1,1
1379,-0.25,1644596886.328125,P05,D05,1,1,1
1380,-0.19,1644596886.34375,P05,D05,1,1,1
1381,-0.17,1644596886.359375,P05,D05,1,1,1
1382,-0.19,1644596886.375,P05,D05,1,1,1
1383,-0.25,1644596886.390625,P05,D05,1,1,1
1384,-0.32,1644596886.40625,P05,D05,1,1,1
1385,-0.37,1644596886.421875,P05,D05,1,1,1
1386,-0.37,1644596886.4375,P05,D05,1,1,1
1387,-0.25,1644596886.453125,P05,D05,1,1,1
1388,-0.05,1644596886.46875,P05,D05,1,1,1
1389,0.19,1644596886.484375,P05,D05,1,1,1
1390,0.37,1644596886.5,P05,D05,1,1,1
1391,0.43,1644596886.515625,P05,D05,1,1,1
1392,0.38,1644596886.53125,P05,D05,1,1,1
1393,0.3,1644596886.546875,P05,D05,1,1,1
1394,0.28,1644596886.5625,P05,D05,1,1,1
1395,0.4,1644596886.578125,P05,D05,1,1,1
1396,0.62,1644596886.59375,P05,D05,1,1,1
1397,0.84,1644596886.609375,P05,D05,1,1,1
1398,0.95,1644596886.625,P05,D05,1,1,1
1399,0.9,1644596886.640625,P05,D05,1,1,1
1400,0.75,1644596886.65625,P05,D05,1,1,1
1401,0.59,1644596886.671875,P05,D05,1,1,1
1402,0.52,1644596886.6875,P05,D05,1,1,1
1403,0.54,1644596886.703125,P05,D05,1,1,1
1404,0.6,1644596886.71875,P05,D05,1,1,1
1405,0.6,1644596886.734375,P05,D05,1,1,1
1406,0.51,1644596886.75,P05,D05,1,1,1
1407,0.32,1644596886.765625,P05,D05,1,1,1
1408,0.07,1644596886.78125,P05,D05,1,1,1
1409,-0.2,1644596886.796875,P05,D05,1,1,1
1410,-0.47,1644596886.8125,P05,D05,1,1,1
1411,-0.72,1644596886.828125,P05,D05,1,1,1
1412,-0.93,1644596886.84375,P05,D05,1,1,1
1413,-1.03,1644596886.859375,P05,D05,1,1,1
1414,-0.95,1644596886.875,P05,D05,1,1,1
1415,-0.67,1644596886.890625,P05,D05,1,1,1
1416,-0.24,1644596886.90625,P05,D05,1,1,1
1417,0.21,1644596886.921875,P05,D05,1,1,1
1418,0.52,1644596886.9375,P05,D05,1,1,1
1419,0.58,1644596886.953125,P05,D05,1,1,1
1420,0.37,1644596886.96875,P05,D05,1,1,1
1421,-0.0,1644596886.984375,P05,D05,1,1,1
1422,-0.4,1644596887.0,P05,D05,1,1,1
1423,-0.7,1644596887.015625,P05,D05,1,1,1
1424,-0.85,1644596887.03125,P05,D05,1,1,1
1425,-0.88,1644596887.046875,P05,D05,1,1,1
1426,-0.84,1644596887.0625,P05,D05,1,1,1
1427,-0.78,1644596887.078125,P05,D05,1,1,1
1428,-0.7,1644596887.09375,P05,D05,1,1,1
1429,-0.57,1644596887.109375,P05,D05,1,1,1
1430,-0.37,1644596887.125,P05,D05,1,1,1
1431,-0.13,1644596887.140625,P05,D05,1,1,1
1432,0.08,1644596887.15625,P05,D05,1,1,1
1433,0.23,1644596887.171875,P05,D05,1,1,1
1434,0.3,1644596887.1875,P05,D05,1,1,1
1435,0.33,1644596887.203125,P05,D05,1,1,1
1436,0.37,1644596887.21875,P05,D05,1,1,1
1437,0.45,1644596887.234375,P05,D05,1,1,1
1438,0.56,1644596887.25,P05,D05,1,1,1
1439,0.63,1644596887.265625,P05,D05,1,1,1
1440,0.59,1644596887.28125,P05,D05,1,1,1
1441,0.44,1644596887.296875,P05,D05,1,1,1
1442,0.21,1644596887.3125,P05,D05,1,1,1
1443,-0.04,1644596887.328125,P05,D05,1,1,1
1444,-0.23,1644596887.34375,P05,D05,1,1,1
1445,-0.34,1644596887.359375,P05,D05,1,1,1
1446,-0.36,1644596887.375,P05,D05,1,1,1
1447,-0.29,1644596887.390625,P05,D05,1,1,1
1448,-0.17,1644596887.40625,P05,D05,1,1,1
1449,0.01,1644596887.421875,P05,D05,1,1,1
1450,0.2,1644596887.4375,P05,D05,1,1,1
1451,0.35,1644596887.453125,P05,D05,1,1,1
1452,0.44,1644596887.46875,P05,D05,1,1,1
1453,0.43,1644596887.484375,P05,D05,1,1,1
1454,0.36,1644596887.5,P05,D05,1,1,1
1455,0.31,1644596887.515625,P05,D05,1,1,1
1456,0.38,1644596887.53125,P05,D05,1,1,1
1457,0.6,1644596887.546875,P05,D05,1,1,1
1458,0.96,1644596887.5625,P05,D05,1,1,1
1459,1.33,1644596887.578125,P05,D05,1,1,1
1460,1.58,1644596887.59375,P05,D05,1,1,1
1461,1.64,1644596887.609375,P05,D05,1,1,1
1462,1.51,1644596887.625,P05,D05,1,1,1
1463,1.3,1644596887.640625,P05,D05,1,1,1
1464,1.1,1644596887.65625,P05,D05,1,1,1
1465,0.97,1644596887.671875,P05,D05,1,1,1
1466,0.89,1644596887.6875,P05,D05,1,1,1
1467,0.79,1644596887.703125,P05,D05,1,1,1
1468,0.59,1644596887.71875,P05,D05,1,1,1
1469,0.31,1644596887.734375,P05,D05,1,1,1
1470,0.0,1644596887.75,P05,D05,1,1,1
1471,-0.22,1644596887.765625,P05,D05,1,1,1
1472,-0.31,1644596887.78125,P05,D05,1,1,1
1473,-0.27,1644596887.796875,P05,D05,1,1,1
1474,-0.16,1644596887.8125,P05,D05,1,1,1
1475,-0.09,1644596887.828125,P05,D05,1,1,1
1476,-0.14,1644596887.84375,P05,D05,1,1,1
1477,-0.32,1644596887.859375,P05,D05,1,1,1
1478,-0.6,1644596887.875,P05,D05,1,1,1
1479,-0.9,1644596887.890625,P05,D05,1,1,1
1480,-1.12,1644596887.90625,P05,D05,1,1,1
1481,-1.18,1644596887.921875,P05,D05,1,1,1
1482,-1.07,1644596887.9375,P05,D05,1,1,1
1483,-0.82,1644596887.953125,P05,D05,1,1,1
1484,-0.51,1644596887.96875,P05,D05,1,1,1
1485,-0.24,1644596887.984375,P05,D05,1,1,1
1486,-0.06,1644596888.0,P05,D05,1,1,1
1487,0.02,1644596888.015625,P05,D05,1,1,1
1488,0.03,1644596888.03125,P05,D05,1,1,1
1489,0.04,1644596888.046875,P05,D05,1,1,1
1490,0.09,1644596888.0625,P05,D05,1,1,1
1491,0.17,1644596888.078125,P05,D05,1,1,1
1492,0.22,1644596888.09375,P05,D05,1,1,1
1493,0.19,1644596888.109375,P05,D05,1,1,1
1494,0.03,1644596888.125,P05,D05,1,1,1
1495,-0.23,1644596888.140625,P05,D05,1,1,1
1496,-0.53,1644596888.15625,P05,D05,1,1,1
1497,-0.78,1644596888.171875,P05,D05,1,1,1
1498,-0.9,1644596888.1875,P05,D05,1,1,1
1499,-0.88,1644596888.203125,P05,D05,1,1,1
1500,-0.72,1644596888.21875,P05,D05,1,1,1
1501,-0.5,1644596888.234375,P05,D05,1,1,1
1502,-0.29,1644596888.25,P05,D05,1,1,1
1503,-0.17,1644596888.265625,P05,D05,1,1,1
1504,-0.19,1644596888.28125,P05,D05,1,1,1
1505,-0.31,1644596888.296875,P05,D05,1,1,1
1506,-0.45,1644596888.3125,P05,D05,1,1,1
1507,-0.53,1644596888.328125,P05,D05,1,1,1
1508,-0.48,1644596888.34375,P05,D05,1,1,1
1509,-0.3,1644596888.359375,P05,D05,1,1,1
1510,-0.05,1644596888.375,P05,D05,1,1,1
1511,0.15,1644596888.390625,P05,D05,1,1,1
1512,0.24,1644596888.40625,P05,D05,1,1,1
1513,0.18,1644596888.421875,P05,D05,1,1,1
1514,0.0,1644596888.4375,P05,D05,1,1,1
1515,-0.21,1644596888.453125,P05,D05,1,1,1
1516,-0.4,1644596888.46875,P05,D05,1,1,1
1517,-0.53,1644596888.484375,P05,D05,1,1,1
1518,-0.62,1644596888.5,P05,D05,1,1,1
1519,-0.71,1644596888.515625,P05,D05,1,1,1
1520,-0.84,1644596888.53125,P05,D05,1,1,1
1521,-0.98,1644596888.546875,P05,D05,1,1,1
1522,-1.07,1644596888.5625,P05,D05,1,1,1
1523,-1.02,1644596888.578125,P05,D05,1,1,1
1524,-0.8,1644596888.59375,P05,D05,1,1,1
1525,-0.45,1644596888.609375,P05,D05,1,1,1
1526,-0.07,1644596888.625,P05,D05,1,1,1
1527,0.22,1644596888.640625,P05,D05,1,1,1
1528,0.38,1644596888.65625,P05,D05,1,1,1
1529,0.44,1644596888.671875,P05,D05,1,1,1
1530,0.48,1644596888.6875,P05,D05,1,1,1
1531,0.57,1644596888.703125,P05,D05,1,1,1
1532,0.7,1644596888.71875,P05,D05,1,1,1
1533,0.78,1644596888.734375,P05,D05,1,1,1
1534,0.72,1644596888.75,P05,D05,1,1,1
1535,0.48,1644596888.765625,P05,D05,1,1,1
1536,0.12,1644596888.78125,P05,D05,1,1,1
1537,-0.23,1644596888.796875,P05,D05,1,1,1
1538,-0.45,1644596888.8125,P05,D05,1,1,1
1539,-0.51,1644596888.828125,P05,D05,1,1,1
1540,-0.44,1644596888.84375,P05,D05,1,1,1
1541,-0.3,1644596888.859375,P05,D05,1,1,1
1542,-0.19,1644596888.875,P05,D05,1,1,1
1543,-0.13,1644596888.890625,P05,D05,1,1,1
1544,-0.14,1644596888.90625,P05,D05,1,1,1
1545,-0.2,1644596888.921875,P05,D05,1,1,1
1546,-0.31,1644596888.9375,P05,D05,1,1,1
1547,-0.47,1644596888.953125,P05,D05,1,1,1
1548,-0.67,1644596888.96875,P05,D05,1,1,1
1549,-0.87,1644596888.984375,P05,D05,1,1,1
1550,-1.0,1644596889.0,P05,D05,1,1,1
1551,-0.99,1644596889.015625,P05,D05,1,1,1
1552,-0.84,1644596889.03125,P05,D05,1,1,1
1553,-0.57,1644596889.046875,P05,D05,1,1,1
1554,-0.26,1644596889.0625,P05,D05,1,1,1
1555,-0.02,1644596889.078125,P05,D05,1,1,1
1556,0.09,1644596889.09375,P05,D05,1,1,1
1557,0.05,1644596889.109375,P05,D05,1,1,1
1558,-0.09,1644596889.125,P05,D05,1,1,1
1559,-0.22,1644596889.140625,P05,D05,1,1,1
1560,-0.28,1644596889.15625,P05,D05,1,1,1
1561,-0.25,1644596889.171875,P05,D05,1,1,1
1562,-0.15,1644596889.1875,P05,D05,1,1,1
1563,-0.04,1644596889.203125,P05,D05,1,1,1
1564,0.04,1644596889.21875,P05,D05,1,1,1
1565,0.05,1644596889.234375,P05,D05,1,1,1
1566,0.04,1644596889.25,P05,D05,1,1,1
1567,0.03,1644596889.265625,P05,D05,1,1,1
1568,0.03,1644596889.28125,P05,D05,1,1,1
1569,0.07,1644596889.296875,P05,D05,1,1,1
1570,0.14,1644596889.3125,P05,D05,1,1,1
1571,0.23,1644596889.328125,P05,D05,1,1,1
1572,0.37,1644596889.34375,P05,D05,1,1,1
1573,0.56,1644596889.359375,P05,D05,1,1,1
1574,0.81,1644596889.375,P05,D05,1,1,1
1575,1.07,1644596889.390625,P05,D05,1,1,1
1576,1.29,1644596889.40625,P05,D05,1,1,1
1577,1.42,1644596889.421875,P05,D05,1,1,1
1578,1.44,1644596889.4375,P05,D05,1,1,1
1579,1.37,1644596889.453125,P05,D05,1,1,1
1580,1.21,1644596889.46875,P05,D05,1,1,1
1581,1.03,1644596889.484375,P05,D05,1,1,1
1582,0.85,1644596889.5,P05,D05,1,1,1
1583,0.71,1644596889.515625,P05,D05,1,1,1
1584,0.64,1644596889.53125,P05,D05,1,1,1
1585,0.64,1644596889.546875,P05,D05,1,1,1
1586,0.69,1644596889.5625,P05,D05,1,1,1
1587,0.75,1644596889.578125,P05,D05,1,1,1
1588,0.76,1644596889.59375,P05,D05,1,1,1
1589,0.67,1644596889.609375,P05,D05,1,1,1
1590,0.51,1644596889.625,P05,D05,1,1,1
1591,0.33,1644596889.640625,P05,D05,1,1,1
1592,0.16,1644596889.65625,P05,D05,1,1,1
1593,0.05,1644596889.671875,P05,D05,1,1,1
1594,-0.04,1644596889.6875,P05,D05,1,1,1
1595,-0.13,1644596889.703125,P05,D05,1,1,1
1596,-0.25,1644596889.71875,P05,D05,1,1,1
1597,-0.39,1644596889.734375,P05,D05,1,1,1
1598,-0.5,1644596889.75,P05,D05,1,1,1
1599,-0.55,1644596889.765625,P05,D05,1,1,1
1600,-0.53,1644596889.78125,P05,D05,1,1,1
1601,-0.48,1644596889.796875,P05,D05,1,1,1
1602,-0.43,1644596889.8125,P05,D05,1,1,1
1603,-0.4,1644596889.828125,P05,D05,1,1,1
1604,-0.37,1644596889.84375,P05,D05,1,1,1
1605,-0.34,1644596889.859375,P05,D05,1,1,1
1606,-0.32,1644596889.875,P05,D05,1,1,1
1607,-0.35,1644596889.890625,P05,D05,1,1,1
1608,-0.47,1644596889.90625,P05,D05,1,1,1
1609,-0.68,1644596889.921875,P05,D05,1,1,1
1610,-0.92,1644596889.9375,P05,D05,1,1,1
1611,-1.07,1644596889.953125,P05,D05,1,1,1
1612,-1.07,1644596889.96875,P05,D05,1,1,1
1613,-0.9,1644596889.984375,P05,D05,1,1,1
1614,-0.64,1644596890.0,P05,D05,1,1,1
1615,-0.41,1644596890.015625,P05,D05,1,1,1
1616,-0.29,1644596890.03125,P05,D05,1,1,1
1617,-0.3,1644596890.046875,P05,D05,1,1,1
1618,-0.34,1644596890.0625,P05,D05,1,1,1
1619,-0.34,1644596890.078125,P05,D05,1,1,1
1620,-0.21,1644596890.09375,P05,D05,1,1,1
1621,0.02,1644596890.109375,P05,D05,1,1,1
1622,0.3,1644596890.125,P05,D05,1,1,1
1623,0.54,1644596890.140625,P05,D05,1,1,1
1624,0.67,1644596890.15625,P05,D05,1,1,1
1625,0.73,1644596890.171875,P05,D05,1,1,1
1626,0.76,1644596890.1875,P05,D05,1,1,1
1627,0.84,1644596890.203125,P05,D05,1,1,1
1628,0.98,1644596890.21875,P05,D05,1,1,1
1629,1.14,1644596890.234375,P05,D05,1,1,1
1630,1.24,1644596890.25,P05,D05,1,1,1
1631,1.21,1644596890.265625,P05,D05,1,1,1
1632,1.05,1644596890.28125,P05,D05,1,1,1
1633,0.83,1644596890.296875,P05,D05,1,1,1
1634,0.6,1644596890.3125,P05,D05,1,1,1
1635,0.42,1644596890.328125,P05,D05,1,1,1
1636,0.29,1644596890.34375,P05,D05,1,1,1
1637,0.16,1644596890.359375,P05,D05,1,1,1
1638,0.01,1644596890.375,P05,D05,1,1,1
1639,-0.18,1644596890.390625,P05,D05,1,1,1
1640,-0.4,1644596890.40625,P05,D05,1,1,1
1641,-0.61,1644596890.421875,P05,D05,1,1,1
1642,-0.76,1644596890.4375,P05,D05,1,1,1
1643,-0.83,1644596890.453125,P05,D05,1,1,1
1644,-0.79,1644596890.46875,P05,D05,1,1,1
1645,-0.68,1644596890.484375,P05,D05,1,1,1
1646,-0.56,1644596890.5,P05,D05,1,1,1
1647,-0.49,1644596890.515625,P05,D05,1,1,1
1648,-0.49,1644596890.53125,P05,D05,1,1,1
1649,-0.56,1644596890.546875,P05,D05,1,1,1
1650,-0.62,1644596890.5625,P05,D05,1,1,1
1651,-0.63,1644596890.578125,P05,D05,1,1,1
1652,-0.55,1644596890.59375,P05,D05,1,1,1
1653,-0.43,1644596890.609375,P05,D05,1,1,1
1654,-0.36,1644596890.625,P05,D05,1,1,1
1655,-0.39,1644596890.640625,P05,D05,1,1,1
1656,-0.51,1644596890.65625,P05,D05,1,1,1
1657,-0.62,1644596890.671875,P05,D05,1,1,1
1658,-0.63,1644596890.6875,P05,D05,1,1,1
1659,-0.48,1644596890.703125,P05,D05,1,1,1
1660,-0.19,1644596890.71875,P05,D05,1,1,1
1661,0.12,1644596890.734375,P05,D05,1,1,1
1662,0.36,1644596890.75,P05,D05,1,1,1
1663,0.46,1644596890.765625,P05,D05,1,1,1
1664,0.45,1644596890.78125,P05,D05,1,1,1
1665,0.41,1644596890.796875,P05,D05,1,1,1
1666,0.41,1644596890.8125,P05,D05,1,1,1
1667,0.49,1644596890.828125,P05,D05,1,1,1
1668,0.63,1644596890.84375,P05,D05,1,1,1
1669,0.77,1644596890.859375,P05,D05,1,1,1
1670,0.86,1644596890.875,P05,D05,1,1,1
1671,0.89,1644596890.890625,P05,D05,1,1,1
1672,0.85,1644596890.90625,P05,D05,1,1,1
1673,0.78,1644596890.921875,P05,D05,1,1,1
1674,0.7,1644596890.9375,P05,D05,1,1,1
1675,0.62,1644596890.953125,P05,D05,1,1,1
1676,0.54,1644596890.96875,P05,D05,1,1,1
1677,0.45,1644596890.984375,P05,D05,1,1,1
1678,0.36,1644596891.0,P05,D05,1,1,1
1679,0.29,1644596891.015625,P05,D05,1,1,1
1680,0.28,1644596891.03125,P05,D05,1,1,1
1681,0.33,1644596891.046875,P05,D05,1,1,1
1682,0.45,1644596891.0625,P05,D05,1,1,1
1683,0.59,1644596891.078125,P05,D05,1,1,1
1684,0.7,1644596891.09375,P05,D05,1,1,1
1685,0.73,1644596891.109375,P05,D05,1,1,1
1686,0.65,1644596891.125,P05,D05,1,1,1
1687,0.47,1644596891.140625,P05,D05,1,1,1
1688,0.24,1644596891.15625,P05,D05,1,1,1
1689,0.03,1644596891.171875,P05,D05,1,1,1
1690,-0.12,1644596891.1875,P05,D05,1,1,1
1691,-0.16,1644596891.203125,P05,D05,1,1,1
1692,-0.13,1644596891.21875,P05,D05,1,1,1
1693,-0.09,1644596891.234375,P05,D05,1,1,1
1694,-0.08,1644596891.25,P05,D05,1,1,1
1695,-0.13,1644596891.265625,P05,D05,1,1,1
1696,-0.23,1644596891.28125,P05,D05,1,1,1
1697,-0.34,1644596891.296875,P05,D05,1,1,1
1698,-0.42,1644596891.3125,P05,D05,1,1,1
1699,-0.42,1644596891.328125,P05,D05,1,1,1
1700,-0.37,1644596891.34375,P05,D05,1,1,1
1701,-0.29,1644596891.359375,P05,D05,1,1,1
1702,-0.23,1644596891.375,P05,D05,1,1,1
1703,-0.2,1644596891.390625,P05,D05,1,1,1
1704,-0.19,1644596891.40625,P05,D05,1,1,1
1705,-0.18,1644596891.421875,P05,D05,1,1,1
1706,-0.14,1644596891.4375,P05,D05,1,1,1
1707,-0.07,1644596891.453125,P05,D05,1,1,1
1708,0.04,1644596891.46875,P05,D05,1,1,1
1709,0.15,1644596891.484375,P05,D05,1,1,1
1710,0.27,1644596891.5,P05,D05,1,1,1
1711,0.39,1644596891.515625,P05,D05,1,1,1
1712,0.49,1644596891.53125,P05,D05,1,1,1
1713,0.54,1644596891.546875,P05,D05,1,1,1
1714,0.52,1644596891.5625,P05,D05,1,1,1
1715,0.42,1644596891.578125,P05,D05,1,1,1
1716,0.24,1644596891.59375,P05,D05,1,1,1
1717,0.02,1644596891.609375,P05,D05,1,1,1
1718,-0.22,1644596891.625,P05,D05,1,1,1
1719,-0.45,1644596891.640625,P05,D05,1,1,1
1720,-0.66,1644596891.65625,P05,D05,1,1,1
1721,-0.8,1644596891.671875,P05,D05,1,1,1
1722,-0.83,1644596891.6875,P05,D05,1,1,1
1723,-0.7,1644596891.703125,P05,D05,1,1,1
1724,-0.43,1644596891.71875,P05,D05,1,1,1
1725,-0.09,1644596891.734375,P05,D05,1,1,1
1726,0.18,1644596891.75,P05,D05,1,1,1
1727,0.26,1644596891.765625,P05,D05,1,1,1
1728,0.07,1644596891.78125,P05,D05,1,1,1
1729,-0.33,1644596891.796875,P05,D05,1,1,1
1730,-0.8,1644596891.8125,P05,D05,1,1,1
1731,-1.18,1644596891.828125,P05,D05,1,1,1
1732,-1.36,1644596891.84375,P05,D05,1,1,1
1733,-1.33,1644596891.859375,P05,D05,1,1,1
1734,-1.18,1644596891.875,P05,D05,1,1,1
1735,-0.99,1644596891.890625,P05,D05,1,1,1
1736,-0.83,1644596891.90625,P05,D05,1,1,1
1737,-0.7,1644596891.921875,P05,D05,1,1,1
1738,-0.6,1644596891.9375,P05,D05,1,1,1
1739,-0.51,1644596891.953125,P05,D05,1,1,1
1740,-0.42,1644596891.96875,P05,D05,1,1,1
1741,-0.32,1644596891.984375,P05,D05,1,1,1
1742,-0.2,1644596892.0,P05,D05,1,1,1
1743,-0.07,1644596892.015625,P05,D05,1,1,1
1744,0.06,1644596892.03125,P05,D05,1,1,1
1745,0.13,1644596892.046875,P05,D05,1,1,1
1746,0.1,1644596892.0625,P05,D05,1,1,1
1747,-0.06,1644596892.078125,P05,D05,1,1,1
1748,-0.3,1644596892.09375,P05,D05,1,1,1
1749,-0.55,1644596892.109375,P05,D05,1,1,1
1750,-0.72,1644596892.125,P05,D05,1,1,1
1751,-0.79,1644596892.140625,P05,D05,1,1,1
1752,-0.78,1644596892.15625,P05,D05,1,1,1
1753,-0.76,1644596892.171875,P05,D05,1,1,1
1754,-0.8,1644596892.1875,P05,D05,1,1,1
1755,-0.94,1644596892.203125,P05,D05,1,1,1
1756,-1.16,1644596892.21875,P05,D05,1,1,1
1757,-1.39,1644596892.234375,P05,D05,1,1,1
1758,-1.58,1644596892.25,P05,D05,1,1,1
1759,-1.66,1644596892.265625,P05,D05,1,1,1
1760,-1.59,1644596892.28125,P05,D05,1,1,1
1761,-1.38,1644596892.296875,P05,D05,1,1,1
1762,-1.09,1644596892.3125,P05,D05,1,1,1
1763,-0.82,1644596892.328125,P05,D05,1,1,1
1764,-0.67,1644596892.34375,P05,D05,1,1,1
1765,-0.69,1644596892.359375,P05,D05,1,1,1
1766,-0.88,1644596892.375,P05,D05,1,1,1
1767,-1.16,1644596892.390625,P05,D05,1,1,1
1768,-1.43,1644596892.40625,P05,D05,1,1,1
1769,-1.6,1644596892.421875,P05,D05,1,1,1
1770,-1.61,1644596892.4375,P05,D05,1,1,1
1771,-1.39,1644596892.453125,P05,D05,1,1,1
1772,-0.89,1644596892.46875,P05,D05,1,1,1
1773,-0.1,1644596892.484375,P05,D05,1,1,1
1774,0.91,1644596892.5,P05,D05,1,1,1
1775,1.99,1644596892.515625,P05,D05,1,1,1
1776,2.91,1644596892.53125,P05,D05,1,1,1
1777,3.44,1644596892.546875,P05,D05,1,1,1
1778,3.49,1644596892.5625,P05,D05,1,1,1
1779,3.13,1644596892.578125,P05,D05,1,1,1
1780,2.53,1644596892.59375,P05,D05,1,1,1
1781,1.92,1644596892.609375,P05,D05,1,1,1
1782,1.48,1644596892.625,P05,D05,1,1,1
1783,1.25,1644596892.640625,P05,D05,1,1,1
1784,1.19,1644596892.65625,P05,D05,1,1,1
1785,1.2,1644596892.671875,P05,D05,1,1,1
1786,1.24,1644596892.6875,P05,D05,1,1,1
1787,1.26,1644596892.703125,P05,D05,1,1,1
1788,1.27,1644596892.71875,P05,D05,1,1,1
1789,1.25,1644596892.734375,P05,D05,1,1,1
1790,1.19,1644596892.75,P05,D05,1,1,1
1791,1.02,1644596892.765625,P05,D05,1,1,1
1792,0.75,1644596892.78125,P05,D05,1,1,1
1793,0.4,1644596892.796875,P05,D05,1,1,1
1794,0.05,1644596892.8125,P05,D05,1,1,1
1795,-0.21,1644596892.828125,P05,D05,1,1,1
1796,-0.33,1644596892.84375,P05,D05,1,1,1
1797,-0.29,1644596892.859375,P05,D05,1,1,1
1798,-0.13,1644596892.875,P05,D05,1,1,1
1799,0.05,1644596892.890625,P05,D05,1,1,1
1800,0.19,1644596892.90625,P05,D05,1,1,1
1801,0.27,1644596892.921875,P05,D05,1,1,1
1802,0.3,1644596892.9375,P05,D05,1,1,1
1803,0.34,1644596892.953125,P05,D05,1,1,1
1804,0.42,1644596892.96875,P05,D05,1,1,1
1805,0.55,1644596892.984375,P05,D05,1,1,1
1806,0.68,1644596893.0,P05,D05,1,1,1
1807,0.77,1644596893.015625,P05,D05,1,1,1
1808,0.79,1644596893.03125,P05,D05,1,1,1
1809,0.76,1644596893.046875,P05,D05,1,1,1
1810,0.74,1644596893.0625,P05,D05,1,1,1
1811,0.79,1644596893.078125,P05,D05,1,1,1
1812,0.9,1644596893.09375,P05,D05,1,1,1
1813,1.06,1644596893.109375,P05,D05,1,1,1
1814,1.19,1644596893.125,P05,D05,1,1,1
1815,1.25,1644596893.140625,P05,D05,1,1,1
1816,1.19,1644596893.15625,P05,D05,1,1,1
1817,1.0,1644596893.171875,P05,D05,1,1,1
1818,0.68,1644596893.1875,P05,D05,1,1,1
1819,0.25,1644596893.203125,P05,D05,1,1,1
1820,-0.25,1644596893.21875,P05,D05,1,1,1
1821,-0.77,1644596893.234375,P05,D05,1,1,1
1822,-1.19,1644596893.25,P05,D05,1,1,1
1823,-1.44,1644596893.265625,P05,D05,1,1,1
1824,-1.43,1644596893.28125,P05,D05,1,1,1
1825,-1.2,1644596893.296875,P05,D05,1,1,1
1826,-0.83,1644596893.3125,P05,D05,1,1,1
1827,-0.45,1644596893.328125,P05,D05,1,1,1
1828,-0.15,1644596893.34375,P05,D05,1,1,1
1829,-0.01,1644596893.359375,P05,D05,1,1,1
1830,-0.0,1644596893.375,P05,D05,1,1,1
1831,-0.08,1644596893.390625,P05,D05,1,1,1
1832,-0.21,1644596893.40625,P05,D05,1,1,1
1833,-0.34,1644596893.421875,P05,D05,1,1,1
1834,-0.49,1644596893.4375,P05,D05,1,1,1
1835,-0.67,1644596893.453125,P05,D05,1,1,1
1836,-0.87,1644596893.46875,P05,D05,1,1,1
1837,-1.05,1644596893.484375,P05,D05,1,1,1
1838,-1.17,1644596893.5,P05,D05,1,1,1
1839,-1.15,1644596893.515625,P05,D05,1,1,1
1840,-0.99,1644596893.53125,P05,D05,1,1,1
1841,-0.69,1644596893.546875,P05,D05,1,1,1
1842,-0.29,1644596893.5625,P05,D05,1,1,1
1843,0.12,1644596893.578125,P05,D05,1,1,1
1844,0.5,1644596893.59375,P05,D05,1,1,1
1845,0.8,1644596893.609375,P05,D05,1,1,1
1846,0.99,1644596893.625,P05,D05,1,1,1
1847,1.07,1644596893.640625,P05,D05,1,1,1
1848,1.04,1644596893.65625,P05,D05,1,1,1
1849,0.93,1644596893.671875,P05,D05,1,1,1
1850,0.8,1644596893.6875,P05,D05,1,1,1
1851,0.69,1644596893.703125,P05,D05,1,1,1
1852,0.64,1644596893.71875,P05,D05,1,1,1
1853,0.62,1644596893.734375,P05,D05,1,1,1
1854,0.58,1644596893.75,P05,D05,1,1,1
1855,0.46,1644596893.765625,P05,D05,1,1,1
1856,0.23,1644596893.78125,P05,D05,1,1,1
1857,-0.09,1644596893.796875,P05,D05,1,1,1
1858,-0.43,1644596893.8125,P05,D05,1,1,1
1859,-0.66,1644596893.828125,P05,D05,1,1,1
1860,-0.72,1644596893.84375,P05,D05,1,1,1
1861,-0.59,1644596893.859375,P05,D05,1,1,1
1862,-0.36,1644596893.875,P05,D05,1,1,1
1863,-0.12,1644596893.890625,P05,D05,1,1,1
1864,0.05,1644596893.90625,P05,D05,1,1,1
1865,0.11,1644596893.921875,P05,D05,1,1,1
1866,0.1,1644596893.9375,P05,D05,1,1,1
1867,0.07,1644596893.953125,P05,D05,1,1,1
1868,0.07,1644596893.96875,P05,D05,1,1,1
1869,0.08,1644596893.984375,P05,D05,1,1,1
1870,0.08,1644596894.0,P05,D05,1,1,1
1871,0.03,1644596894.015625,P05,D05,1,1,1
1872,-0.11,1644596894.03125,P05,D05,1,1,1
1873,-0.35,1644596894.046875,P05,D05,1,1,1
1874,-0.65,1644596894.0625,P05,D05,1,1,1
1875,-0.94,1644596894.078125,P05,D05,1,1,1
1876,-1.15,1644596894.09375,P05,D05,1,1,1
1877,-1.21,1644596894.109375,P05,D05,1,1,1
1878,-1.11,1644596894.125,P05,D05,1,1,1
1879,-0.92,1644596894.140625,P05,D05,1,1,1
1880,-0.77,1644596894.15625,P05,D05,1,1,1
1881,-0.77,1644596894.171875,P05,D05,1,1,1
1882,-0.96,1644596894.1875,P05,D05,1,1,1
1883,-1.22,1644596894.203125,P05,D05,1,1,1
1884,-1.38,1644596894.21875,P05,D05,1,1,1
1885,-1.29,1644596894.234375,P05,D05,1,1,1
1886,-0.88,1644596894.25,P05,D05,1,1,1
1887,-0.26,1644596894.265625,P05,D05,1,1,1
1888,0.38,1644596894.28125,P05,D05,1,1,1
1889,0.85,1644596894.296875,P05,D05,1,1,1
1890,1.08,1644596894.3125,P05,D05,1,1,1
1891,1.08,1644596894.328125,P05,D05,1,1,1
1892,0.96,1644596894.34375,P05,D05,1,1,1
1893,0.8,1644596894.359375,P05,D05,1,1,1
1894,0.67,1644596894.375,P05,D05,1,1,1
1895,0.56,1644596894.390625,P05,D05,1,1,1
1896,0.46,1644596894.40625,P05,D05,1,1,1
1897,0.35,1644596894.421875,P05,D05,1,1,1
1898,0.26,1644596894.4375,P05,D05,1,1,1
1899,0.19,1644596894.453125,P05,D05,1,1,1
1900,0.17,1644596894.46875,P05,D05,1,1,1
1901,0.19,1644596894.484375,P05,D05,1,1,1
1902,0.22,1644596894.5,P05,D05,1,1,1
1903,0.25,1644596894.515625,P05,D05,1,1,1
1904,0.29,1644596894.53125,P05,D05,1,1,1
1905,0.4,1644596894.546875,P05,D05,1,1,1
1906,0.59,1644596894.5625,P05,D05,1,1,1
1907,0.88,1644596894.578125,P05,D05,1,1,1
1908,1.19,1644596894.59375,P05,D05,1,1,1
1909,1.44,1644596894.609375,P05,D05,1,1,1
1910,1.51,1644596894.625,P05,D05,1,1,1
1911,1.35,1644596894.640625,P05,D05,1,1,1
1912,0.98,1644596894.65625,P05,D05,1,1,1
1913,0.53,1644596894.671875,P05,D05,1,1,1
1914,0.12,1644596894.6875,P05,D05,1,1,1
1915,-0.14,1644596894.703125,P05,D05,1,1,1
1916,-0.22,1644596894.71875,P05,D05,1,1,1
1917,-0.19,1644596894.734375,P05,D05,1,1,1
1918,-0.13,1644596894.75,P05,D05,1,1,1
1919,-0.1,1644596894.765625,P05,D05,1,1,1
1920,-0.12,1644596894.78125,P05,D05,1,1,1
1921,-0.16,1644596894.796875,P05,D05,1,1,1
1922,-0.18,1644596894.8125,P05,D05,1,1,1
1923,-0.18,1644596894.828125,P05,D05,1,1,1
1924,-0.17,1644596894.84375,P05,D05,1,1,1
1925,-0.19,1644596894.859375,P05,D05,1,1,1
1926,-0.26,1644596894.875,P05,D05,1,1,1
1927,-0.33,1644596894.890625,P05,D05,1,1,1
1928,-0.34,1644596894.90625,P05,D05,1,1,1
1929,-0.27,1644596894.921875,P05,D05,1,1,1
1930,-0.13,1644596894.9375,P05,D05,1,1,1
1931,0.02,1644596894.953125,P05,D05,1,1,1
1932,0.11,1644596894.96875,P05,D05,1,1,1
1933,0.15,1644596894.984375,P05,D05,1,1,1
1934,0.16,1644596895.0,P05,D05,1,1,1
1935,0.23,1644596895.015625,P05,D05,1,1,1
1936,0.38,1644596895.03125,P05,D05,1,1,1
1937,0.58,1644596895.046875,P05,D05,1,1,1
1938,0.72,1644596895.0625,P05,D05,1,1,1
1939,0.69,1644596895.078125,P05,D05,1,1,1
1940,0.45,1644596895.09375,P05,D05,1,1,1
1941,0.07,1644596895.109375,P05,D05,1,1,1
1942,-0.34,1644596895.125,P05,D05,1,1,1
1943,-0.65,1644596895.140625,P05,D05,1,1,1
1944,-0.79,1644596895.15625,P05,D05,1,1,1
1945,-0.81,1644596895.171875,P05,D05,1,1,1
1946,-0.8,1644596895.1875,P05,D05,1,1,1
1947,-0.84,1644596895.203125,P05,D05,1,1,1
1948,-0.98,1644596895.21875,P05,D05,1,1,1
1949,-1.21,1644596895.234375,P05,D05,1,1,1
1950,-1.47,1644596895.25,P05,D05,1,1,1
1951,-1.69,1644596895.265625,P05,D05,1,1,1
1952,-1.8,1644596895.28125,P05,D05,1,1,1
1953,-1.73,1644596895.296875,P05,D05,1,1,1
1954,-1.46,1644596895.3125,P05,D05,1,1,1
1955,-1.0,1644596895.328125,P05,D05,1,1,1
1956,-0.45,1644596895.34375,P05,D05,1,1,1
1957,0.07,1644596895.359375,P05,D05,1,1,1
1958,0.42,1644596895.375,P05,D05,1,1,1
1959,0.53,1644596895.390625,P05,D05,1,1,1
1960,0.46,1644596895.40625,P05,D05,1,1,1
1961,0.29,1644596895.421875,P05,D05,1,1,1
1962,0.15,1644596895.4375,P05,D05,1,1,1
1963,0.07,1644596895.453125,P05,D05,1,1,1
1964,0.02,1644596895.46875,P05,D05,1,1,1
1965,-0.07,1644596895.484375,P05,D05,1,1,1
1966,-0.23,1644596895.5,P05,D05,1,1,1
1967,-0.44,1644596895.515625,P05,D05,1,1,1
1968,-0.62,1644596895.53125,P05,D05,1,1,1
1969,-0.72,1644596895.546875,P05,D05,1,1,1
1970,-0.68,1644596895.5625,P05,D05,1,1,1
1971,-0.53,1644596895.578125,P05,D05,1,1,1
1972,-0.3,1644596895.59375,P05,D05,1,1,1
1973,-0.05,1644596895.609375,P05,D05,1,1,1
1974,0.19,1644596895.625,P05,D05,1,1,1
1975,0.4,1644596895.640625,P05,D05,1,1,1
1976,0.55,1644596895.65625,P05,D05,1,1,1
1977,0.64,1644596895.671875,P05,D05,1,1,1
1978,0.67,1644596895.6875,P05,D05,1,1,1
1979,0.68,1644596895.703125,P05,D05,1,1,1
1980,0.71,1644596895.71875,P05,D05,1,1,1
1981,0.79,1644596895.734375,P05,D05,1,1,1
1982,0.91,1644596895.75,P05,D05,1,1,1
1983,0.98,1644596895.765625,P05,D05,1,1,1
1984,0.92,1644596895.78125,P05,D05,1,1,1
1985,0.7,1644596895.796875,P05,D05,1,1,1
1986,0.35,1644596895.8125,P05,D05,1,1,1
1987,-0.04,1644596895.828125,P05,D05,1,1,1
1988,-0.39,1644596895.84375,P05,D05,1,1,1
1989,-0.61,1644596895.859375,P05,D05,1,1,1
1990,-0.69,1644596895.875,P05,D05,1,1,1
1991,-0.62,1644596895.890625,P05,D05,1,1,1
1992,-0.42,1644596895.90625,P05,D05,1,1,1
1993,-0.09,1644596895.921875,P05,D05,1,1,1
1994,0.3,1644596895.9375,P05,D05,1,1,1
1995,0.69,1644596895.953125,P05,D05,1,1,1
1996,0.94,1644596895.96875,P05,D05,1,1,1
1997,0.94,1644596895.984375,P05,D05,1,1,1
1998,0.67,1644596896.0,P05,D05,1,1,1
1999,0.17,1644596896.015625,P05,D05,1,1,1
2000,-0.39,1644596896.03125,P05,D05,1,1,1
2001,-0.85,1644596896.046875,P05,D05,1,1,1
2002,-1.08,1644596896.0625,P05,D05,1,1,1
2003,-1.05,1644596896.078125,P05,D05,1,1,1
2004,-0.85,1644596896.09375,P05,D05,1,1,1
2005,-0.62,1644596896.109375,P05,D05,1,1,1
2006,-0.46,1644596896.125,P05,D05,1,1,1
2007,-0.4,1644596896.140625,P05,D05,1,1,1
2008,-0.43,1644596896.15625,P05,D05,1,1,1
2009,-0.48,1644596896.171875,P05,D05,1,1,1
2010,-0.53,1644596896.1875,P05,D05,1,1,1
2011,-0.57,1644596896.203125,P05,D05,1,1,1
2012,-0.62,1644596896.21875,P05,D05,1,1,1
2013,-0.65,1644596896.234375,P05,D05,1,1,1
2014,-0.6,1644596896.25,P05,D05,1,1,1
2015,-0.38,1644596896.265625,P05,D05,1,1,1
2016,0.03,1644596896.28125,P05,D05,1,1,1
2017,0.58,1644596896.296875,P05,D05,1,1,1
2018,1.14,1644596896.3125,P05,D05,1,1,1
2019,1.58,1644596896.328125,P05,D05,1,1,1
2020,1.78,1644596896.34375,P05,D05,1,1,1
2021,1.73,1644596896.359375,P05,D05,1,1,1
2022,1.48,1644596896.375,P05,D05,1,1,1
2023,1.12,1644596896.390625,P05,D05,1,1,1
2024,0.74,1644596896.40625,P05,D05,1,1,1
2025,0.42,1644596896.421875,P05,D05,1,1,1
2026,0.21,1644596896.4375,P05,D05,1,1,1
2027,0.13,1644596896.453125,P05,D05,1,1,1
2028,0.16,1644596896.46875,P05,D05,1,1,1
2029,0.24,1644596896.484375,P05,D05,1,1,1
2030,0.29,1644596896.5,P05,D05,1,1,1
2031,0.24,1644596896.515625,P05,D05,1,1,1
2032,0.09,1644596896.53125,P05,D05,1,1,1
2033,-0.11,1644596896.546875,P05,D05,1,1,1
2034,-0.26,1644596896.5625,P05,D05,1,1,1
2035,-0.31,1644596896.578125,P05,D05,1,1,1
2036,-0.26,1644596896.59375,P05,D05,1,1,1
2037,-0.15,1644596896.609375,P05,D05,1,1,1
2038,-0.06,1644596896.625,P05,D05,1,1,1
2039,-0.02,1644596896.640625,P05,D05,1,1,1
2040,-0.05,1644596896.65625,P05,D05,1,1,1
2041,-0.1,1644596896.671875,P05,D05,1,1,1
2042,-0.17,1644596896.6875,P05,D05,1,1,1
2043,-0.25,1644596896.703125,P05,D05,1,1,1
2044,-0.33,1644596896.71875,P05,D05,1,1,1
2045,-0.4,1644596896.734375,P05,D05,1,1,1
2046,-0.46,1644596896.75,P05,D05,1,1,1
2047,-0.47,1644596896.765625,P05,D05,1,1,1
2048,-0.45,1644596896.78125,P05,D05,1,1,1
2049,-0.46,1644596896.796875,P05,D05,1,1,1
2050,-0.55,1644596896.8125,P05,D05,1,1,1
2051,-0.73,1644596896.828125,P05,D05,1,1,1
2052,-0.95,1644596896.84375,P05,D05,1,1,1
2053,-1.08,1644596896.859375,P05,D05,1,1,1
2054,-1.0,1644596896.875,P05,D05,1,1,1
2055,-0.67,1644596896.890625,P05,D05,1,1,1
2056,-0.16,1644596896.90625,P05,D05,1,1,1
2057,0.38,1644596896.921875,P05,D05,1,1,1
2058,0.78,1644596896.9375,P05,D05,1,1,1
2059,0.95,1644596896.953125,P05,D05,1,1,1
2060,0.92,1644596896.96875,P05,D05,1,1,1
2061,0.77,1644596896.984375,P05,D05,1,1,1
2062,0.65,1644596897.0,P05,D05,1,1,1
2063,0.62,1644596897.015625,P05,D05,1,1,1
2064,0.69,1644596897.03125,P05,D05,1,1,1
2065,0.8,1644596897.046875,P05,D05,1,1,1
2066,0.89,1644596897.0625,P05,D05,1,1,1
2067,0.89,1644596897.078125,P05,D05,1,1,1
2068,0.81,1644596897.09375,P05,D05,1,1,1
2069,0.66,1644596897.109375,P05,D05,1,1,1
2070,0.47,1644596897.125,P05,D05,1,1,1
2071,0.27,1644596897.140625,P05,D05,1,1,1
2072,0.08,1644596897.15625,P05,D05,1,1,1
2073,-0.11,1644596897.171875,P05,D05,1,1,1
2074,-0.27,1644596897.1875,P05,D05,1,1,1
2075,-0.38,1644596897.203125,P05,D05,1,1,1
2076,-0.39,1644596897.21875,P05,D05,1,1,1
2077,-0.27,1644596897.234375,P05,D05,1,1,1
2078,-0.04,1644596897.25,P05,D05,1,1,1
2079,0.25,1644596897.265625,P05,D05,1,1,1
2080,0.5,1644596897.28125,P05,D05,1,1,1
2081,0.6,1644596897.296875,P05,D05,1,1,1
2082,0.51,1644596897.3125,P05,D05,1,1,1
2083,0.28,1644596897.328125,P05,D05,1,1,1
2084,-0.03,1644596897.34375,P05,D05,1,1,1
2085,-0.31,1644596897.359375,P05,D05,1,1,1
2086,-0.48,1644596897.375,P05,D05,1,1,1
2087,-0.52,1644596897.390625,P05,D05,1,1,1
2088,-0.43,1644596897.40625,P05,D05,1,1,1
2089,-0.26,1644596897.421875,P05,D05,1,1,1
2090,-0.04,1644596897.4375,P05,D05,1,1,1
2091,0.18,1644596897.453125,P05,D05,1,1,1
2092,0.36,1644596897.46875,P05,D05,1,1,1
2093,0.46,1644596897.484375,P05,D05,1,1,1
2094,0.47,1644596897.5,P05,D05,1,1,1
2095,0.39,1644596897.515625,P05,D05,1,1,1
2096,0.25,1644596897.53125,P05,D05,1,1,1
2097,0.08,1644596897.546875,P05,D05,1,1,1
2098,-0.13,1644596897.5625,P05,D05,1,1,1
2099,-0.38,1644596897.578125,P05,D05,1,1,1
2100,-0.65,1644596897.59375,P05,D05,1,1,1
2101,-0.9,1644596897.609375,P05,D05,1,1,1
2102,-1.07,1644596897.625,P05,D05,1,1,1
2103,-1.13,1644596897.640625,P05,D05,1,1,1
2104,-1.07,1644596897.65625,P05,D05,1,1,1
2105,-0.91,1644596897.671875,P05,D05,1,1,1
2106,-0.71,1644596897.6875,P05,D05,1,1,1
2107,-0.5,1644596897.703125,P05,D05,1,1,1
2108,-0.28,1644596897.71875,P05,D05,1,1,1
2109,-0.04,1644596897.734375,P05,D05,1,1,1
2110,0.23,1644596897.75,P05,D05,1,1,1
2111,0.5,1644596897.765625,P05,D05,1,1,1
2112,0.73,1644596897.78125,P05,D05,1,1,1
2113,0.87,1644596897.796875,P05,D05,1,1,1
2114,0.88,1644596897.8125,P05,D05,1,1,1
2115,0.78,1644596897.828125,P05,D05,1,1,1
2116,0.61,1644596897.84375,P05,D05,1,1,1
2117,0.39,1644596897.859375,P05,D05,1,1,1
2118,0.14,1644596897.875,P05,D05,1,1,1
2119,-0.1,1644596897.890625,P05,D05,1,1,1
2120,-0.3,1644596897.90625,P05,D05,1,1,1
2121,-0.42,1644596897.921875,P05,D05,1,1,1
2122,-0.41,1644596897.9375,P05,D05,1,1,1
2123,-0.3,1644596897.953125,P05,D05,1,1,1
2124,-0.15,1644596897.96875,P05,D05,1,1,1
2125,-0.05,1644596897.984375,P05,D05,1,1,1
2126,-0.05,1644596898.0,P05,D05,1,1,1
2127,-0.12,1644596898.015625,P05,D05,1,1,1
2128,-0.19,1644596898.03125,P05,D05,1,1,1
2129,-0.14,1644596898.046875,P05,D05,1,1,1
2130,0.1,1644596898.0625,P05,D05,1,1,1
2131,0.5,1644596898.078125,P05,D05,1,1,1
2132,0.94,1644596898.09375,P05,D05,1,1,1
2133,1.28,1644596898.109375,P05,D05,1,1,1
2134,1.37,1644596898.125,P05,D05,1,1,1
2135,1.19,1644596898.140625,P05,D05,1,1,1
2136,0.79,1644596898.15625,P05,D05,1,1,1
2137,0.28,1644596898.171875,P05,D05,1,1,1
2138,-0.2,1644596898.1875,P05,D05,1,1,1
2139,-0.56,1644596898.203125,P05,D05,1,1,1
2140,-0.75,1644596898.21875,P05,D05,1,1,1
2141,-0.76,1644596898.234375,P05,D05,1,1,1
2142,-0.57,1644596898.25,P05,D05,1,1,1
2143,-0.23,1644596898.265625,P05,D05,1,1,1
2144,0.26,1644596898.28125,P05,D05,1,1,1
2145,0.8,1644596898.296875,P05,D05,1,1,1
2146,1.32,1644596898.3125,P05,D05,1,1,1
2147,1.68,1644596898.328125,P05,D05,1,1,1
2148,1.78,1644596898.34375,P05,D05,1,1,1
2149,1.57,1644596898.359375,P05,D05,1,1,1
2150,1.09,1644596898.375,P05,D05,1,1,1
2151,0.48,1644596898.390625,P05,D05,1,1,1
2152,-0.06,1644596898.40625,P05,D05,1,1,1
2153,-0.37,1644596898.421875,P05,D05,1,1,1
2154,-0.4,1644596898.4375,P05,D05,1,1,1
2155,-0.18,1644596898.453125,P05,D05,1,1,1
2156,0.14,1644596898.46875,P05,D05,1,1,1
2157,0.41,1644596898.484375,P05,D05,1,1,1
2158,0.55,1644596898.5,P05,D05,1,1,1
2159,0.58,1644596898.515625,P05,D05,1,1,1
2160,0.6,1644596898.53125,P05,D05,1,1,1
2161,0.72,1644596898.546875,P05,D05,1,1,1
2162,0.95,1644596898.5625,P05,D05,1,1,1
2163,1.25,1644596898.578125,P05,D05,1,1,1
2164,1.49,1644596898.59375,P05,D05,1,1,1
2165,1.58,1644596898.609375,P05,D05,1,1,1
2166,1.45,1644596898.625,P05,D05,1,1,1
2167,1.14,1644596898.640625,P05,D05,1,1,1
2168,0.75,1644596898.65625,P05,D05,1,1,1
2169,0.41,1644596898.671875,P05,D05,1,1,1
2170,0.2,1644596898.6875,P05,D05,1,1,1
2171,0.21,1644596898.703125,P05,D05,1,1,1
2172,0.42,1644596898.71875,P05,D05,1,1,1
2173,0.78,1644596898.734375,P05,D05,1,1,1
2174,1.18,1644596898.75,P05,D05,1,1,1
2175,1.47,1644596898.765625,P05,D05,1,1,1
2176,1.57,1644596898.78125,P05,D05,1,1,1
2177,1.43,1644596898.796875,P05,D05,1,1,1
2178,1.11,1644596898.8125,P05,D05,1,1,1
2179,0.71,1644596898.828125,P05,D05,1,1,1
2180,0.36,1644596898.84375,P05,D05,1,1,1
2181,0.15,1644596898.859375,P05,D05,1,1,1
2182,0.1,1644596898.875,P05,D05,1,1,1
2183,0.21,1644596898.890625,P05,D05,1,1,1
2184,0.4,1644596898.90625,P05,D05,1,1,1
2185,0.6,1644596898.921875,P05,D05,1,1,1
2186,0.74,1644596898.9375,P05,D05,1,1,1
2187,0.77,1644596898.953125,P05,D05,1,1,1
2188,0.68,1644596898.96875,P05,D05,1,1,1
2189,0.49,1644596898.984375,P05,D05,1,1,1
2190,0.25,1644596899.0,P05,D05,1,1,1
2191,-0.01,1644596899.015625,P05,D05,1,1,1
2192,-0.26,1644596899.03125,P05,D05,1,1,1
2193,-0.48,1644596899.046875,P05,D05,1,1,1
2194,-0.67,1644596899.0625,P05,D05,1,1,1
2195,-0.83,1644596899.078125,P05,D05,1,1,1
2196,-1.01,1644596899.09375,P05,D05,1,1,1
2197,-1.21,1644596899.109375,P05,D05,1,1,1
2198,-1.43,1644596899.125,P05,D05,1,1,1
2199,-1.63,1644596899.140625,P05,D05,1,1,1
2200,-1.74,1644596899.15625,P05,D05,1,1,1
2201,-1.71,1644596899.171875,P05,D05,1,1,1
2202,-1.56,1644596899.1875,P05,D05,1,1,1
2203,-1.37,1644596899.203125,P05,D05,1,1,1
2204,-1.26,1644596899.21875,P05,D05,1,1,1
2205,-1.31,1644596899.234375,P05,D05,1,1,1
2206,-1.52,1644596899.25,P05,D05,1,1,1
2207,-1.83,1644596899.265625,P05,D05,1,1,1
2208,-2.1,1644596899.28125,P05,D05,1,1,1
2209,-2.26,1644596899.296875,P05,D05,1,1,1
2210,-2.3,1644596899.3125,P05,D05,1,1,1
2211,-2.24,1644596899.328125,P05,D05,1,1,1
2212,-2.13,1644596899.34375,P05,D05,1,1,1
2213,-1.98,1644596899.359375,P05,D05,1,1,1
2214,-1.76,1644596899.375,P05,D05,1,1,1
2215,-1.48,1644596899.390625,P05,D05,1,1,1
2216,-1.18,1644596899.40625,P05,D05,1,1,1
2217,-0.96,1644596899.421875,P05,D05,1,1,1
2218,-0.88,1644596899.4375,P05,D05,1,1,1
2219,-0.95,1644596899.453125,P05,D05,1,1,1
2220,-1.1,1644596899.46875,P05,D05,1,1,1
2221,-1.23,1644596899.484375,P05,D05,1,1,1
2222,-1.25,1644596899.5,P05,D05,1,1,1
2223,-1.14,1644596899.515625,P05,D05,1,1,1
2224,-0.92,1644596899.53125,P05,D05,1,1,1
2225,-0.65,1644596899.546875,P05,D05,1,1,1
2226,-0.4,1644596899.5625,P05,D05,1,1,1
2227,-0.2,1644596899.578125,P05,D05,1,1,1
2228,-0.09,1644596899.59375,P05,D05,1,1,1
2229,-0.06,1644596899.609375,P05,D05,1,1,1
2230,-0.08,1644596899.625,P05,D05,1,1,1
2231,-0.13,1644596899.640625,P05,D05,1,1,1
2232,-0.12,1644596899.65625,P05,D05,1,1,1
2233,-0.02,1644596899.671875,P05,D05,1,1,1
2234,0.19,1644596899.6875,P05,D05,1,1,1
2235,0.49,1644596899.703125,P05,D05,1,1,1
2236,0.78,1644596899.71875,P05,D05,1,1,1
2237,0.99,1644596899.734375,P05,D05,1,1,1
2238,1.07,1644596899.75,P05,D05,1,1,1
2239,1.02,1644596899.765625,P05,D05,1,1,1
2240,0.85,1644596899.78125,P05,D05,1,1,1
2241,0.62,1644596899.796875,P05,D05,1,1,1
2242,0.37,1644596899.8125,P05,D05,1,1,1
2243,0.12,1644596899.828125,P05,D05,1,1,1
2244,-0.15,1644596899.84375,P05,D05,1,1,1
2245,-0.44,1644596899.859375,P05,D05,1,1,1
2246,-0.77,1644596899.875,P05,D05,1,1,1
2247,-1.1,1644596899.890625,P05,D05,1,1,1
2248,-1.37,1644596899.90625,P05,D05,1,1,1
2249,-1.51,1644596899.921875,P05,D05,1,1,1
2250,-1.48,1644596899.9375,P05,D05,1,1,1
2251,-1.32,1644596899.953125,P05,D05,1,1,1
2252,-1.11,1644596899.96875,P05,D05,1,1,1
2253,-0.94,1644596899.984375,P05,D05,1,1,1
2254,-0.89,1644596900.0,P05,D05,1,1,1
2255,-0.94,1644596900.015625,P05,D05,1,1,1
2256,-1.03,1644596900.03125,P05,D05,1,1,1
2257,-1.07,1644596900.046875,P05,D05,1,1,1
2258,-1.0,1644596900.0625,P05,D05,1,1,1
2259,-0.8,1644596900.078125,P05,D05,1,1,1
2260,-0.5,1644596900.09375,P05,D05,1,1,1
2261,-0.17,1644596900.109375,P05,D05,1,1,1
2262,0.14,1644596900.125,P05,D05,1,1,1
2263,0.43,1644596900.140625,P05,D05,1,1,1
2264,0.72,1644596900.15625,P05,D05,1,1,1
2265,1.04,1644596900.171875,P05,D05,1,1,1
2266,1.37,1644596900.1875,P05,D05,1,1,1
2267,1.67,1644596900.203125,P05,D05,1,1,1
2268,1.87,1644596900.21875,P05,D05,1,1,1
2269,1.92,1644596900.234375,P05,D05,1,1,1
2270,1.85,1644596900.25,P05,D05,1,1,1
2271,1.69,1644596900.265625,P05,D05,1,1,1
2272,1.49,1644596900.28125,P05,D05,1,1,1
2273,1.28,1644596900.296875,P05,D05,1,1,1
2274,1.06,1644596900.3125,P05,D05,1,1,1
2275,0.82,1644596900.328125,P05,D05,1,1,1
2276,0.57,1644596900.34375,P05,D05,1,1,1
2277,0.38,1644596900.359375,P05,D05,1,1,1
2278,0.33,1644596900.375,P05,D05,1,1,1
2279,0.5,1644596900.390625,P05,D05,1,1,1
2280,0.89,1644596900.40625,P05,D05,1,1,1
2281,1.4,1644596900.421875,P05,D05,1,1,1
2282,1.86,1644596900.4375,P05,D05,1,1,1
2283,2.1,1644596900.453125,P05,D05,1,1,1
2284,2.03,1644596900.46875,P05,D05,1,1,1
2285,1.67,1644596900.484375,P05,D05,1,1,1
2286,1.12,1644596900.5,P05,D05,1,1,1
2287,0.57,1644596900.515625,P05,D05,1,1,1
2288,0.16,1644596900.53125,P05,D05,1,1,1
2289,-0.02,1644596900.546875,P05,D05,1,1,1
2290,0.04,1644596900.5625,P05,D05,1,1,1
2291,0.23,1644596900.578125,P05,D05,1,1,1
2292,0.4,1644596900.59375,P05,D05,1,1,1
2293,0.41,1644596900.609375,P05,D05,1,1,1
2294,0.21,1644596900.625,P05,D05,1,1,1
2295,-0.17,1644596900.640625,P05,D05,1,1,1
2296,-0.62,1644596900.65625,P05,D05,1,1,1
2297,-1.01,1644596900.671875,P05,D05,1,1,1
2298,-1.23,1644596900.6875,P05,D05,1,1,1
2299,-1.26,1644596900.703125,P05,D05,1,1,1
2300,-1.14,1644596900.71875,P05,D05,1,1,1
2301,-0.96,1644596900.734375,P05,D05,1,1,1
2302,-0.82,1644596900.75,P05,D05,1,1,1
2303,-0.74,1644596900.765625,P05,D05,1,1,1
2304,-0.74,1644596900.78125,P05,D05,1,1,1
2305,-0.79,1644596900.796875,P05,D05,1,1,1
2306,-0.88,1644596900.8125,P05,D05,1,1,1
2307,-0.97,1644596900.828125,P05,D05,1,1,1
2308,-0.97,1644596900.84375,P05,D05,1,1,1
2309,-0.82,1644596900.859375,P05,D05,1,1,1
2310,-0.44,1644596900.875,P05,D05,1,1,1
2311,0.15,1644596900.890625,P05,D05,1,1,1
2312,0.84,1644596900.90625,P05,D05,1,1,1
2313,1.45,1644596900.921875,P05,D05,1,1,1
2314,1.83,1644596900.9375,P05,D05,1,1,1
2315,1.9,1644596900.953125,P05,D05,1,1,1
2316,1.7,1644596900.96875,P05,D05,1,1,1
2317,1.37,1644596900.984375,P05,D05,1,1,1
2318,1.04,1644596901.0,P05,D05,1,1,1
2319,0.79,1644596901.015625,P05,D05,1,1,1
2320,0.6,1644596901.03125,P05,D05,1,1,1
2321,0.41,1644596901.046875,P05,D05,1,1,1
2322,0.17,1644596901.0625,P05,D05,1,1,1
2323,-0.09,1644596901.078125,P05,D05,1,1,1
2324,-0.34,1644596901.09375,P05,D05,1,1,1
2325,-0.49,1644596901.109375,P05,D05,1,1,1
2326,-0.53,1644596901.125,P05,D05,1,1,1
2327,-0.5,1644596901.140625,P05,D05,1,1,1
2328,-0.43,1644596901.15625,P05,D05,1,1,1
2329,-0.36,1644596901.171875,P05,D05,1,1,1
2330,-0.29,1644596901.1875,P05,D05,1,1,1
2331,-0.18,1644596901.203125,P05,D05,1,1,1
2332,-0.02,1644596901.21875,P05,D05,1,1,1
2333,0.19,1644596901.234375,P05,D05,1,1,1
2334,0.4,1644596901.25,P05,D05,1,1,1
2335,0.58,1644596901.265625,P05,D05,1,1,1
2336,0.65,1644596901.28125,P05,D05,1,1,1
2337,0.56,1644596901.296875,P05,D05,1,1,1
2338,0.28,1644596901.3125,P05,D05,1,1,1
2339,-0.18,1644596901.328125,P05,D05,1,1,1
2340,-0.73,1644596901.34375,P05,D05,1,1,1
2341,-1.26,1644596901.359375,P05,D05,1,1,1
2342,-1.64,1644596901.375,P05,D05,1,1,1
2343,-1.81,1644596901.390625,P05,D05,1,1,1
2344,-1.78,1644596901.40625,P05,D05,1,1,1
2345,-1.65,1644596901.421875,P05,D05,1,1,1
2346,-1.54,1644596901.4375,P05,D05,1,1,1
2347,-1.51,1644596901.453125,P05,D05,1,1,1
2348,-1.54,1644596901.46875,P05,D05,1,1,1
2349,-1.56,1644596901.484375,P05,D05,1,1,1
2350,-1.51,1644596901.5,P05,D05,1,1,1
2351,-1.38,1644596901.515625,P05,D05,1,1,1
2352,-1.21,1644596901.53125,P05,D05,1,1,1
2353,-1.08,1644596901.546875,P05,D05,1,1,1
2354,-0.99,1644596901.5625,P05,D05,1,1,1
2355,-0.92,1644596901.578125,P05,D05,1,1,1
2356,-0.8,1644596901.59375,P05,D05,1,1,1
2357,-0.58,1644596901.609375,P05,D05,1,1,1
2358,-0.29,1644596901.625,P05,D05,1,1,1
2359,-0.0,1644596901.640625,P05,D05,1,1,1
2360,0.19,1644596901.65625,P05,D05,1,1,1
2361,0.25,1644596901.671875,P05,D05,1,1,1
2362,0.2,1644596901.6875,P05,D05,1,1,1
2363,0.1,1644596901.703125,P05,D05,1,1,1
2364,0.06,1644596901.71875,P05,D05,1,1,1
2365,0.12,1644596901.734375,P05,D05,1,1,1
2366,0.3,1644596901.75,P05,D05,1,1,1
2367,0.56,1644596901.765625,P05,D05,1,1,1
2368,0.85,1644596901.78125,P05,D05,1,1,1
2369,1.07,1644596901.796875,P05,D05,1,1,1
2370,1.15,1644596901.8125,P05,D05,1,1,1
2371,1.05,1644596901.828125,P05,D05,1,1,1
2372,0.79,1644596901.84375,P05,D05,1,1,1
2373,0.42,1644596901.859375,P05,D05,1,1,1
2374,0.08,1644596901.875,P05,D05,1,1,1
2375,-0.15,1644596901.890625,P05,D05,1,1,1
2376,-0.21,1644596901.90625,P05,D05,1,1,1
2377,-0.13,1644596901.921875,P05,D05,1,1,1
2378,0.01,1644596901.9375,P05,D05,1,1,1
2379,0.11,1644596901.953125,P05,D05,1,1,1
2380,0.11,1644596901.96875,P05,D05,1,1,1
2381,0.03,1644596901.984375,P05,D05,1,1,1
2382,-0.06,1644596902.0,P05,D05,1,1,1
2383,-0.1,1644596902.015625,P05,D05,1,1,1
2384,-0.04,1644596902.03125,P05,D05,1,1,1
2385,0.09,1644596902.046875,P05,D05,1,1,1
2386,0.23,1644596902.0625,P05,D05,1,1,1
2387,0.26,1644596902.078125,P05,D05,1,1,1
2388,0.14,1644596902.09375,P05,D05,1,1,1
2389,-0.16,1644596902.109375,P05,D05,1,1,1
2390,-0.55,1644596902.125,P05,D05,1,1,1
2391,-0.95,1644596902.140625,P05,D05,1,1,1
2392,-1.22,1644596902.15625,P05,D05,1,1,1
2393,-1.27,1644596902.171875,P05,D05,1,1,1
2394,-1.1,1644596902.1875,P05,D05,1,1,1
2395,-0.74,1644596902.203125,P05,D05,1,1,1
2396,-0.3,1644596902.21875,P05,D05,1,1,1
2397,0.08,1644596902.234375,P05,D05,1,1,1
2398,0.29,1644596902.25,P05,D05,1,1,1
2399,0.3,1644596902.265625,P05,D05,1,1,1
2400,0.18,1644596902.28125,P05,D05,1,1,1
2401,0.05,1644596902.296875,P05,D05,1,1,1
2402,0.01,1644596902.3125,P05,D05,1,1,1
2403,0.12,1644596902.328125,P05,D05,1,1,1
2404,0.31,1644596902.34375,P05,D05,1,1,1
2405,0.47,1644596902.359375,P05,D05,1,1,1
2406,0.49,1644596902.375,P05,D05,1,1,1
2407,0.35,1644596902.390625,P05,D05,1,1,1
2408,0.13,1644596902.40625,P05,D05,1,1,1
2409,-0.04,1644596902.421875,P05,D05,1,1,1
2410,-0.07,1644596902.4375,P05,D05,1,1,1
2411,0.02,1644596902.453125,P05,D05,1,1,1
2412,0.16,1644596902.46875,P05,D05,1,1,1
2413,0.24,1644596902.484375,P05,D05,1,1,1
2414,0.23,1644596902.5,P05,D05,1,1,1
2415,0.17,1644596902.515625,P05,D05,1,1,1
2416,0.13,1644596902.53125,P05,D05,1,1,1
2417,0.17,1644596902.546875,P05,D05,1,1,1
2418,0.32,1644596902.5625,P05,D05,1,1,1
2419,0.52,1644596902.578125,P05,D05,1,1,1
2420,0.72,1644596902.59375,P05,D05,1,1,1
2421,0.92,1644596902.609375,P05,D05,1,1,1
2422,1.1,1644596902.625,P05,D05,1,1,1
2423,1.25,1644596902.640625,P05,D05,1,1,1
2424,1.3,1644596902.65625,P05,D05,1,1,1
2425,1.15,1644596902.671875,P05,D05,1,1,1
2426,0.77,1644596902.6875,P05,D05,1,1,1
2427,0.19,1644596902.703125,P05,D05,1,1,1
2428,-0.4,1644596902.71875,P05,D05,1,1,1
2429,-0.83,1644596902.734375,P05,D05,1,1,1
2430,-0.96,1644596902.75,P05,D05,1,1,1
2431,-0.81,1644596902.765625,P05,D05,1,1,1
2432,-0.52,1644596902.78125,P05,D05,1,1,1
2433,-0.25,1644596902.796875,P05,D05,1,1,1
2434,-0.11,1644596902.8125,P05,D05,1,1,1
2435,-0.11,1644596902.828125,P05,D05,1,1,1
2436,-0.16,1644596902.84375,P05,D05,1,1,1
2437,-0.18,1644596902.859375,P05,D05,1,1,1
2438,-0.12,1644596902.875,P05,D05,1,1,1
2439,0.01,1644596902.890625,P05,D05,1,1,1
2440,0.18,1644596902.90625,P05,D05,1,1,1
2441,0.34,1644596902.921875,P05,D05,1,1,1
2442,0.47,1644596902.9375,P05,D05,1,1,1
2443,0.56,1644596902.953125,P05,D05,1,1,1
2444,0.61,1644596902.96875,P05,D05,1,1,1
2445,0.61,1644596902.984375,P05,D05,1,1,1
2446,0.56,1644596903.0,P05,D05,1,1,1
2447,0.47,1644596903.015625,P05,D05,1,1,1
2448,0.33,1644596903.03125,P05,D05,1,1,1
2449,0.15,1644596903.046875,P05,D05,1,1,1
2450,-0.05,1644596903.0625,P05,D05,1,1,1
2451,-0.24,1644596903.078125,P05,D05,1,1,1
2452,-0.37,1644596903.09375,P05,D05,1,1,1
2453,-0.4,1644596903.109375,P05,D05,1,1,1
2454,-0.33,1644596903.125,P05,D05,1,1,1
2455,-0.2,1644596903.140625,P05,D05,1,1,1
2456,-0.08,1644596903.15625,P05,D05,1,1,1
2457,-0.01,1644596903.171875,P05,D05,1,1,1
2458,0.01,1644596903.1875,P05,D05,1,1,1
2459,0.04,1644596903.203125,P05,D05,1,1,1
2460,0.09,1644596903.21875,P05,D05,1,1,1
2461,0.17,1644596903.234375,P05,D05,1,1,1
2462,0.25,1644596903.25,P05,D05,1,1,1
2463,0.3,1644596903.265625,P05,D05,1,1,1
2464,0.33,1644596903.28125,P05,D05,1,1,1
2465,0.37,1644596903.296875,P05,D05,1,1,1
2466,0.45,1644596903.3125,P05,D05,1,1,1
2467,0.57,1644596903.328125,P05,D05,1,1,1
2468,0.7,1644596903.34375,P05,D05,1,1,1
2469,0.78,1644596903.359375,P05,D05,1,1,1
2470,0.78,1644596903.375,P05,D05,1,1,1
2471,0.72,1644596903.390625,P05,D05,1,1,1
2472,0.65,1644596903.40625,P05,D05,1,1,1
2473,0.59,1644596903.421875,P05,D05,1,1,1
2474,0.55,1644596903.4375,P05,D05,1,1,1
2475,0.51,1644596903.453125,P05,D05,1,1,1
2476,0.44,1644596903.46875,P05,D05,1,1,1
2477,0.37,1644596903.484375,P05,D05,1,1,1
2478,0.29,1644596903.5,P05,D05,1,1,1
2479,0.22,1644596903.515625,P05,D05,1,1,1
2480,0.14,1644596903.53125,P05,D05,1,1,1
2481,0.01,1644596903.546875,P05,D05,1,1,1
2482,-0.18,1644596903.5625,P05,D05,1,1,1
2483,-0.43,1644596903.578125,P05,D05,1,1,1
2484,-0.66,1644596903.59375,P05,D05,1,1,1
2485,-0.78,1644596903.609375,P05,D05,1,1,1
2486,-0.69,1644596903.625,P05,D05,1,1,1
2487,-0.41,1644596903.640625,P05,D05,1,1,1
2488,-0.03,1644596903.65625,P05,D05,1,1,1
2489,0.3,1644596903.671875,P05,D05,1,1,1
2490,0.44,1644596903.6875,P05,D05,1,1,1
2491,0.31,1644596903.703125,P05,D05,1,1,1
2492,-0.04,1644596903.71875,P05,D05,1,1,1
2493,-0.48,1644596903.734375,P05,D05,1,1,1
2494,-0.84,1644596903.75,P05,D05,1,1,1
2495,-0.99,1644596903.765625,P05,D05,1,1,1
2496,-0.89,1644596903.78125,P05,D05,1,1,1
2497,-0.58,1644596903.796875,P05,D05,1,1,1
2498,-0.17,1644596903.8125,P05,D05,1,1,1
2499,0.23,1644596903.828125,P05,D05,1,1,1
2500,0.52,1644596903.84375,P05,D05,1,1,1
2501,0.64,1644596903.859375,P05,D05,1,1,1
2502,0.57,1644596903.875,P05,D05,1,1,1
2503,0.32,1644596903.890625,P05,D05,1,1,1
2504,-0.04,1644596903.90625,P05,D05,1,1,1
2505,-0.44,1644596903.921875,P05,D05,1,1,1
2506,-0.78,1644596903.9375,P05,D05,1,1,1
2507,-1.01,1644596903.953125,P05,D05,1,1,1
2508,-1.11,1644596903.96875,P05,D05,1,1,1
2509,-1.09,1644596903.984375,P05,D05,1,1,1
2510,-1.0,1644596904.0,P05,D05,1,1,1
2511,-0.85,1644596904.015625,P05,D05,1,1,1
2512,-0.65,1644596904.03125,P05,D05,1,1,1
2513,-0.39,1644596904.046875,P05,D05,1,1,1
2514,-0.1,1644596904.0625,P05,D05,1,1,1
2515,0.17,1644596904.078125,P05,D05,1,1,1
2516,0.33,1644596904.09375,P05,D05,1,1,1
2517,0.33,1644596904.109375,P05,D05,1,1,1
2518,0.17,1644596904.125,P05,D05,1,1,1
2519,-0.1,1644596904.140625,P05,D05,1,1,1
2520,-0.36,1644596904.15625,P05,D05,1,1,1
2521,-0.5,1644596904.171875,P05,D05,1,1,1
2522,-0.48,1644596904.1875,P05,D05,1,1,1
2523,-0.33,1644596904.203125,P05,D05,1,1,1
2524,-0.14,1644596904.21875,P05,D05,1,1,1
2525,0.02,1644596904.234375,P05,D05,1,1,1
2526,0.08,1644596904.25,P05,D05,1,1,1
2527,0.02,1644596904.265625,P05,D05,1,1,1
2528,-0.15,1644596904.28125,P05,D05,1,1,1
2529,-0.36,1644596904.296875,P05,D05,1,1,1
2530,-0.5,1644596904.3125,P05,D05,1,1,1
2531,-0.5,1644596904.328125,P05,D05,1,1,1
2532,-0.28,1644596904.34375,P05,D05,1,1,1
2533,0.12,1644596904.359375,P05,D05,1,1,1
2534,0.59,1644596904.375,P05,D05,1,1,1
2535,0.96,1644596904.390625,P05,D05,1,1,1
2536,1.1,1644596904.40625,P05,D05,1,1,1
2537,0.97,1644596904.421875,P05,D05,1,1,1
2538,0.63,1644596904.4375,P05,D05,1,1,1
2539,0.25,1644596904.453125,P05,D05,1,1,1
2540,-0.02,1644596904.46875,P05,D05,1,1,1
2541,-0.08,1644596904.484375,P05,D05,1,1,1
2542,0.08,1644596904.5,P05,D05,1,1,1
2543,0.38,1644596904.515625,P05,D05,1,1,1
2544,0.7,1644596904.53125,P05,D05,1,1,1
2545,0.94,1644596904.546875,P05,D05,1,1,1
2546,1.05,1644596904.5625,P05,D05,1,1,1
2547,1.04,1644596904.578125,P05,D05,1,1,1
2548,0.95,1644596904.59375,P05,D05,1,1,1
2549,0.85,1644596904.609375,P05,D05,1,1,1
2550,0.77,1644596904.625,P05,D05,1,1,1
2551,0.73,1644596904.640625,P05,D05,1,1,1
2552,0.69,1644596904.65625,P05,D05,1,1,1
2553,0.63,1644596904.671875,P05,D05,1,1,1
2554,0.56,1644596904.6875,P05,D05,1,1,1
2555,0.46,1644596904.703125,P05,D05,1,1,1
2556,0.38,1644596904.71875,P05,D05,1,1,1
2557,0.35,1644596904.734375,P05,D05,1,1,1
2558,0.4,1644596904.75,P05,D05,1,1,1
2559,0.53,1644596904.765625,P05,D05,1,1,1
2560,0.69,1644596904.78125,P05,D05,1,1,1
2561,0.82,1644596904.796875,P05,D05,1,1,1
2562,0.84,1644596904.8125,P05,D05,1,1,1
2563,0.69,1644596904.828125,P05,D05,1,1,1
2564,0.38,1644596904.84375,P05,D05,1,1,1
2565,-0.03,1644596904.859375,P05,D05,1,1,1
2566,-0.41,1644596904.875,P05,D05,1,1,1
2567,-0.64,1644596904.890625,P05,D05,1,1,1
2568,-0.69,1644596904.90625,P05,D05,1,1,1
2569,-0.61,1644596904.921875,P05,D05,1,1,1
2570,-0.53,1644596904.9375,P05,D05,1,1,1
2571,-0.6,1644596904.953125,P05,D05,1,1,1
2572,-0.88,1644596904.96875,P05,D05,1,1,1
2573,-1.3,1644596904.984375,P05,D05,1,1,1
2574,-1.68,1644596905.0,P05,D05,1,1,1
2575,-1.82,1644596905.015625,P05,D05,1,1,1
2576,-1.62,1644596905.03125,P05,D05,1,1,1
2577,-1.13,1644596905.046875,P05,D05,1,1,1
2578,-0.53,1644596905.0625,P05,D05,1,1,1
2579,-0.06,1644596905.078125,P05,D05,1,1,1
2580,0.12,1644596905.09375,P05,D05,1,1,1
2581,0.02,1644596905.109375,P05,D05,1,1,1
2582,-0.26,1644596905.125,P05,D05,1,1,1
2583,-0.54,1644596905.140625,P05,D05,1,1,1
2584,-0.67,1644596905.15625,P05,D05,1,1,1
2585,-0.62,1644596905.171875,P05,D05,1,1,1
2586,-0.41,1644596905.1875,P05,D05,1,1,1
2587,-0.13,1644596905.203125,P05,D05,1,1,1
2588,0.14,1644596905.21875,P05,D05,1,1,1
2589,0.34,1644596905.234375,P05,D05,1,1,1
2590,0.44,1644596905.25,P05,D05,1,1,1
2591,0.41,1644596905.265625,P05,D05,1,1,1
2592,0.26,1644596905.28125,P05,D05,1,1,1
2593,0.03,1644596905.296875,P05,D05,1,1,1
2594,-0.22,1644596905.3125,P05,D05,1,1,1
2595,-0.41,1644596905.328125,P05,D05,1,1,1
2596,-0.45,1644596905.34375,P05,D05,1,1,1
2597,-0.33,1644596905.359375,P05,D05,1,1,1
2598,-0.09,1644596905.375,P05,D05,1,1,1
2599,0.17,1644596905.390625,P05,D05,1,1,1
2600,0.32,1644596905.40625,P05,D05,1,1,1
2601,0.32,1644596905.421875,P05,D05,1,1,1
2602,0.17,1644596905.4375,P05,D05,1,1,1
2603,-0.04,1644596905.453125,P05,D05,1,1,1
2604,-0.2,1644596905.46875,P05,D05,1,1,1
2605,-0.23,1644596905.484375,P05,D05,1,1,1
2606,-0.13,1644596905.5,P05,D05,1,1,1
2607,0.01,1644596905.515625,P05,D05,1,1,1
2608,0.1,1644596905.53125,P05,D05,1,1,1
2609,0.1,1644596905.546875,P05,D05,1,1,1
2610,0.02,1644596905.5625,P05,D05,1,1,1
2611,-0.11,1644596905.578125,P05,D05,1,1,1
2612,-0.23,1644596905.59375,P05,D05,1,1,1
2613,-0.34,1644596905.609375,P05,D05,1,1,1
2614,-0.43,1644596905.625,P05,D05,1,1,1
2615,-0.51,1644596905.640625,P05,D05,1,1,1
2616,-0.54,1644596905.65625,P05,D05,1,1,1
2617,-0.47,1644596905.671875,P05,D05,1,1,1
2618,-0.29,1644596905.6875,P05,D05,1,1,1
2619,-0.08,1644596905.703125,P05,D05,1,1,1
2620,0.06,1644596905.71875,P05,D05,1,1,1
2621,0.05,1644596905.734375,P05,D05,1,1,1
2622,-0.13,1644596905.75,P05,D05,1,1,1
2623,-0.4,1644596905.765625,P05,D05,1,1,1
2624,-0.65,1644596905.78125,P05,D05,1,1,1
2625,-0.77,1644596905.796875,P05,D05,1,1,1
2626,-0.75,1644596905.8125,P05,D05,1,1,1
2627,-0.63,1644596905.828125,P05,D05,1,1,1
2628,-0.5,1644596905.84375,P05,D05,1,1,1
2629,-0.39,1644596905.859375,P05,D05,1,1,1
2630,-0.32,1644596905.875,P05,D05,1,1,1
2631,-0.26,1644596905.890625,P05,D05,1,1,1
2632,-0.21,1644596905.90625,P05,D05,1,1,1
2633,-0.2,1644596905.921875,P05,D05,1,1,1
2634,-0.25,1644596905.9375,P05,D05,1,1,1
2635,-0.4,1644596905.953125,P05,D05,1,1,1
2636,-0.64,1644596905.96875,P05,D05,1,1,1
2637,-0.9,1644596905.984375,P05,D05,1,1,1
2638,-1.08,1644596906.0,P05,D05,1,1,1
2639,-1.08,1644596906.015625,P05,D05,1,1,1
2640,-0.81,1644596906.03125,P05,D05,1,1,1
2641,-0.27,1644596906.046875,P05,D05,1,1,1
2642,0.46,1644596906.0625,P05,D05,1,1,1
2643,1.19,1644596906.078125,P05,D05,1,1,1
2644,1.71,1644596906.09375,P05,D05,1,1,1
2645,1.84,1644596906.109375,P05,D05,1,1,1
2646,1.54,1644596906.125,P05,D05,1,1,1
2647,0.91,1644596906.140625,P05,D05,1,1,1
2648,0.14,1644596906.15625,P05,D05,1,1,1
2649,-0.56,1644596906.171875,P05,D05,1,1,1
2650,-1.0,1644596906.1875,P05,D05,1,1,1
2651,-1.11,1644596906.203125,P05,D05,1,1,1
2652,-0.87,1644596906.21875,P05,D05,1,1,1
2653,-0.35,1644596906.234375,P05,D05,1,1,1
2654,0.35,1644596906.25,P05,D05,1,1,1
2655,1.09,1644596906.265625,P05,D05,1,1,1
2656,1.69,1644596906.28125,P05,D05,1,1,1
2657,2.03,1644596906.296875,P05,D05,1,1,1
2658,2.06,1644596906.3125,P05,D05,1,1,1
2659,1.84,1644596906.328125,P05,D05,1,1,1
2660,1.5,1644596906.34375,P05,D05,1,1,1
2661,1.21,1644596906.359375,P05,D05,1,1,1
2662,1.06,1644596906.375,P05,D05,1,1,1
2663,1.06,1644596906.390625,P05,D05,1,1,1
2664,1.12,1644596906.40625,P05,D05,1,1,1
2665,1.16,1644596906.421875,P05,D05,1,1,1
2666,1.12,1644596906.4375,P05,D05,1,1,1
2667,1.02,1644596906.453125,P05,D05,1,1,1
2668,0.91,1644596906.46875,P05,D05,1,1,1
2669,0.82,1644596906.484375,P05,D05,1,1,1
2670,0.7,1644596906.5,P05,D05,1,1,1
2671,0.51,1644596906.515625,P05,D05,1,1,1
2672,0.23,1644596906.53125,P05,D05,1,1,1
2673,-0.12,1644596906.546875,P05,D05,1,1,1
2674,-0.43,1644596906.5625,P05,D05,1,1,1
2675,-0.6,1644596906.578125,P05,D05,1,1,1
2676,-0.58,1644596906.59375,P05,D05,1,1,1
2677,-0.38,1644596906.609375,P05,D05,1,1,1
2678,-0.08,1644596906.625,P05,D05,1,1,1
2679,0.21,1644596906.640625,P05,D05,1,1,1
2680,0.42,1644596906.65625,P05,D05,1,1,1
2681,0.56,1644596906.671875,P05,D05,1,1,1
2682,0.66,1644596906.6875,P05,D05,1,1,1
2683,0.81,1644596906.703125,P05,D05,1,1,1
2684,1.06,1644596906.71875,P05,D05,1,1,1
2685,1.42,1644596906.734375,P05,D05,1,1,1
2686,1.82,1644596906.75,P05,D05,1,1,1
2687,2.15,1644596906.765625,P05,D05,1,1,1
2688,2.29,1644596906.78125,P05,D05,1,1,1
2689,2.18,1644596906.796875,P05,D05,1,1,1
2690,1.81,1644596906.8125,P05,D05,1,1,1
2691,1.28,1644596906.828125,P05,D05,1,1,1
2692,0.73,1644596906.84375,P05,D05,1,1,1
2693,0.25,1644596906.859375,P05,D05,1,1,1
2694,-0.11,1644596906.875,P05,D05,1,1,1
2695,-0.39,1644596906.890625,P05,D05,1,1,1
2696,-0.62,1644596906.90625,P05,D05,1,1,1
2697,-0.82,1644596906.921875,P05,D05,1,1,1
2698,-1.0,1644596906.9375,P05,D05,1,1,1
2699,-1.15,1644596906.953125,P05,D05,1,1,1
2700,-1.33,1644596906.96875,P05,D05,1,1,1
2701,-1.57,1644596906.984375,P05,D05,1,1,1
2702,-1.93,1644596907.0,P05,D05,1,1,1
2703,-2.38,1644596907.015625,P05,D05,1,1,1
2704,-2.84,1644596907.03125,P05,D05,1,1,1
2705,-3.2,1644596907.046875,P05,D05,1,1,1
2706,-3.37,1644596907.0625,P05,D05,1,1,1
2707,-3.37,1644596907.078125,P05,D05,1,1,1
2708,-3.3,1644596907.09375,P05,D05,1,1,1
2709,-3.29,1644596907.109375,P05,D05,1,1,1
2710,-3.42,1644596907.125,P05,D05,1,1,1
2711,-3.71,1644596907.140625,P05,D05,1,1,1
2712,-4.1,1644596907.15625,P05,D05,1,1,1
2713,-4.49,1644596907.171875,P05,D05,1,1,1
2714,-4.81,1644596907.1875,P05,D05,1,1,1
2715,-5.01,1644596907.203125,P05,D05,1,1,1
2716,-5.08,1644596907.21875,P05,D05,1,1,1
2717,-5.05,1644596907.234375,P05,D05,1,1,1
2718,-4.96,1644596907.25,P05,D05,1,1,1
2719,-4.83,1644596907.265625,P05,D05,1,1,1
2720,-4.66,1644596907.28125,P05,D05,1,1,1
2721,-4.37,1644596907.296875,P05,D05,1,1,1
2722,-3.85,1644596907.3125,P05,D05,1,1,1
2723,-2.99,1644596907.328125,P05,D05,1,1,1
2724,-1.75,1644596907.34375,P05,D05,1,1,1
2725,-0.17,1644596907.359375,P05,D05,1,1,1
2726,1.56,1644596907.375,P05,D05,1,1,1
2727,3.23,1644596907.390625,P05,D05,1,1,1
2728,4.64,1644596907.40625,P05,D05,1,1,1
2729,5.67,1644596907.421875,P05,D05,1,1,1
2730,6.29,1644596907.4375,P05,D05,1,1,1
2731,6.52,1644596907.453125,P05,D05,1,1,1
2732,6.4,1644596907.46875,P05,D05,1,1,1
2733,6.01,1644596907.484375,P05,D05,1,1,1
2734,5.46,1644596907.5,P05,D05,1,1,1
2735,4.88,1644596907.515625,P05,D05,1,1,1
2736,4.39,1644596907.53125,P05,D05,1,1,1
2737,4.08,1644596907.546875,P05,D05,1,1,1
2738,3.93,1644596907.5625,P05,D05,1,1,1
2739,3.86,1644596907.578125,P05,D05,1,1,1
2740,3.74,1644596907.59375,P05,D05,1,1,1
2741,3.48,1644596907.609375,P05,D05,1,1,1
2742,3.01,1644596907.625,P05,D05,1,1,1
2743,2.37,1644596907.640625,P05,D05,1,1,1
2744,1.61,1644596907.65625,P05,D05,1,1,1
2745,0.84,1644596907.671875,P05,D05,1,1,1
2746,0.16,1644596907.6875,P05,D05,1,1,1
2747,-0.35,1644596907.703125,P05,D05,1,1,1
2748,-0.61,1644596907.71875,P05,D05,1,1,1
2749,-0.6,1644596907.734375,P05,D05,1,1,1
2750,-0.37,1644596907.75,P05,D05,1,1,1
2751,-0.01,1644596907.765625,P05,D05,1,1,1
2752,0.33,1644596907.78125,P05,D05,1,1,1
2753,0.52,1644596907.796875,P05,D05,1,1,1
2754,0.48,1644596907.8125,P05,D05,1,1,1
2755,0.19,1644596907.828125,P05,D05,1,1,1
2756,-0.28,1644596907.84375,P05,D05,1,1,1
2757,-0.79,1644596907.859375,P05,D05,1,1,1
2758,-1.22,1644596907.875,P05,D05,1,1,1
2759,-1.4,1644596907.890625,P05,D05,1,1,1
2760,-1.29,1644596907.90625,P05,D05,1,1,1
2761,-0.92,1644596907.921875,P05,D05,1,1,1
2762,-0.45,1644596907.9375,P05,D05,1,1,1
2763,-0.07,1644596907.953125,P05,D05,1,1,1
2764,0.01,1644596907.96875,P05,D05,1,1,1
2765,-0.31,1644596907.984375,P05,D05,1,1,1
2766,-0.96,1644596908.0,P05,D05,1,1,1
2767,-1.74,1644596908.015625,P05,D05,1,1,1
2768,-2.39,1644596908.03125,P05,D05,1,1,1
2769,-2.67,1644596908.046875,P05,D05,1,1,1
2770,-2.47,1644596908.0625,P05,D05,1,1,1
2771,-1.86,1644596908.078125,P05,D05,1,1,1
2772,-1.04,1644596908.09375,P05,D05,1,1,1
2773,-0.26,1644596908.109375,P05,D05,1,1,1
2774,0.25,1644596908.125,P05,D05,1,1,1
2775,0.43,1644596908.140625,P05,D05,1,1,1
2776,0.3,1644596908.15625,P05,D05,1,1,1
2777,0.01,1644596908.171875,P05,D05,1,1,1
2778,-0.29,1644596908.1875,P05,D05,1,1,1
2779,-0.49,1644596908.203125,P05,D05,1,1,1
2780,-0.56,1644596908.21875,P05,D05,1,1,1
2781,-0.54,1644596908.234375,P05,D05,1,1,1
2782,-0.5,1644596908.25,P05,D05,1,1,1
2783,-0.47,1644596908.265625,P05,D05,1,1,1
2784,-0.42,1644596908.28125,P05,D05,1,1,1
2785,-0.28,1644596908.296875,P05,D05,1,1,1
2786,-0.03,1644596908.3125,P05,D05,1,1,1
2787,0.3,1644596908.328125,P05,D05,1,1,1
2788,0.61,1644596908.34375,P05,D05,1,1,1
2789,0.76,1644596908.359375,P05,D05,1,1,1
2790,0.66,1644596908.375,P05,D05,1,1,1
2791,0.34,1644596908.390625,P05,D05,1,1,1
2792,-0.11,1644596908.40625,P05,D05,1,1,1
2793,-0.51,1644596908.421875,P05,D05,1,1,1
2794,-0.75,1644596908.4375,P05,D05,1,1,1
2795,-0.8,1644596908.453125,P05,D05,1,1,1
2796,-0.72,1644596908.46875,P05,D05,1,1,1
2797,-0.62,1644596908.484375,P05,D05,1,1,1
2798,-0.58,1644596908.5,P05,D05,1,1,1
2799,-0.62,1644596908.515625,P05,D05,1,1,1
2800,-0.66,1644596908.53125,P05,D05,1,1,1
2801,-0.61,1644596908.546875,P05,D05,1,1,1
2802,-0.41,1644596908.5625,P05,D05,1,1,1
2803,-0.1,1644596908.578125,P05,D05,1,1,1
2804,0.22,1644596908.59375,P05,D05,1,1,1
2805,0.44,1644596908.609375,P05,D05,1,1,1
2806,0.49,1644596908.625,P05,D05,1,1,1
2807,0.39,1644596908.640625,P05,D05,1,1,1
2808,0.28,1644596908.65625,P05,D05,1,1,1
2809,0.32,1644596908.671875,P05,D05,1,1,1
2810,0.61,1644596908.6875,P05,D05,1,1,1
2811,1.14,1644596908.703125,P05,D05,1,1,1
2812,1.77,1644596908.71875,P05,D05,1,1,1
2813,2.34,1644596908.734375,P05,D05,1,1,1
2814,2.72,1644596908.75,P05,D05,1,1,1
2815,2.87,1644596908.765625,P05,D05,1,1,1
2816,2.83,1644596908.78125,P05,D05,1,1,1
2817,2.67,1644596908.796875,P05,D05,1,1,1
2818,2.4,1644596908.8125,P05,D05,1,1,1
2819,2.03,1644596908.828125,P05,D05,1,1,1
2820,1.57,1644596908.84375,P05,D05,1,1,1
2821,1.08,1644596908.859375,P05,D05,1,1,1
2822,0.73,1644596908.875,P05,D05,1,1,1
2823,0.64,1644596908.890625,P05,D05,1,1,1
2824,0.9,1644596908.90625,P05,D05,1,1,1
2825,1.42,1644596908.921875,P05,D05,1,1,1
2826,1.99,1644596908.9375,P05,D05,1,1,1
2827,2.4,1644596908.953125,P05,D05,1,1,1
2828,2.5,1644596908.96875,P05,D05,1,1,1
2829,2.31,1644596908.984375,P05,D05,1,1,1
2830,1.99,1644596909.0,P05,D05,1,1,1
2831,1.72,1644596909.015625,P05,D05,1,1,1
2832,1.61,1644596909.03125,P05,D05,1,1,1
2833,1.65,1644596909.046875,P05,D05,1,1,1
2834,1.74,1644596909.0625,P05,D05,1,1,1
2835,1.75,1644596909.078125,P05,D05,1,1,1
2836,1.53,1644596909.09375,P05,D05,1,1,1
2837,1.03,1644596909.109375,P05,D05,1,1,1
2838,0.27,1644596909.125,P05,D05,1,1,1
2839,-0.68,1644596909.140625,P05,D05,1,1,1
2840,-1.68,1644596909.15625,P05,D05,1,1,1
2841,-2.56,1644596909.171875,P05,D05,1,1,1
2842,-3.18,1644596909.1875,P05,D05,1,1,1
2843,-3.47,1644596909.203125,P05,D05,1,1,1
2844,-3.48,1644596909.21875,P05,D05,1,1,1
2845,-3.29,1644596909.234375,P05,D05,1,1,1
2846,-3.0,1644596909.25,P05,D05,1,1,1
2847,-2.67,1644596909.265625,P05,D05,1,1,1
2848,-2.28,1644596909.28125,P05,D05,1,1,1
2849,-1.86,1644596909.296875,P05,D05,1,1,1
2850,-1.46,1644596909.3125,P05,D05,1,1,1
2851,-1.21,1644596909.328125,P05,D05,1,1,1
2852,-1.18,1644596909.34375,P05,D05,1,1,1
2853,-1.34,1644596909.359375,P05,D05,1,1,1
2854,-1.54,1644596909.375,P05,D05,1,1,1
2855,-1.6,1644596909.390625,P05,D05,1,1,1
2856,-1.36,1644596909.40625,P05,D05,1,1,1
2857,-0.87,1644596909.421875,P05,D05,1,1,1
2858,-0.29,1644596909.4375,P05,D05,1,1,1
2859,0.16,1644596909.453125,P05,D05,1,1,1
2860,0.32,1644596909.46875,P05,D05,1,1,1
2861,0.2,1644596909.484375,P05,D05,1,1,1
2862,-0.09,1644596909.5,P05,D05,1,1,1
2863,-0.39,1644596909.515625,P05,D05,1,1,1
2864,-0.57,1644596909.53125,P05,D05,1,1,1
2865,-0.57,1644596909.546875,P05,D05,1,1,1
2866,-0.41,1644596909.5625,P05,D05,1,1,1
2867,-0.15,1644596909.578125,P05,D05,1,1,1
2868,0.13,1644596909.59375,P05,D05,1,1,1
2869,0.35,1644596909.609375,P05,D05,1,1,1
2870,0.43,1644596909.625,P05,D05,1,1,1
2871,0.35,1644596909.640625,P05,D05,1,1,1
2872,0.11,1644596909.65625,P05,D05,1,1,1
2873,-0.17,1644596909.671875,P05,D05,1,1,1
2874,-0.39,1644596909.6875,P05,D05,1,1,1
2875,-0.43,1644596909.703125,P05,D05,1,1,1
2876,-0.25,1644596909.71875,P05,D05,1,1,1
2877,0.1,1644596909.734375,P05,D05,1,1,1
2878,0.51,1644596909.75,P05,D05,1,1,1
2879,0.83,1644596909.765625,P05,D05,1,1,1
2880,0.98,1644596909.78125,P05,D05,1,1,1
2881,0.93,1644596909.796875,P05,D05,1,1,1
2882,0.7,1644596909.8125,P05,D05,1,1,1
2883,0.4,1644596909.828125,P05,D05,1,1,1
2884,0.1,1644596909.84375,P05,D05,1,1,1
2885,-0.17,1644596909.859375,P05,D05,1,1,1
2886,-0.38,1644596909.875,P05,D05,1,1,1
2887,-0.53,1644596909.890625,P05,D05,1,1,1
2888,-0.62,1644596909.90625,P05,D05,1,1,1
2889,-0.63,1644596909.921875,P05,D05,1,1,1
2890,-0.57,1644596909.9375,P05,D05,1,1,1
2891,-0.51,1644596909.953125,P05,D05,1,1,1
2892,-0.51,1644596909.96875,P05,D05,1,1,1
2893,-0.63,1644596909.984375,P05,D05,1,1,1
2894,-0.85,1644596910.0,P05,D05,1,1,1
2895,-1.12,1644596910.015625,P05,D05,1,1,1
2896,-1.33,1644596910.03125,P05,D05,1,1,1
2897,-1.39,1644596910.046875,P05,D05,1,1,1
2898,-1.27,1644596910.0625,P05,D05,1,1,1
2899,-1.02,1644596910.078125,P05,D05,1,1,1
2900,-0.74,1644596910.09375,P05,D05,1,1,1
2901,-0.47,1644596910.109375,P05,D05,1,1,1
2902,-0.25,1644596910.125,P05,D05,1,1,1
2903,-0.08,1644596910.140625,P05,D05,1,1,1
2904,0.07,1644596910.15625,P05,D05,1,1,1
2905,0.2,1644596910.171875,P05,D05,1,1,1
2906,0.32,1644596910.1875,P05,D05,1,1,1
2907,0.42,1644596910.203125,P05,D05,1,1,1
2908,0.49,1644596910.21875,P05,D05,1,1,1
2909,0.52,1644596910.234375,P05,D05,1,1,1
2910,0.56,1644596910.25,P05,D05,1,1,1
2911,0.63,1644596910.265625,P05,D05,1,1,1
2912,0.77,1644596910.28125,P05,D05,1,1,1
2913,1.01,1644596910.296875,P05,D05,1,1,1
2914,1.3,1644596910.3125,P05,D05,1,1,1
2915,1.59,1644596910.328125,P05,D05,1,1,1
2916,1.78,1644596910.34375,P05,D05,1,1,1
2917,1.77,1644596910.359375,P05,D05,1,1,1
2918,1.54,1644596910.375,P05,D05,1,1,1
2919,1.1,1644596910.390625,P05,D05,1,1,1
2920,0.58,1644596910.40625,P05,D05,1,1,1
2921,0.1,1644596910.421875,P05,D05,1,1,1
