,data,timestamp,participant,document,val,arou,eng
0,-0.75,1645192620.453125,P16,D07,1,1,0
1,-0.79,1645192620.46875,P16,D07,1,1,0
2,-0.66,1645192620.484375,P16,D07,1,1,0
3,-0.36,1645192620.5,P16,D07,1,1,0
4,0.05,1645192620.515625,P16,D07,1,1,0
5,0.46,1645192620.53125,P16,D07,1,1,0
6,0.79,1645192620.546875,P16,D07,1,1,0
7,0.98,1645192620.5625,P16,D07,1,1,0
8,1.05,1645192620.578125,P16,D07,1,1,0
9,1.03,1645192620.59375,P16,D07,1,1,0
10,0.98,1645192620.609375,P16,D07,1,1,0
11,0.87,1645192620.625,P16,D07,1,1,0
12,0.7,1645192620.640625,P16,D07,1,1,0
13,0.48,1645192620.65625,P16,D07,1,1,0
14,0.23,1645192620.671875,P16,D07,1,1,0
15,-0.0,1645192620.6875,P16,D07,1,1,0
16,-0.19,1645192620.703125,P16,D07,1,1,0
17,-0.34,1645192620.71875,P16,D07,1,1,0
18,-0.43,1645192620.734375,P16,D07,1,1,0
19,-0.49,1645192620.75,P16,D07,1,1,0
20,-0.52,1645192620.765625,P16,D07,1,1,0
21,-0.48,1645192620.78125,P16,D07,1,1,0
22,-0.4,1645192620.796875,P16,D07,1,1,0
23,-0.29,1645192620.8125,P16,D07,1,1,0
24,-0.21,1645192620.828125,P16,D07,1,1,0
25,-0.19,1645192620.84375,P16,D07,1,1,0
26,-0.22,1645192620.859375,P16,D07,1,1,0
27,-0.25,1645192620.875,P16,D07,1,1,0
28,-0.2,1645192620.890625,P16,D07,1,1,0
29,-0.06,1645192620.90625,P16,D07,1,1,0
30,0.17,1645192620.921875,P16,D07,1,1,0
31,0.4,1645192620.9375,P16,D07,1,1,0
32,0.53,1645192620.953125,P16,D07,1,1,0
33,0.53,1645192620.96875,P16,D07,1,1,0
34,0.43,1645192620.984375,P16,D07,1,1,0
35,0.3,1645192621.0,P16,D07,1,1,0
36,0.22,1645192621.015625,P16,D07,1,1,0
37,0.19,1645192621.03125,P16,D07,1,1,0
38,0.19,1645192621.046875,P16,D07,1,1,0
39,0.16,1645192621.0625,P16,D07,1,1,0
40,0.04,1645192621.078125,P16,D07,1,1,0
41,-0.16,1645192621.09375,P16,D07,1,1,0
42,-0.38,1645192621.109375,P16,D07,1,1,0
43,-0.57,1645192621.125,P16,D07,1,1,0
44,-0.68,1645192621.140625,P16,D07,1,1,0
45,-0.7,1645192621.15625,P16,D07,1,1,0
46,-0.64,1645192621.171875,P16,D07,1,1,0
47,-0.51,1645192621.1875,P16,D07,1,1,0
48,-0.32,1645192621.203125,P16,D07,1,1,0
49,-0.09,1645192621.21875,P16,D07,1,1,0
50,0.11,1645192621.234375,P16,D07,1,1,0
51,0.22,1645192621.25,P16,D07,1,1,0
52,0.18,1645192621.265625,P16,D07,1,1,0
53,-0.02,1645192621.28125,P16,D07,1,1,0
54,-0.31,1645192621.296875,P16,D07,1,1,0
55,-0.58,1645192621.3125,P16,D07,1,1,0
56,-0.72,1645192621.328125,P16,D07,1,1,0
57,-0.68,1645192621.34375,P16,D07,1,1,0
58,-0.5,1645192621.359375,P16,D07,1,1,0
59,-0.29,1645192621.375,P16,D07,1,1,0
60,-0.16,1645192621.390625,P16,D07,1,1,0
61,-0.17,1645192621.40625,P16,D07,1,1,0
62,-0.32,1645192621.421875,P16,D07,1,1,0
63,-0.55,1645192621.4375,P16,D07,1,1,0
64,-0.78,1645192621.453125,P16,D07,1,1,0
65,-0.94,1645192621.46875,P16,D07,1,1,0
66,-0.97,1645192621.484375,P16,D07,1,1,0
67,-0.83,1645192621.5,P16,D07,1,1,0
68,-0.48,1645192621.515625,P16,D07,1,1,0
69,0.05,1645192621.53125,P16,D07,1,1,0
70,0.66,1645192621.546875,P16,D07,1,1,0
71,1.19,1645192621.5625,P16,D07,1,1,0
72,1.44,1645192621.578125,P16,D07,1,1,0
73,1.31,1645192621.59375,P16,D07,1,1,0
74,0.83,1645192621.609375,P16,D07,1,1,0
75,0.19,1645192621.625,P16,D07,1,1,0
76,-0.38,1645192621.640625,P16,D07,1,1,0
77,-0.67,1645192621.65625,P16,D07,1,1,0
78,-0.6,1645192621.671875,P16,D07,1,1,0
79,-0.28,1645192621.6875,P16,D07,1,1,0
80,0.16,1645192621.703125,P16,D07,1,1,0
81,0.54,1645192621.71875,P16,D07,1,1,0
82,0.8,1645192621.734375,P16,D07,1,1,0
83,0.96,1645192621.75,P16,D07,1,1,0
84,1.06,1645192621.765625,P16,D07,1,1,0
85,1.08,1645192621.78125,P16,D07,1,1,0
86,0.99,1645192621.796875,P16,D07,1,1,0
87,0.71,1645192621.8125,P16,D07,1,1,0
88,0.25,1645192621.828125,P16,D07,1,1,0
89,-0.29,1645192621.84375,P16,D07,1,1,0
90,-0.74,1645192621.859375,P16,D07,1,1,0
91,-0.94,1645192621.875,P16,D07,1,1,0
92,-0.88,1645192621.890625,P16,D07,1,1,0
93,-0.65,1645192621.90625,P16,D07,1,1,0
94,-0.42,1645192621.921875,P16,D07,1,1,0
95,-0.28,1645192621.9375,P16,D07,1,1,0
96,-0.26,1645192621.953125,P16,D07,1,1,0
97,-0.24,1645192621.96875,P16,D07,1,1,0
98,-0.11,1645192621.984375,P16,D07,1,1,0
99,0.18,1645192622.0,P16,D07,1,1,0
100,0.54,1645192622.015625,P16,D07,1,1,0
101,0.85,1645192622.03125,P16,D07,1,1,0
102,1.0,1645192622.046875,P16,D07,1,1,0
103,1.01,1645192622.0625,P16,D07,1,1,0
104,0.93,1645192622.078125,P16,D07,1,1,0
105,0.87,1645192622.09375,P16,D07,1,1,0
106,0.85,1645192622.109375,P16,D07,1,1,0
107,0.81,1645192622.125,P16,D07,1,1,0
108,0.67,1645192622.140625,P16,D07,1,1,0
109,0.37,1645192622.15625,P16,D07,1,1,0
110,-0.06,1645192622.171875,P16,D07,1,1,0
111,-0.52,1645192622.1875,P16,D07,1,1,0
112,-0.86,1645192622.203125,P16,D07,1,1,0
113,-1.03,1645192622.21875,P16,D07,1,1,0
114,-1.01,1645192622.234375,P16,D07,1,1,0
115,-0.87,1645192622.25,P16,D07,1,1,0
116,-0.69,1645192622.265625,P16,D07,1,1,0
117,-0.49,1645192622.28125,P16,D07,1,1,0
118,-0.29,1645192622.296875,P16,D07,1,1,0
119,-0.12,1645192622.3125,P16,D07,1,1,0
120,-0.04,1645192622.328125,P16,D07,1,1,0
121,-0.08,1645192622.34375,P16,D07,1,1,0
122,-0.29,1645192622.359375,P16,D07,1,1,0
123,-0.64,1645192622.375,P16,D07,1,1,0
124,-1.02,1645192622.390625,P16,D07,1,1,0
125,-1.29,1645192622.40625,P16,D07,1,1,0
126,-1.34,1645192622.421875,P16,D07,1,1,0
127,-1.15,1645192622.4375,P16,D07,1,1,0
128,-0.79,1645192622.453125,P16,D07,1,1,0
129,-0.39,1645192622.46875,P16,D07,1,1,0
130,-0.09,1645192622.484375,P16,D07,1,1,0
131,0.1,1645192622.5,P16,D07,1,1,0
132,0.21,1645192622.515625,P16,D07,1,1,0
133,0.29,1645192622.53125,P16,D07,1,1,0
134,0.38,1645192622.546875,P16,D07,1,1,0
135,0.46,1645192622.5625,P16,D07,1,1,0
136,0.47,1645192622.578125,P16,D07,1,1,0
137,0.4,1645192622.59375,P16,D07,1,1,0
138,0.31,1645192622.609375,P16,D07,1,1,0
139,0.3,1645192622.625,P16,D07,1,1,0
140,0.43,1645192622.640625,P16,D07,1,1,0
141,0.69,1645192622.65625,P16,D07,1,1,0
142,0.95,1645192622.671875,P16,D07,1,1,0
143,1.07,1645192622.6875,P16,D07,1,1,0
144,0.96,1645192622.703125,P16,D07,1,1,0
145,0.66,1645192622.71875,P16,D07,1,1,0
146,0.28,1645192622.734375,P16,D07,1,1,0
147,-0.02,1645192622.75,P16,D07,1,1,0
148,-0.18,1645192622.765625,P16,D07,1,1,0
149,-0.21,1645192622.78125,P16,D07,1,1,0
150,-0.24,1645192622.796875,P16,D07,1,1,0
151,-0.35,1645192622.8125,P16,D07,1,1,0
152,-0.54,1645192622.828125,P16,D07,1,1,0
153,-0.73,1645192622.84375,P16,D07,1,1,0
154,-0.8,1645192622.859375,P16,D07,1,1,0
155,-0.69,1645192622.875,P16,D07,1,1,0
156,-0.43,1645192622.890625,P16,D07,1,1,0
157,-0.12,1645192622.90625,P16,D07,1,1,0
158,0.11,1645192622.921875,P16,D07,1,1,0
159,0.18,1645192622.9375,P16,D07,1,1,0
160,0.12,1645192622.953125,P16,D07,1,1,0
161,-0.01,1645192622.96875,P16,D07,1,1,0
162,-0.12,1645192622.984375,P16,D07,1,1,0
163,-0.19,1645192623.0,P16,D07,1,1,0
164,-0.24,1645192623.015625,P16,D07,1,1,0
165,-0.29,1645192623.03125,P16,D07,1,1,0
166,-0.37,1645192623.046875,P16,D07,1,1,0
167,-0.43,1645192623.0625,P16,D07,1,1,0
168,-0.45,1645192623.078125,P16,D07,1,1,0
169,-0.38,1645192623.09375,P16,D07,1,1,0
170,-0.25,1645192623.109375,P16,D07,1,1,0
171,-0.1,1645192623.125,P16,D07,1,1,0
172,-0.0,1645192623.140625,P16,D07,1,1,0
173,0.03,1645192623.15625,P16,D07,1,1,0
174,0.02,1645192623.171875,P16,D07,1,1,0
175,-0.0,1645192623.1875,P16,D07,1,1,0
176,0.0,1645192623.203125,P16,D07,1,1,0
177,0.05,1645192623.21875,P16,D07,1,1,0
178,0.12,1645192623.234375,P16,D07,1,1,0
179,0.19,1645192623.25,P16,D07,1,1,0
180,0.25,1645192623.265625,P16,D07,1,1,0
181,0.27,1645192623.28125,P16,D07,1,1,0
182,0.26,1645192623.296875,P16,D07,1,1,0
183,0.19,1645192623.3125,P16,D07,1,1,0
184,0.04,1645192623.328125,P16,D07,1,1,0
185,-0.17,1645192623.34375,P16,D07,1,1,0
186,-0.39,1645192623.359375,P16,D07,1,1,0
187,-0.52,1645192623.375,P16,D07,1,1,0
188,-0.45,1645192623.390625,P16,D07,1,1,0
189,-0.15,1645192623.40625,P16,D07,1,1,0
190,0.34,1645192623.421875,P16,D07,1,1,0
191,0.9,1645192623.4375,P16,D07,1,1,0
192,1.38,1645192623.453125,P16,D07,1,1,0
193,1.66,1645192623.46875,P16,D07,1,1,0
194,1.71,1645192623.484375,P16,D07,1,1,0
195,1.56,1645192623.5,P16,D07,1,1,0
196,1.28,1645192623.515625,P16,D07,1,1,0
197,0.93,1645192623.53125,P16,D07,1,1,0
198,0.58,1645192623.546875,P16,D07,1,1,0
199,0.27,1645192623.5625,P16,D07,1,1,0
200,-0.0,1645192623.578125,P16,D07,1,1,0
201,-0.21,1645192623.59375,P16,D07,1,1,0
202,-0.35,1645192623.609375,P16,D07,1,1,0
203,-0.4,1645192623.625,P16,D07,1,1,0
204,-0.36,1645192623.640625,P16,D07,1,1,0
205,-0.24,1645192623.65625,P16,D07,1,1,0
206,-0.06,1645192623.671875,P16,D07,1,1,0
207,0.14,1645192623.6875,P16,D07,1,1,0
208,0.31,1645192623.703125,P16,D07,1,1,0
209,0.44,1645192623.71875,P16,D07,1,1,0
210,0.54,1645192623.734375,P16,D07,1,1,0
211,0.65,1645192623.75,P16,D07,1,1,0
212,0.83,1645192623.765625,P16,D07,1,1,0
213,1.04,1645192623.78125,P16,D07,1,1,0
214,1.24,1645192623.796875,P16,D07,1,1,0
215,1.32,1645192623.8125,P16,D07,1,1,0
216,1.21,1645192623.828125,P16,D07,1,1,0
217,0.94,1645192623.84375,P16,D07,1,1,0
218,0.59,1645192623.859375,P16,D07,1,1,0
219,0.29,1645192623.875,P16,D07,1,1,0
220,0.16,1645192623.890625,P16,D07,1,1,0
221,0.24,1645192623.90625,P16,D07,1,1,0
222,0.49,1645192623.921875,P16,D07,1,1,0
223,0.79,1645192623.9375,P16,D07,1,1,0
224,1.04,1645192623.953125,P16,D07,1,1,0
225,1.12,1645192623.96875,P16,D07,1,1,0
226,1.02,1645192623.984375,P16,D07,1,1,0
227,0.77,1645192624.0,P16,D07,1,1,0
228,0.46,1645192624.015625,P16,D07,1,1,0
229,0.18,1645192624.03125,P16,D07,1,1,0
230,-0.01,1645192624.046875,P16,D07,1,1,0
231,-0.12,1645192624.0625,P16,D07,1,1,0
232,-0.17,1645192624.078125,P16,D07,1,1,0
233,-0.21,1645192624.09375,P16,D07,1,1,0
234,-0.23,1645192624.109375,P16,D07,1,1,0
235,-0.21,1645192624.125,P16,D07,1,1,0
236,-0.13,1645192624.140625,P16,D07,1,1,0
237,-0.03,1645192624.15625,P16,D07,1,1,0
238,0.01,1645192624.171875,P16,D07,1,1,0
239,-0.08,1645192624.1875,P16,D07,1,1,0
240,-0.32,1645192624.203125,P16,D07,1,1,0
241,-0.64,1645192624.21875,P16,D07,1,1,0
242,-0.93,1645192624.234375,P16,D07,1,1,0
243,-1.05,1645192624.25,P16,D07,1,1,0
244,-0.96,1645192624.265625,P16,D07,1,1,0
245,-0.69,1645192624.28125,P16,D07,1,1,0
246,-0.36,1645192624.296875,P16,D07,1,1,0
247,-0.06,1645192624.3125,P16,D07,1,1,0
248,0.1,1645192624.328125,P16,D07,1,1,0
249,0.08,1645192624.34375,P16,D07,1,1,0
250,-0.1,1645192624.359375,P16,D07,1,1,0
251,-0.4,1645192624.375,P16,D07,1,1,0
252,-0.74,1645192624.390625,P16,D07,1,1,0
253,-1.06,1645192624.40625,P16,D07,1,1,0
254,-1.26,1645192624.421875,P16,D07,1,1,0
255,-1.32,1645192624.4375,P16,D07,1,1,0
256,-1.21,1645192624.453125,P16,D07,1,1,0
257,-0.96,1645192624.46875,P16,D07,1,1,0
258,-0.65,1645192624.484375,P16,D07,1,1,0
259,-0.39,1645192624.5,P16,D07,1,1,0
260,-0.31,1645192624.515625,P16,D07,1,1,0
261,-0.48,1645192624.53125,P16,D07,1,1,0
262,-0.93,1645192624.546875,P16,D07,1,1,0
263,-1.59,1645192624.5625,P16,D07,1,1,0
264,-2.29,1645192624.578125,P16,D07,1,1,0
265,-2.85,1645192624.59375,P16,D07,1,1,0
266,-3.08,1645192624.609375,P16,D07,1,1,0
267,-2.93,1645192624.625,P16,D07,1,1,0
268,-2.42,1645192624.640625,P16,D07,1,1,0
269,-1.69,1645192624.65625,P16,D07,1,1,0
270,-0.9,1645192624.671875,P16,D07,1,1,0
271,-0.21,1645192624.6875,P16,D07,1,1,0
272,0.3,1645192624.703125,P16,D07,1,1,0
273,0.6,1645192624.71875,P16,D07,1,1,0
274,0.74,1645192624.734375,P16,D07,1,1,0
275,0.78,1645192624.75,P16,D07,1,1,0
276,0.78,1645192624.765625,P16,D07,1,1,0
277,0.76,1645192624.78125,P16,D07,1,1,0
278,0.73,1645192624.796875,P16,D07,1,1,0
279,0.67,1645192624.8125,P16,D07,1,1,0
280,0.59,1645192624.828125,P16,D07,1,1,0
281,0.49,1645192624.84375,P16,D07,1,1,0
282,0.4,1645192624.859375,P16,D07,1,1,0
283,0.34,1645192624.875,P16,D07,1,1,0
284,0.27,1645192624.890625,P16,D07,1,1,0
285,0.19,1645192624.90625,P16,D07,1,1,0
286,0.07,1645192624.921875,P16,D07,1,1,0
287,-0.05,1645192624.9375,P16,D07,1,1,0
288,-0.15,1645192624.953125,P16,D07,1,1,0
289,-0.19,1645192624.96875,P16,D07,1,1,0
290,-0.18,1645192624.984375,P16,D07,1,1,0
291,-0.2,1645192625.0,P16,D07,1,1,0
292,-0.29,1645192625.015625,P16,D07,1,1,0
293,-0.49,1645192625.03125,P16,D07,1,1,0
294,-0.75,1645192625.046875,P16,D07,1,1,0
295,-0.97,1645192625.0625,P16,D07,1,1,0
296,-1.04,1645192625.078125,P16,D07,1,1,0
297,-0.93,1645192625.09375,P16,D07,1,1,0
298,-0.69,1645192625.109375,P16,D07,1,1,0
299,-0.45,1645192625.125,P16,D07,1,1,0
300,-0.36,1645192625.140625,P16,D07,1,1,0
301,-0.49,1645192625.15625,P16,D07,1,1,0
302,-0.82,1645192625.171875,P16,D07,1,1,0
303,-1.24,1645192625.1875,P16,D07,1,1,0
304,-1.59,1645192625.203125,P16,D07,1,1,0
305,-1.79,1645192625.21875,P16,D07,1,1,0
306,-1.82,1645192625.234375,P16,D07,1,1,0
307,-1.76,1645192625.25,P16,D07,1,1,0
308,-1.72,1645192625.265625,P16,D07,1,1,0
309,-1.78,1645192625.28125,P16,D07,1,1,0
310,-1.93,1645192625.296875,P16,D07,1,1,0
311,-2.14,1645192625.3125,P16,D07,1,1,0
312,-2.33,1645192625.328125,P16,D07,1,1,0
313,-2.46,1645192625.34375,P16,D07,1,1,0
314,-2.54,1645192625.359375,P16,D07,1,1,0
315,-2.56,1645192625.375,P16,D07,1,1,0
316,-2.5,1645192625.390625,P16,D07,1,1,0
317,-2.33,1645192625.40625,P16,D07,1,1,0
318,-1.99,1645192625.421875,P16,D07,1,1,0
319,-1.47,1645192625.4375,P16,D07,1,1,0
320,-0.81,1645192625.453125,P16,D07,1,1,0
321,-0.08,1645192625.46875,P16,D07,1,1,0
322,0.64,1645192625.484375,P16,D07,1,1,0
323,1.26,1645192625.5,P16,D07,1,1,0
324,1.76,1645192625.515625,P16,D07,1,1,0
325,2.11,1645192625.53125,P16,D07,1,1,0
326,2.32,1645192625.546875,P16,D07,1,1,0
327,2.4,1645192625.5625,P16,D07,1,1,0
328,2.38,1645192625.578125,P16,D07,1,1,0
329,2.32,1645192625.59375,P16,D07,1,1,0
330,2.26,1645192625.609375,P16,D07,1,1,0
331,2.23,1645192625.625,P16,D07,1,1,0
332,2.27,1645192625.640625,P16,D07,1,1,0
333,2.39,1645192625.65625,P16,D07,1,1,0
334,2.64,1645192625.671875,P16,D07,1,1,0
335,3.04,1645192625.6875,P16,D07,1,1,0
336,3.6,1645192625.703125,P16,D07,1,1,0
337,4.25,1645192625.71875,P16,D07,1,1,0
338,4.85,1645192625.734375,P16,D07,1,1,0
339,5.28,1645192625.75,P16,D07,1,1,0
340,5.45,1645192625.765625,P16,D07,1,1,0
341,5.4,1645192625.78125,P16,D07,1,1,0
342,5.23,1645192625.796875,P16,D07,1,1,0
343,5.06,1645192625.8125,P16,D07,1,1,0
344,4.95,1645192625.828125,P16,D07,1,1,0
345,4.9,1645192625.84375,P16,D07,1,1,0
346,4.84,1645192625.859375,P16,D07,1,1,0
347,4.69,1645192625.875,P16,D07,1,1,0
348,4.38,1645192625.890625,P16,D07,1,1,0
349,3.89,1645192625.90625,P16,D07,1,1,0
350,3.24,1645192625.921875,P16,D07,1,1,0
351,2.46,1645192625.9375,P16,D07,1,1,0
352,1.64,1645192625.953125,P16,D07,1,1,0
353,0.88,1645192625.96875,P16,D07,1,1,0
354,0.3,1645192625.984375,P16,D07,1,1,0
355,-0.06,1645192626.0,P16,D07,1,1,0
356,-0.21,1645192626.015625,P16,D07,1,1,0
357,-0.26,1645192626.03125,P16,D07,1,1,0
358,-0.32,1645192626.046875,P16,D07,1,1,0
359,-0.45,1645192626.0625,P16,D07,1,1,0
360,-0.6,1645192626.078125,P16,D07,1,1,0
361,-0.7,1645192626.09375,P16,D07,1,1,0
362,-0.68,1645192626.109375,P16,D07,1,1,0
363,-0.62,1645192626.125,P16,D07,1,1,0
364,-0.66,1645192626.140625,P16,D07,1,1,0
365,-0.93,1645192626.15625,P16,D07,1,1,0
366,-1.46,1645192626.171875,P16,D07,1,1,0
367,-2.09,1645192626.1875,P16,D07,1,1,0
368,-2.59,1645192626.203125,P16,D07,1,1,0
369,-2.77,1645192626.21875,P16,D07,1,1,0
370,-2.61,1645192626.234375,P16,D07,1,1,0
371,-2.28,1645192626.25,P16,D07,1,1,0
372,-2.0,1645192626.265625,P16,D07,1,1,0
373,-1.9,1645192626.28125,P16,D07,1,1,0
374,-1.92,1645192626.296875,P16,D07,1,1,0
375,-1.87,1645192626.3125,P16,D07,1,1,0
376,-1.57,1645192626.328125,P16,D07,1,1,0
377,-0.98,1645192626.34375,P16,D07,1,1,0
378,-0.25,1645192626.359375,P16,D07,1,1,0
379,0.35,1645192626.375,P16,D07,1,1,0
380,0.62,1645192626.390625,P16,D07,1,1,0
381,0.5,1645192626.40625,P16,D07,1,1,0
382,0.08,1645192626.421875,P16,D07,1,1,0
383,-0.44,1645192626.4375,P16,D07,1,1,0
384,-0.9,1645192626.453125,P16,D07,1,1,0
385,-1.2,1645192626.46875,P16,D07,1,1,0
386,-1.3,1645192626.484375,P16,D07,1,1,0
387,-1.23,1645192626.5,P16,D07,1,1,0
388,-1.01,1645192626.515625,P16,D07,1,1,0
389,-0.72,1645192626.53125,P16,D07,1,1,0
390,-0.44,1645192626.546875,P16,D07,1,1,0
391,-0.28,1645192626.5625,P16,D07,1,1,0
392,-0.28,1645192626.578125,P16,D07,1,1,0
393,-0.47,1645192626.59375,P16,D07,1,1,0
394,-0.78,1645192626.609375,P16,D07,1,1,0
395,-1.14,1645192626.625,P16,D07,1,1,0
396,-1.46,1645192626.640625,P16,D07,1,1,0
397,-1.69,1645192626.65625,P16,D07,1,1,0
398,-1.81,1645192626.671875,P16,D07,1,1,0
399,-1.79,1645192626.6875,P16,D07,1,1,0
400,-1.63,1645192626.703125,P16,D07,1,1,0
401,-1.35,1645192626.71875,P16,D07,1,1,0
402,-1.02,1645192626.734375,P16,D07,1,1,0
403,-0.73,1645192626.75,P16,D07,1,1,0
404,-0.55,1645192626.765625,P16,D07,1,1,0
405,-0.53,1645192626.78125,P16,D07,1,1,0
406,-0.66,1645192626.796875,P16,D07,1,1,0
407,-0.88,1645192626.8125,P16,D07,1,1,0
408,-1.12,1645192626.828125,P16,D07,1,1,0
409,-1.33,1645192626.84375,P16,D07,1,1,0
410,-1.46,1645192626.859375,P16,D07,1,1,0
411,-1.49,1645192626.875,P16,D07,1,1,0
412,-1.43,1645192626.890625,P16,D07,1,1,0
413,-1.33,1645192626.90625,P16,D07,1,1,0
414,-1.25,1645192626.921875,P16,D07,1,1,0
415,-1.21,1645192626.9375,P16,D07,1,1,0
416,-1.22,1645192626.953125,P16,D07,1,1,0
417,-1.18,1645192626.96875,P16,D07,1,1,0
418,-1.03,1645192626.984375,P16,D07,1,1,0
419,-0.75,1645192627.0,P16,D07,1,1,0
420,-0.4,1645192627.015625,P16,D07,1,1,0
421,-0.09,1645192627.03125,P16,D07,1,1,0
422,0.1,1645192627.046875,P16,D07,1,1,0
423,0.16,1645192627.0625,P16,D07,1,1,0
424,0.21,1645192627.078125,P16,D07,1,1,0
425,0.35,1645192627.09375,P16,D07,1,1,0
426,0.64,1645192627.109375,P16,D07,1,1,0
427,0.99,1645192627.125,P16,D07,1,1,0
428,1.27,1645192627.140625,P16,D07,1,1,0
429,1.36,1645192627.15625,P16,D07,1,1,0
430,1.24,1645192627.171875,P16,D07,1,1,0
431,1.03,1645192627.1875,P16,D07,1,1,0
432,0.89,1645192627.203125,P16,D07,1,1,0
433,0.89,1645192627.21875,P16,D07,1,1,0
434,1.0,1645192627.234375,P16,D07,1,1,0
435,1.07,1645192627.25,P16,D07,1,1,0
436,0.93,1645192627.265625,P16,D07,1,1,0
437,0.55,1645192627.28125,P16,D07,1,1,0
438,-0.01,1645192627.296875,P16,D07,1,1,0
439,-0.56,1645192627.3125,P16,D07,1,1,0
440,-0.94,1645192627.328125,P16,D07,1,1,0
441,-1.09,1645192627.34375,P16,D07,1,1,0
442,-1.04,1645192627.359375,P16,D07,1,1,0
443,-0.88,1645192627.375,P16,D07,1,1,0
444,-0.69,1645192627.390625,P16,D07,1,1,0
445,-0.51,1645192627.40625,P16,D07,1,1,0
446,-0.36,1645192627.421875,P16,D07,1,1,0
447,-0.23,1645192627.4375,P16,D07,1,1,0
448,-0.15,1645192627.453125,P16,D07,1,1,0
449,-0.14,1645192627.46875,P16,D07,1,1,0
450,-0.23,1645192627.484375,P16,D07,1,1,0
451,-0.37,1645192627.5,P16,D07,1,1,0
452,-0.51,1645192627.515625,P16,D07,1,1,0
453,-0.58,1645192627.53125,P16,D07,1,1,0
454,-0.51,1645192627.546875,P16,D07,1,1,0
455,-0.34,1645192627.5625,P16,D07,1,1,0
456,-0.12,1645192627.578125,P16,D07,1,1,0
457,0.06,1645192627.59375,P16,D07,1,1,0
458,0.12,1645192627.609375,P16,D07,1,1,0
459,-0.0,1645192627.625,P16,D07,1,1,0
460,-0.29,1645192627.640625,P16,D07,1,1,0
461,-0.68,1645192627.65625,P16,D07,1,1,0
462,-1.07,1645192627.671875,P16,D07,1,1,0
463,-1.36,1645192627.6875,P16,D07,1,1,0
464,-1.54,1645192627.703125,P16,D07,1,1,0
465,-1.62,1645192627.71875,P16,D07,1,1,0
466,-1.71,1645192627.734375,P16,D07,1,1,0
467,-1.85,1645192627.75,P16,D07,1,1,0
468,-2.07,1645192627.765625,P16,D07,1,1,0
469,-2.28,1645192627.78125,P16,D07,1,1,0
470,-2.41,1645192627.796875,P16,D07,1,1,0
471,-2.4,1645192627.8125,P16,D07,1,1,0
472,-2.32,1645192627.828125,P16,D07,1,1,0
473,-2.25,1645192627.84375,P16,D07,1,1,0
474,-2.31,1645192627.859375,P16,D07,1,1,0
475,-2.56,1645192627.875,P16,D07,1,1,0
476,-2.94,1645192627.890625,P16,D07,1,1,0
477,-3.4,1645192627.90625,P16,D07,1,1,0
478,-3.87,1645192627.921875,P16,D07,1,1,0
479,-4.33,1645192627.9375,P16,D07,1,1,0
480,-4.82,1645192627.953125,P16,D07,1,1,0
481,-5.33,1645192627.96875,P16,D07,1,1,0
482,-5.83,1645192627.984375,P16,D07,1,1,0
483,-6.23,1645192628.0,P16,D07,1,1,0
484,-6.46,1645192628.015625,P16,D07,1,1,0
485,-6.49,1645192628.03125,P16,D07,1,1,0
486,-6.36,1645192628.046875,P16,D07,1,1,0
487,-6.14,1645192628.0625,P16,D07,1,1,0
488,-5.85,1645192628.078125,P16,D07,1,1,0
489,-5.46,1645192628.09375,P16,D07,1,1,0
490,-4.85,1645192628.109375,P16,D07,1,1,0
491,-3.9,1645192628.125,P16,D07,1,1,0
492,-2.53,1645192628.140625,P16,D07,1,1,0
493,-0.75,1645192628.15625,P16,D07,1,1,0
494,1.35,1645192628.171875,P16,D07,1,1,0
495,3.64,1645192628.1875,P16,D07,1,1,0
496,6.0,1645192628.203125,P16,D07,1,1,0
497,8.31,1645192628.21875,P16,D07,1,1,0
498,10.43,1645192628.234375,P16,D07,1,1,0
499,12.21,1645192628.25,P16,D07,1,1,0
500,13.53,1645192628.265625,P16,D07,1,1,0
501,14.27,1645192628.28125,P16,D07,1,1,0
502,14.44,1645192628.296875,P16,D07,1,1,0
503,14.16,1645192628.3125,P16,D07,1,1,0
504,13.59,1645192628.328125,P16,D07,1,1,0
505,12.91,1645192628.34375,P16,D07,1,1,0
506,12.22,1645192628.359375,P16,D07,1,1,0
507,11.52,1645192628.375,P16,D07,1,1,0
508,10.78,1645192628.390625,P16,D07,1,1,0
509,9.98,1645192628.40625,P16,D07,1,1,0
510,9.09,1645192628.421875,P16,D07,1,1,0
511,8.15,1645192628.4375,P16,D07,1,1,0
512,7.16,1645192628.453125,P16,D07,1,1,0
513,6.07,1645192628.46875,P16,D07,1,1,0
514,4.82,1645192628.484375,P16,D07,1,1,0
515,3.39,1645192628.5,P16,D07,1,1,0
516,1.82,1645192628.515625,P16,D07,1,1,0
517,0.23,1645192628.53125,P16,D07,1,1,0
518,-1.22,1645192628.546875,P16,D07,1,1,0
519,-2.38,1645192628.5625,P16,D07,1,1,0
520,-3.18,1645192628.578125,P16,D07,1,1,0
521,-3.62,1645192628.59375,P16,D07,1,1,0
522,-3.75,1645192628.609375,P16,D07,1,1,0
523,-3.68,1645192628.625,P16,D07,1,1,0
524,-3.5,1645192628.640625,P16,D07,1,1,0
525,-3.29,1645192628.65625,P16,D07,1,1,0
526,-3.13,1645192628.671875,P16,D07,1,1,0
527,-3.07,1645192628.6875,P16,D07,1,1,0
528,-3.09,1645192628.703125,P16,D07,1,1,0
529,-3.17,1645192628.71875,P16,D07,1,1,0
530,-3.24,1645192628.734375,P16,D07,1,1,0
531,-3.26,1645192628.75,P16,D07,1,1,0
532,-3.22,1645192628.765625,P16,D07,1,1,0
533,-3.14,1645192628.78125,P16,D07,1,1,0
534,-3.06,1645192628.796875,P16,D07,1,1,0
535,-2.97,1645192628.8125,P16,D07,1,1,0
536,-2.89,1645192628.828125,P16,D07,1,1,0
537,-2.78,1645192628.84375,P16,D07,1,1,0
538,-2.64,1645192628.859375,P16,D07,1,1,0
539,-2.46,1645192628.875,P16,D07,1,1,0
540,-2.26,1645192628.890625,P16,D07,1,1,0
541,-2.09,1645192628.90625,P16,D07,1,1,0
542,-1.95,1645192628.921875,P16,D07,1,1,0
543,-1.85,1645192628.9375,P16,D07,1,1,0
544,-1.74,1645192628.953125,P16,D07,1,1,0
545,-1.55,1645192628.96875,P16,D07,1,1,0
546,-1.25,1645192628.984375,P16,D07,1,1,0
547,-0.86,1645192629.0,P16,D07,1,1,0
548,-0.46,1645192629.015625,P16,D07,1,1,0
549,-0.16,1645192629.03125,P16,D07,1,1,0
550,-0.05,1645192629.046875,P16,D07,1,1,0
551,-0.11,1645192629.0625,P16,D07,1,1,0
552,-0.21,1645192629.078125,P16,D07,1,1,0
553,-0.19,1645192629.09375,P16,D07,1,1,0
554,0.07,1645192629.109375,P16,D07,1,1,0
555,0.55,1645192629.125,P16,D07,1,1,0
556,1.12,1645192629.140625,P16,D07,1,1,0
557,1.57,1645192629.15625,P16,D07,1,1,0
558,1.77,1645192629.171875,P16,D07,1,1,0
559,1.71,1645192629.1875,P16,D07,1,1,0
560,1.52,1645192629.203125,P16,D07,1,1,0
561,1.38,1645192629.21875,P16,D07,1,1,0
562,1.41,1645192629.234375,P16,D07,1,1,0
563,1.61,1645192629.25,P16,D07,1,1,0
564,1.89,1645192629.265625,P16,D07,1,1,0
565,2.11,1645192629.28125,P16,D07,1,1,0
566,2.21,1645192629.296875,P16,D07,1,1,0
567,2.16,1645192629.3125,P16,D07,1,1,0
568,2.0,1645192629.328125,P16,D07,1,1,0
569,1.73,1645192629.34375,P16,D07,1,1,0
570,1.35,1645192629.359375,P16,D07,1,1,0
571,0.87,1645192629.375,P16,D07,1,1,0
572,0.36,1645192629.390625,P16,D07,1,1,0
573,-0.09,1645192629.40625,P16,D07,1,1,0
574,-0.38,1645192629.421875,P16,D07,1,1,0
575,-0.44,1645192629.4375,P16,D07,1,1,0
576,-0.34,1645192629.453125,P16,D07,1,1,0
577,-0.16,1645192629.46875,P16,D07,1,1,0
578,-0.04,1645192629.484375,P16,D07,1,1,0
579,-0.07,1645192629.5,P16,D07,1,1,0
580,-0.27,1645192629.515625,P16,D07,1,1,0
581,-0.64,1645192629.53125,P16,D07,1,1,0
582,-1.09,1645192629.546875,P16,D07,1,1,0
583,-1.56,1645192629.5625,P16,D07,1,1,0
584,-1.95,1645192629.578125,P16,D07,1,1,0
585,-2.2,1645192629.59375,P16,D07,1,1,0
586,-2.27,1645192629.609375,P16,D07,1,1,0
587,-2.15,1645192629.625,P16,D07,1,1,0
588,-1.91,1645192629.640625,P16,D07,1,1,0
589,-1.67,1645192629.65625,P16,D07,1,1,0
590,-1.54,1645192629.671875,P16,D07,1,1,0
591,-1.55,1645192629.6875,P16,D07,1,1,0
592,-1.7,1645192629.703125,P16,D07,1,1,0
593,-1.88,1645192629.71875,P16,D07,1,1,0
594,-2.0,1645192629.734375,P16,D07,1,1,0
595,-2.0,1645192629.75,P16,D07,1,1,0
596,-1.9,1645192629.765625,P16,D07,1,1,0
597,-1.76,1645192629.78125,P16,D07,1,1,0
598,-1.66,1645192629.796875,P16,D07,1,1,0
599,-1.6,1645192629.8125,P16,D07,1,1,0
600,-1.55,1645192629.828125,P16,D07,1,1,0
601,-1.44,1645192629.84375,P16,D07,1,1,0
602,-1.22,1645192629.859375,P16,D07,1,1,0
603,-0.88,1645192629.875,P16,D07,1,1,0
604,-0.52,1645192629.890625,P16,D07,1,1,0
605,-0.25,1645192629.90625,P16,D07,1,1,0
606,-0.14,1645192629.921875,P16,D07,1,1,0
607,-0.18,1645192629.9375,P16,D07,1,1,0
608,-0.29,1645192629.953125,P16,D07,1,1,0
609,-0.37,1645192629.96875,P16,D07,1,1,0
610,-0.34,1645192629.984375,P16,D07,1,1,0
611,-0.21,1645192630.0,P16,D07,1,1,0
612,-0.04,1645192630.015625,P16,D07,1,1,0
613,0.08,1645192630.03125,P16,D07,1,1,0
614,0.11,1645192630.046875,P16,D07,1,1,0
615,0.02,1645192630.0625,P16,D07,1,1,0
616,-0.17,1645192630.078125,P16,D07,1,1,0
617,-0.4,1645192630.09375,P16,D07,1,1,0
618,-0.62,1645192630.109375,P16,D07,1,1,0
619,-0.81,1645192630.125,P16,D07,1,1,0
620,-0.91,1645192630.140625,P16,D07,1,1,0
621,-0.92,1645192630.15625,P16,D07,1,1,0
622,-0.85,1645192630.171875,P16,D07,1,1,0
623,-0.69,1645192630.1875,P16,D07,1,1,0
624,-0.47,1645192630.203125,P16,D07,1,1,0
625,-0.2,1645192630.21875,P16,D07,1,1,0
626,0.11,1645192630.234375,P16,D07,1,1,0
627,0.42,1645192630.25,P16,D07,1,1,0
628,0.72,1645192630.265625,P16,D07,1,1,0
629,0.95,1645192630.28125,P16,D07,1,1,0
630,1.08,1645192630.296875,P16,D07,1,1,0
631,1.08,1645192630.3125,P16,D07,1,1,0
632,0.97,1645192630.328125,P16,D07,1,1,0
633,0.82,1645192630.34375,P16,D07,1,1,0
634,0.69,1645192630.359375,P16,D07,1,1,0
635,0.64,1645192630.375,P16,D07,1,1,0
636,0.65,1645192630.390625,P16,D07,1,1,0
637,0.66,1645192630.40625,P16,D07,1,1,0
638,0.58,1645192630.421875,P16,D07,1,1,0
639,0.4,1645192630.4375,P16,D07,1,1,0
640,0.11,1645192630.453125,P16,D07,1,1,0
641,-0.21,1645192630.46875,P16,D07,1,1,0
642,-0.5,1645192630.484375,P16,D07,1,1,0
643,-0.74,1645192630.5,P16,D07,1,1,0
644,-0.95,1645192630.515625,P16,D07,1,1,0
645,-1.14,1645192630.53125,P16,D07,1,1,0
646,-1.28,1645192630.546875,P16,D07,1,1,0
647,-1.29,1645192630.5625,P16,D07,1,1,0
648,-1.09,1645192630.578125,P16,D07,1,1,0
649,-0.66,1645192630.59375,P16,D07,1,1,0
650,-0.07,1645192630.609375,P16,D07,1,1,0
651,0.49,1645192630.625,P16,D07,1,1,0
652,0.83,1645192630.640625,P16,D07,1,1,0
653,0.85,1645192630.65625,P16,D07,1,1,0
654,0.59,1645192630.671875,P16,D07,1,1,0
655,0.24,1645192630.6875,P16,D07,1,1,0
656,-0.02,1645192630.703125,P16,D07,1,1,0
657,-0.05,1645192630.71875,P16,D07,1,1,0
658,0.14,1645192630.734375,P16,D07,1,1,0
659,0.44,1645192630.75,P16,D07,1,1,0
660,0.7,1645192630.765625,P16,D07,1,1,0
661,0.84,1645192630.78125,P16,D07,1,1,0
662,0.81,1645192630.796875,P16,D07,1,1,0
663,0.64,1645192630.8125,P16,D07,1,1,0
664,0.38,1645192630.828125,P16,D07,1,1,0
665,0.08,1645192630.84375,P16,D07,1,1,0
666,-0.19,1645192630.859375,P16,D07,1,1,0
667,-0.36,1645192630.875,P16,D07,1,1,0
668,-0.38,1645192630.890625,P16,D07,1,1,0
669,-0.21,1645192630.90625,P16,D07,1,1,0
670,0.12,1645192630.921875,P16,D07,1,1,0
671,0.56,1645192630.9375,P16,D07,1,1,0
672,1.01,1645192630.953125,P16,D07,1,1,0
673,1.35,1645192630.96875,P16,D07,1,1,0
674,1.48,1645192630.984375,P16,D07,1,1,0
675,1.38,1645192631.0,P16,D07,1,1,0
676,1.07,1645192631.015625,P16,D07,1,1,0
677,0.66,1645192631.03125,P16,D07,1,1,0
678,0.29,1645192631.046875,P16,D07,1,1,0
679,0.09,1645192631.0625,P16,D07,1,1,0
680,0.12,1645192631.078125,P16,D07,1,1,0
681,0.33,1645192631.09375,P16,D07,1,1,0
682,0.61,1645192631.109375,P16,D07,1,1,0
683,0.83,1645192631.125,P16,D07,1,1,0
684,0.91,1645192631.140625,P16,D07,1,1,0
685,0.87,1645192631.15625,P16,D07,1,1,0
686,0.77,1645192631.171875,P16,D07,1,1,0
687,0.65,1645192631.1875,P16,D07,1,1,0
688,0.54,1645192631.203125,P16,D07,1,1,0
689,0.4,1645192631.21875,P16,D07,1,1,0
690,0.21,1645192631.234375,P16,D07,1,1,0
691,-0.04,1645192631.25,P16,D07,1,1,0
692,-0.28,1645192631.265625,P16,D07,1,1,0
693,-0.45,1645192631.28125,P16,D07,1,1,0
694,-0.52,1645192631.296875,P16,D07,1,1,0
695,-0.51,1645192631.3125,P16,D07,1,1,0
696,-0.48,1645192631.328125,P16,D07,1,1,0
697,-0.5,1645192631.34375,P16,D07,1,1,0
698,-0.58,1645192631.359375,P16,D07,1,1,0
699,-0.66,1645192631.375,P16,D07,1,1,0
700,-0.64,1645192631.390625,P16,D07,1,1,0
701,-0.49,1645192631.40625,P16,D07,1,1,0
702,-0.2,1645192631.421875,P16,D07,1,1,0
703,0.12,1645192631.4375,P16,D07,1,1,0
704,0.34,1645192631.453125,P16,D07,1,1,0
705,0.39,1645192631.46875,P16,D07,1,1,0
706,0.28,1645192631.484375,P16,D07,1,1,0
707,0.07,1645192631.5,P16,D07,1,1,0
708,-0.12,1645192631.515625,P16,D07,1,1,0
709,-0.24,1645192631.53125,P16,D07,1,1,0
710,-0.27,1645192631.546875,P16,D07,1,1,0
711,-0.27,1645192631.5625,P16,D07,1,1,0
712,-0.25,1645192631.578125,P16,D07,1,1,0
713,-0.19,1645192631.59375,P16,D07,1,1,0
714,-0.07,1645192631.609375,P16,D07,1,1,0
715,0.09,1645192631.625,P16,D07,1,1,0
716,0.22,1645192631.640625,P16,D07,1,1,0
717,0.22,1645192631.65625,P16,D07,1,1,0
718,0.06,1645192631.671875,P16,D07,1,1,0
719,-0.23,1645192631.6875,P16,D07,1,1,0
720,-0.54,1645192631.703125,P16,D07,1,1,0
721,-0.77,1645192631.71875,P16,D07,1,1,0
722,-0.86,1645192631.734375,P16,D07,1,1,0
723,-0.85,1645192631.75,P16,D07,1,1,0
724,-0.84,1645192631.765625,P16,D07,1,1,0
725,-0.88,1645192631.78125,P16,D07,1,1,0
726,-0.97,1645192631.796875,P16,D07,1,1,0
727,-1.08,1645192631.8125,P16,D07,1,1,0
728,-1.15,1645192631.828125,P16,D07,1,1,0
729,-1.19,1645192631.84375,P16,D07,1,1,0
730,-1.2,1645192631.859375,P16,D07,1,1,0
731,-1.22,1645192631.875,P16,D07,1,1,0
732,-1.21,1645192631.890625,P16,D07,1,1,0
733,-1.12,1645192631.90625,P16,D07,1,1,0
734,-0.9,1645192631.921875,P16,D07,1,1,0
735,-0.53,1645192631.9375,P16,D07,1,1,0
736,-0.06,1645192631.953125,P16,D07,1,1,0
737,0.41,1645192631.96875,P16,D07,1,1,0
738,0.79,1645192631.984375,P16,D07,1,1,0
739,1.0,1645192632.0,P16,D07,1,1,0
740,1.03,1645192632.015625,P16,D07,1,1,0
741,0.9,1645192632.03125,P16,D07,1,1,0
742,0.68,1645192632.046875,P16,D07,1,1,0
743,0.46,1645192632.0625,P16,D07,1,1,0
744,0.28,1645192632.078125,P16,D07,1,1,0
745,0.18,1645192632.09375,P16,D07,1,1,0
746,0.15,1645192632.109375,P16,D07,1,1,0
747,0.12,1645192632.125,P16,D07,1,1,0
748,0.04,1645192632.140625,P16,D07,1,1,0
749,-0.08,1645192632.15625,P16,D07,1,1,0
750,-0.23,1645192632.171875,P16,D07,1,1,0
751,-0.37,1645192632.1875,P16,D07,1,1,0
752,-0.49,1645192632.203125,P16,D07,1,1,0
753,-0.6,1645192632.21875,P16,D07,1,1,0
754,-0.75,1645192632.234375,P16,D07,1,1,0
755,-0.95,1645192632.25,P16,D07,1,1,0
756,-1.14,1645192632.265625,P16,D07,1,1,0
757,-1.21,1645192632.28125,P16,D07,1,1,0
758,-1.09,1645192632.296875,P16,D07,1,1,0
759,-0.74,1645192632.3125,P16,D07,1,1,0
760,-0.24,1645192632.328125,P16,D07,1,1,0
761,0.27,1645192632.34375,P16,D07,1,1,0
762,0.67,1645192632.359375,P16,D07,1,1,0
763,0.88,1645192632.375,P16,D07,1,1,0
764,0.93,1645192632.390625,P16,D07,1,1,0
765,0.88,1645192632.40625,P16,D07,1,1,0
766,0.81,1645192632.421875,P16,D07,1,1,0
767,0.73,1645192632.4375,P16,D07,1,1,0
768,0.63,1645192632.453125,P16,D07,1,1,0
769,0.48,1645192632.46875,P16,D07,1,1,0
770,0.27,1645192632.484375,P16,D07,1,1,0
771,0.04,1645192632.5,P16,D07,1,1,0
772,-0.15,1645192632.515625,P16,D07,1,1,0
773,-0.25,1645192632.53125,P16,D07,1,1,0
774,-0.24,1645192632.546875,P16,D07,1,1,0
775,-0.14,1645192632.5625,P16,D07,1,1,0
776,0.01,1645192632.578125,P16,D07,1,1,0
777,0.13,1645192632.59375,P16,D07,1,1,0
778,0.19,1645192632.609375,P16,D07,1,1,0
779,0.2,1645192632.625,P16,D07,1,1,0
780,0.16,1645192632.640625,P16,D07,1,1,0
781,0.04,1645192632.65625,P16,D07,1,1,0
782,-0.18,1645192632.671875,P16,D07,1,1,0
783,-0.51,1645192632.6875,P16,D07,1,1,0
784,-0.94,1645192632.703125,P16,D07,1,1,0
785,-1.36,1645192632.71875,P16,D07,1,1,0
786,-1.63,1645192632.734375,P16,D07,1,1,0
787,-1.64,1645192632.75,P16,D07,1,1,0
788,-1.35,1645192632.765625,P16,D07,1,1,0
789,-0.85,1645192632.78125,P16,D07,1,1,0
790,-0.26,1645192632.796875,P16,D07,1,1,0
791,0.27,1645192632.8125,P16,D07,1,1,0
792,0.69,1645192632.828125,P16,D07,1,1,0
793,1.02,1645192632.84375,P16,D07,1,1,0
794,1.28,1645192632.859375,P16,D07,1,1,0
795,1.5,1645192632.875,P16,D07,1,1,0
796,1.65,1645192632.890625,P16,D07,1,1,0
797,1.72,1645192632.90625,P16,D07,1,1,0
798,1.69,1645192632.921875,P16,D07,1,1,0
799,1.59,1645192632.9375,P16,D07,1,1,0
800,1.48,1645192632.953125,P16,D07,1,1,0
801,1.41,1645192632.96875,P16,D07,1,1,0
802,1.38,1645192632.984375,P16,D07,1,1,0
803,1.38,1645192633.0,P16,D07,1,1,0
804,1.36,1645192633.015625,P16,D07,1,1,0
805,1.28,1645192633.03125,P16,D07,1,1,0
806,1.1,1645192633.046875,P16,D07,1,1,0
807,0.83,1645192633.0625,P16,D07,1,1,0
808,0.47,1645192633.078125,P16,D07,1,1,0
809,0.07,1645192633.09375,P16,D07,1,1,0
810,-0.33,1645192633.109375,P16,D07,1,1,0
811,-0.64,1645192633.125,P16,D07,1,1,0
812,-0.81,1645192633.140625,P16,D07,1,1,0
813,-0.8,1645192633.15625,P16,D07,1,1,0
814,-0.64,1645192633.171875,P16,D07,1,1,0
815,-0.36,1645192633.1875,P16,D07,1,1,0
816,-0.02,1645192633.203125,P16,D07,1,1,0
817,0.35,1645192633.21875,P16,D07,1,1,0
818,0.68,1645192633.234375,P16,D07,1,1,0
819,0.95,1645192633.25,P16,D07,1,1,0
820,1.13,1645192633.265625,P16,D07,1,1,0
821,1.18,1645192633.28125,P16,D07,1,1,0
822,1.08,1645192633.296875,P16,D07,1,1,0
823,0.87,1645192633.3125,P16,D07,1,1,0
824,0.58,1645192633.328125,P16,D07,1,1,0
825,0.29,1645192633.34375,P16,D07,1,1,0
826,0.07,1645192633.359375,P16,D07,1,1,0
827,-0.04,1645192633.375,P16,D07,1,1,0
828,-0.04,1645192633.390625,P16,D07,1,1,0
829,0.02,1645192633.40625,P16,D07,1,1,0
830,0.09,1645192633.421875,P16,D07,1,1,0
831,0.12,1645192633.4375,P16,D07,1,1,0
832,0.07,1645192633.453125,P16,D07,1,1,0
833,-0.03,1645192633.46875,P16,D07,1,1,0
834,-0.16,1645192633.484375,P16,D07,1,1,0
835,-0.24,1645192633.5,P16,D07,1,1,0
836,-0.24,1645192633.515625,P16,D07,1,1,0
837,-0.13,1645192633.53125,P16,D07,1,1,0
838,0.04,1645192633.546875,P16,D07,1,1,0
839,0.21,1645192633.5625,P16,D07,1,1,0
840,0.32,1645192633.578125,P16,D07,1,1,0
841,0.3,1645192633.59375,P16,D07,1,1,0
842,0.16,1645192633.609375,P16,D07,1,1,0
843,-0.09,1645192633.625,P16,D07,1,1,0
844,-0.4,1645192633.640625,P16,D07,1,1,0
845,-0.7,1645192633.65625,P16,D07,1,1,0
846,-0.94,1645192633.671875,P16,D07,1,1,0
847,-1.07,1645192633.6875,P16,D07,1,1,0
848,-1.05,1645192633.703125,P16,D07,1,1,0
849,-0.89,1645192633.71875,P16,D07,1,1,0
850,-0.66,1645192633.734375,P16,D07,1,1,0
851,-0.43,1645192633.75,P16,D07,1,1,0
852,-0.31,1645192633.765625,P16,D07,1,1,0
853,-0.32,1645192633.78125,P16,D07,1,1,0
854,-0.45,1645192633.796875,P16,D07,1,1,0
855,-0.66,1645192633.8125,P16,D07,1,1,0
856,-0.86,1645192633.828125,P16,D07,1,1,0
857,-0.99,1645192633.84375,P16,D07,1,1,0
858,-1.0,1645192633.859375,P16,D07,1,1,0
859,-0.88,1645192633.875,P16,D07,1,1,0
860,-0.66,1645192633.890625,P16,D07,1,1,0
861,-0.4,1645192633.90625,P16,D07,1,1,0
862,-0.15,1645192633.921875,P16,D07,1,1,0
863,0.0,1645192633.9375,P16,D07,1,1,0
864,0.03,1645192633.953125,P16,D07,1,1,0
865,-0.06,1645192633.96875,P16,D07,1,1,0
866,-0.19,1645192633.984375,P16,D07,1,1,0
867,-0.3,1645192634.0,P16,D07,1,1,0
868,-0.31,1645192634.015625,P16,D07,1,1,0
869,-0.24,1645192634.03125,P16,D07,1,1,0
870,-0.12,1645192634.046875,P16,D07,1,1,0
871,0.02,1645192634.0625,P16,D07,1,1,0
872,0.15,1645192634.078125,P16,D07,1,1,0
873,0.26,1645192634.09375,P16,D07,1,1,0
874,0.36,1645192634.109375,P16,D07,1,1,0
875,0.44,1645192634.125,P16,D07,1,1,0
876,0.49,1645192634.140625,P16,D07,1,1,0
877,0.51,1645192634.15625,P16,D07,1,1,0
878,0.49,1645192634.171875,P16,D07,1,1,0
879,0.44,1645192634.1875,P16,D07,1,1,0
880,0.36,1645192634.203125,P16,D07,1,1,0
881,0.24,1645192634.21875,P16,D07,1,1,0
882,0.11,1645192634.234375,P16,D07,1,1,0
883,-0.02,1645192634.25,P16,D07,1,1,0
884,-0.12,1645192634.265625,P16,D07,1,1,0
885,-0.2,1645192634.28125,P16,D07,1,1,0
886,-0.27,1645192634.296875,P16,D07,1,1,0
887,-0.38,1645192634.3125,P16,D07,1,1,0
888,-0.52,1645192634.328125,P16,D07,1,1,0
889,-0.66,1645192634.34375,P16,D07,1,1,0
890,-0.73,1645192634.359375,P16,D07,1,1,0
891,-0.69,1645192634.375,P16,D07,1,1,0
892,-0.57,1645192634.390625,P16,D07,1,1,0
893,-0.47,1645192634.40625,P16,D07,1,1,0
894,-0.47,1645192634.421875,P16,D07,1,1,0
895,-0.67,1645192634.4375,P16,D07,1,1,0
896,-1.01,1645192634.453125,P16,D07,1,1,0
897,-1.34,1645192634.46875,P16,D07,1,1,0
898,-1.51,1645192634.484375,P16,D07,1,1,0
899,-1.43,1645192634.5,P16,D07,1,1,0
900,-1.13,1645192634.515625,P16,D07,1,1,0
901,-0.78,1645192634.53125,P16,D07,1,1,0
902,-0.57,1645192634.546875,P16,D07,1,1,0
903,-0.6,1645192634.5625,P16,D07,1,1,0
904,-0.85,1645192634.578125,P16,D07,1,1,0
905,-1.17,1645192634.59375,P16,D07,1,1,0
906,-1.33,1645192634.609375,P16,D07,1,1,0
907,-1.23,1645192634.625,P16,D07,1,1,0
908,-0.87,1645192634.640625,P16,D07,1,1,0
909,-0.4,1645192634.65625,P16,D07,1,1,0
910,-0.02,1645192634.671875,P16,D07,1,1,0
911,0.15,1645192634.6875,P16,D07,1,1,0
912,0.11,1645192634.703125,P16,D07,1,1,0
913,-0.02,1645192634.71875,P16,D07,1,1,0
914,-0.12,1645192634.734375,P16,D07,1,1,0
915,-0.11,1645192634.75,P16,D07,1,1,0
916,-0.04,1645192634.765625,P16,D07,1,1,0
917,0.04,1645192634.78125,P16,D07,1,1,0
918,0.08,1645192634.796875,P16,D07,1,1,0
919,0.06,1645192634.8125,P16,D07,1,1,0
920,0.06,1645192634.828125,P16,D07,1,1,0
921,0.11,1645192634.84375,P16,D07,1,1,0
922,0.23,1645192634.859375,P16,D07,1,1,0
923,0.37,1645192634.875,P16,D07,1,1,0
924,0.5,1645192634.890625,P16,D07,1,1,0
925,0.59,1645192634.90625,P16,D07,1,1,0
926,0.66,1645192634.921875,P16,D07,1,1,0
927,0.73,1645192634.9375,P16,D07,1,1,0
928,0.83,1645192634.953125,P16,D07,1,1,0
929,0.9,1645192634.96875,P16,D07,1,1,0
930,0.9,1645192634.984375,P16,D07,1,1,0
931,0.82,1645192635.0,P16,D07,1,1,0
932,0.65,1645192635.015625,P16,D07,1,1,0
933,0.44,1645192635.03125,P16,D07,1,1,0
934,0.21,1645192635.046875,P16,D07,1,1,0
935,-0.05,1645192635.0625,P16,D07,1,1,0
936,-0.31,1645192635.078125,P16,D07,1,1,0
937,-0.53,1645192635.09375,P16,D07,1,1,0
938,-0.62,1645192635.109375,P16,D07,1,1,0
939,-0.47,1645192635.125,P16,D07,1,1,0
940,-0.05,1645192635.140625,P16,D07,1,1,0
941,0.59,1645192635.15625,P16,D07,1,1,0
942,1.27,1645192635.171875,P16,D07,1,1,0
943,1.8,1645192635.1875,P16,D07,1,1,0
944,2.07,1645192635.203125,P16,D07,1,1,0
945,2.06,1645192635.21875,P16,D07,1,1,0
946,1.85,1645192635.234375,P16,D07,1,1,0
947,1.6,1645192635.25,P16,D07,1,1,0
948,1.39,1645192635.265625,P16,D07,1,1,0
949,1.25,1645192635.28125,P16,D07,1,1,0
950,1.12,1645192635.296875,P16,D07,1,1,0
951,0.97,1645192635.3125,P16,D07,1,1,0
952,0.8,1645192635.328125,P16,D07,1,1,0
953,0.66,1645192635.34375,P16,D07,1,1,0
954,0.61,1645192635.359375,P16,D07,1,1,0
955,0.64,1645192635.375,P16,D07,1,1,0
956,0.7,1645192635.390625,P16,D07,1,1,0
957,0.69,1645192635.40625,P16,D07,1,1,0
958,0.57,1645192635.421875,P16,D07,1,1,0
959,0.31,1645192635.4375,P16,D07,1,1,0
960,-0.0,1645192635.453125,P16,D07,1,1,0
961,-0.3,1645192635.46875,P16,D07,1,1,0
962,-0.51,1645192635.484375,P16,D07,1,1,0
963,-0.58,1645192635.5,P16,D07,1,1,0
964,-0.5,1645192635.515625,P16,D07,1,1,0
965,-0.28,1645192635.53125,P16,D07,1,1,0
966,0.05,1645192635.546875,P16,D07,1,1,0
967,0.41,1645192635.5625,P16,D07,1,1,0
968,0.72,1645192635.578125,P16,D07,1,1,0
969,0.88,1645192635.59375,P16,D07,1,1,0
970,0.88,1645192635.609375,P16,D07,1,1,0
971,0.74,1645192635.625,P16,D07,1,1,0
972,0.56,1645192635.640625,P16,D07,1,1,0
973,0.41,1645192635.65625,P16,D07,1,1,0
974,0.35,1645192635.671875,P16,D07,1,1,0
975,0.36,1645192635.6875,P16,D07,1,1,0
976,0.37,1645192635.703125,P16,D07,1,1,0
977,0.33,1645192635.71875,P16,D07,1,1,0
978,0.25,1645192635.734375,P16,D07,1,1,0
979,0.19,1645192635.75,P16,D07,1,1,0
980,0.22,1645192635.765625,P16,D07,1,1,0
981,0.39,1645192635.78125,P16,D07,1,1,0
982,0.65,1645192635.796875,P16,D07,1,1,0
983,0.91,1645192635.8125,P16,D07,1,1,0
984,1.04,1645192635.828125,P16,D07,1,1,0
985,0.97,1645192635.84375,P16,D07,1,1,0
986,0.7,1645192635.859375,P16,D07,1,1,0
987,0.29,1645192635.875,P16,D07,1,1,0
988,-0.13,1645192635.890625,P16,D07,1,1,0
989,-0.46,1645192635.90625,P16,D07,1,1,0
990,-0.63,1645192635.921875,P16,D07,1,1,0
991,-0.67,1645192635.9375,P16,D07,1,1,0
992,-0.64,1645192635.953125,P16,D07,1,1,0
993,-0.59,1645192635.96875,P16,D07,1,1,0
994,-0.56,1645192635.984375,P16,D07,1,1,0
995,-0.55,1645192636.0,P16,D07,1,1,0
996,-0.52,1645192636.015625,P16,D07,1,1,0
997,-0.48,1645192636.03125,P16,D07,1,1,0
998,-0.46,1645192636.046875,P16,D07,1,1,0
999,-0.49,1645192636.0625,P16,D07,1,1,0
1000,-0.61,1645192636.078125,P16,D07,1,1,0
1001,-0.76,1645192636.09375,P16,D07,1,1,0
1002,-0.87,1645192636.109375,P16,D07,1,1,0
1003,-0.87,1645192636.125,P16,D07,1,1,0
1004,-0.72,1645192636.140625,P16,D07,1,1,0
1005,-0.47,1645192636.15625,P16,D07,1,1,0
1006,-0.23,1645192636.171875,P16,D07,1,1,0
1007,-0.11,1645192636.1875,P16,D07,1,1,0
1008,-0.17,1645192636.203125,P16,D07,1,1,0
1009,-0.41,1645192636.21875,P16,D07,1,1,0
1010,-0.76,1645192636.234375,P16,D07,1,1,0
1011,-1.14,1645192636.25,P16,D07,1,1,0
1012,-1.5,1645192636.265625,P16,D07,1,1,0
1013,-1.81,1645192636.28125,P16,D07,1,1,0
1014,-2.01,1645192636.296875,P16,D07,1,1,0
1015,-2.05,1645192636.3125,P16,D07,1,1,0
1016,-1.86,1645192636.328125,P16,D07,1,1,0
1017,-1.43,1645192636.34375,P16,D07,1,1,0
1018,-0.81,1645192636.359375,P16,D07,1,1,0
1019,-0.14,1645192636.375,P16,D07,1,1,0
1020,0.42,1645192636.390625,P16,D07,1,1,0
1021,0.73,1645192636.40625,P16,D07,1,1,0
1022,0.78,1645192636.421875,P16,D07,1,1,0
1023,0.64,1645192636.4375,P16,D07,1,1,0
1024,0.44,1645192636.453125,P16,D07,1,1,0
1025,0.28,1645192636.46875,P16,D07,1,1,0
1026,0.23,1645192636.484375,P16,D07,1,1,0
1027,0.29,1645192636.5,P16,D07,1,1,0
1028,0.42,1645192636.515625,P16,D07,1,1,0
1029,0.55,1645192636.53125,P16,D07,1,1,0
1030,0.61,1645192636.546875,P16,D07,1,1,0
1031,0.54,1645192636.5625,P16,D07,1,1,0
1032,0.32,1645192636.578125,P16,D07,1,1,0
1033,-0.04,1645192636.59375,P16,D07,1,1,0
1034,-0.47,1645192636.609375,P16,D07,1,1,0
1035,-0.87,1645192636.625,P16,D07,1,1,0
1036,-1.15,1645192636.640625,P16,D07,1,1,0
1037,-1.26,1645192636.65625,P16,D07,1,1,0
1038,-1.17,1645192636.671875,P16,D07,1,1,0
1039,-0.93,1645192636.6875,P16,D07,1,1,0
1040,-0.64,1645192636.703125,P16,D07,1,1,0
1041,-0.37,1645192636.71875,P16,D07,1,1,0
1042,-0.2,1645192636.734375,P16,D07,1,1,0
1043,-0.15,1645192636.75,P16,D07,1,1,0
1044,-0.2,1645192636.765625,P16,D07,1,1,0
1045,-0.3,1645192636.78125,P16,D07,1,1,0
1046,-0.36,1645192636.796875,P16,D07,1,1,0
1047,-0.35,1645192636.8125,P16,D07,1,1,0
1048,-0.25,1645192636.828125,P16,D07,1,1,0
1049,-0.13,1645192636.84375,P16,D07,1,1,0
1050,-0.05,1645192636.859375,P16,D07,1,1,0
1051,-0.09,1645192636.875,P16,D07,1,1,0
1052,-0.27,1645192636.890625,P16,D07,1,1,0
1053,-0.5,1645192636.90625,P16,D07,1,1,0
1054,-0.69,1645192636.921875,P16,D07,1,1,0
1055,-0.73,1645192636.9375,P16,D07,1,1,0
1056,-0.62,1645192636.953125,P16,D07,1,1,0
1057,-0.4,1645192636.96875,P16,D07,1,1,0
1058,-0.22,1645192636.984375,P16,D07,1,1,0
1059,-0.19,1645192637.0,P16,D07,1,1,0
1060,-0.35,1645192637.015625,P16,D07,1,1,0
1061,-0.61,1645192637.03125,P16,D07,1,1,0
1062,-0.83,1645192637.046875,P16,D07,1,1,0
1063,-0.87,1645192637.0625,P16,D07,1,1,0
1064,-0.65,1645192637.078125,P16,D07,1,1,0
1065,-0.24,1645192637.09375,P16,D07,1,1,0
1066,0.21,1645192637.109375,P16,D07,1,1,0
1067,0.57,1645192637.125,P16,D07,1,1,0
1068,0.75,1645192637.140625,P16,D07,1,1,0
1069,0.76,1645192637.15625,P16,D07,1,1,0
1070,0.63,1645192637.171875,P16,D07,1,1,0
1071,0.41,1645192637.1875,P16,D07,1,1,0
1072,0.11,1645192637.203125,P16,D07,1,1,0
1073,-0.22,1645192637.21875,P16,D07,1,1,0
1074,-0.54,1645192637.234375,P16,D07,1,1,0
1075,-0.77,1645192637.25,P16,D07,1,1,0
1076,-0.86,1645192637.265625,P16,D07,1,1,0
1077,-0.78,1645192637.28125,P16,D07,1,1,0
1078,-0.59,1645192637.296875,P16,D07,1,1,0
1079,-0.35,1645192637.3125,P16,D07,1,1,0
1080,-0.09,1645192637.328125,P16,D07,1,1,0
1081,0.16,1645192637.34375,P16,D07,1,1,0
1082,0.42,1645192637.359375,P16,D07,1,1,0
1083,0.72,1645192637.375,P16,D07,1,1,0
1084,1.07,1645192637.390625,P16,D07,1,1,0
1085,1.41,1645192637.40625,P16,D07,1,1,0
1086,1.7,1645192637.421875,P16,D07,1,1,0
1087,1.88,1645192637.4375,P16,D07,1,1,0
1088,1.94,1645192637.453125,P16,D07,1,1,0
1089,1.86,1645192637.46875,P16,D07,1,1,0
1090,1.67,1645192637.484375,P16,D07,1,1,0
1091,1.38,1645192637.5,P16,D07,1,1,0
1092,1.05,1645192637.515625,P16,D07,1,1,0
1093,0.72,1645192637.53125,P16,D07,1,1,0
1094,0.46,1645192637.546875,P16,D07,1,1,0
1095,0.31,1645192637.5625,P16,D07,1,1,0
1096,0.27,1645192637.578125,P16,D07,1,1,0
1097,0.29,1645192637.59375,P16,D07,1,1,0
1098,0.34,1645192637.609375,P16,D07,1,1,0
1099,0.35,1645192637.625,P16,D07,1,1,0
1100,0.3,1645192637.640625,P16,D07,1,1,0
1101,0.17,1645192637.65625,P16,D07,1,1,0
1102,-0.03,1645192637.671875,P16,D07,1,1,0
1103,-0.27,1645192637.6875,P16,D07,1,1,0
1104,-0.49,1645192637.703125,P16,D07,1,1,0
1105,-0.63,1645192637.71875,P16,D07,1,1,0
1106,-0.6,1645192637.734375,P16,D07,1,1,0
1107,-0.37,1645192637.75,P16,D07,1,1,0
1108,0.05,1645192637.765625,P16,D07,1,1,0
1109,0.57,1645192637.78125,P16,D07,1,1,0
1110,1.04,1645192637.796875,P16,D07,1,1,0
1111,1.32,1645192637.8125,P16,D07,1,1,0
1112,1.33,1645192637.828125,P16,D07,1,1,0
1113,1.05,1645192637.84375,P16,D07,1,1,0
1114,0.57,1645192637.859375,P16,D07,1,1,0
1115,0.04,1645192637.875,P16,D07,1,1,0
1116,-0.42,1645192637.890625,P16,D07,1,1,0
1117,-0.69,1645192637.90625,P16,D07,1,1,0
1118,-0.73,1645192637.921875,P16,D07,1,1,0
1119,-0.58,1645192637.9375,P16,D07,1,1,0
1120,-0.36,1645192637.953125,P16,D07,1,1,0
1121,-0.19,1645192637.96875,P16,D07,1,1,0
1122,-0.19,1645192637.984375,P16,D07,1,1,0
1123,-0.4,1645192638.0,P16,D07,1,1,0
1124,-0.77,1645192638.015625,P16,D07,1,1,0
1125,-1.18,1645192638.03125,P16,D07,1,1,0
1126,-1.48,1645192638.046875,P16,D07,1,1,0
1127,-1.55,1645192638.0625,P16,D07,1,1,0
1128,-1.34,1645192638.078125,P16,D07,1,1,0
1129,-0.9,1645192638.09375,P16,D07,1,1,0
1130,-0.34,1645192638.109375,P16,D07,1,1,0
1131,0.18,1645192638.125,P16,D07,1,1,0
1132,0.54,1645192638.140625,P16,D07,1,1,0
1133,0.69,1645192638.15625,P16,D07,1,1,0
1134,0.65,1645192638.171875,P16,D07,1,1,0
1135,0.5,1645192638.1875,P16,D07,1,1,0
1136,0.33,1645192638.203125,P16,D07,1,1,0
1137,0.23,1645192638.21875,P16,D07,1,1,0
1138,0.25,1645192638.234375,P16,D07,1,1,0
1139,0.43,1645192638.25,P16,D07,1,1,0
1140,0.75,1645192638.265625,P16,D07,1,1,0
1141,1.17,1645192638.28125,P16,D07,1,1,0
1142,1.61,1645192638.296875,P16,D07,1,1,0
1143,1.97,1645192638.3125,P16,D07,1,1,0
1144,2.15,1645192638.328125,P16,D07,1,1,0
1145,2.1,1645192638.34375,P16,D07,1,1,0
1146,1.84,1645192638.359375,P16,D07,1,1,0
1147,1.46,1645192638.375,P16,D07,1,1,0
1148,1.14,1645192638.390625,P16,D07,1,1,0
1149,0.98,1645192638.40625,P16,D07,1,1,0
1150,1.02,1645192638.421875,P16,D07,1,1,0
1151,1.21,1645192638.4375,P16,D07,1,1,0
1152,1.38,1645192638.453125,P16,D07,1,1,0
1153,1.4,1645192638.46875,P16,D07,1,1,0
1154,1.19,1645192638.484375,P16,D07,1,1,0
1155,0.78,1645192638.5,P16,D07,1,1,0
1156,0.28,1645192638.515625,P16,D07,1,1,0
1157,-0.18,1645192638.53125,P16,D07,1,1,0
1158,-0.53,1645192638.546875,P16,D07,1,1,0
1159,-0.74,1645192638.5625,P16,D07,1,1,0
1160,-0.83,1645192638.578125,P16,D07,1,1,0
1161,-0.86,1645192638.59375,P16,D07,1,1,0
1162,-0.83,1645192638.609375,P16,D07,1,1,0
1163,-0.74,1645192638.625,P16,D07,1,1,0
1164,-0.62,1645192638.640625,P16,D07,1,1,0
1165,-0.5,1645192638.65625,P16,D07,1,1,0
1166,-0.45,1645192638.671875,P16,D07,1,1,0
1167,-0.53,1645192638.6875,P16,D07,1,1,0
1168,-0.75,1645192638.703125,P16,D07,1,1,0
1169,-1.06,1645192638.71875,P16,D07,1,1,0
1170,-1.35,1645192638.734375,P16,D07,1,1,0
1171,-1.5,1645192638.75,P16,D07,1,1,0
1172,-1.49,1645192638.765625,P16,D07,1,1,0
1173,-1.38,1645192638.78125,P16,D07,1,1,0
1174,-1.28,1645192638.796875,P16,D07,1,1,0
1175,-1.29,1645192638.8125,P16,D07,1,1,0
1176,-1.44,1645192638.828125,P16,D07,1,1,0
1177,-1.66,1645192638.84375,P16,D07,1,1,0
1178,-1.83,1645192638.859375,P16,D07,1,1,0
1179,-1.82,1645192638.875,P16,D07,1,1,0
1180,-1.59,1645192638.890625,P16,D07,1,1,0
1181,-1.21,1645192638.90625,P16,D07,1,1,0
1182,-0.8,1645192638.921875,P16,D07,1,1,0
1183,-0.45,1645192638.9375,P16,D07,1,1,0
1184,-0.22,1645192638.953125,P16,D07,1,1,0
1185,-0.09,1645192638.96875,P16,D07,1,1,0
1186,-0.05,1645192638.984375,P16,D07,1,1,0
1187,-0.09,1645192639.0,P16,D07,1,1,0
1188,-0.25,1645192639.015625,P16,D07,1,1,0
1189,-0.54,1645192639.03125,P16,D07,1,1,0
1190,-0.95,1645192639.046875,P16,D07,1,1,0
1191,-1.35,1645192639.0625,P16,D07,1,1,0
1192,-1.59,1645192639.078125,P16,D07,1,1,0
1193,-1.57,1645192639.09375,P16,D07,1,1,0
1194,-1.29,1645192639.109375,P16,D07,1,1,0
1195,-0.83,1645192639.125,P16,D07,1,1,0
1196,-0.37,1645192639.140625,P16,D07,1,1,0
1197,-0.03,1645192639.15625,P16,D07,1,1,0
1198,0.14,1645192639.171875,P16,D07,1,1,0
1199,0.19,1645192639.1875,P16,D07,1,1,0
1200,0.22,1645192639.203125,P16,D07,1,1,0
1201,0.26,1645192639.21875,P16,D07,1,1,0
1202,0.3,1645192639.234375,P16,D07,1,1,0
1203,0.25,1645192639.25,P16,D07,1,1,0
1204,0.03,1645192639.265625,P16,D07,1,1,0
1205,-0.36,1645192639.28125,P16,D07,1,1,0
1206,-0.83,1645192639.296875,P16,D07,1,1,0
1207,-1.22,1645192639.3125,P16,D07,1,1,0
1208,-1.41,1645192639.328125,P16,D07,1,1,0
1209,-1.38,1645192639.34375,P16,D07,1,1,0
1210,-1.22,1645192639.359375,P16,D07,1,1,0
1211,-1.07,1645192639.375,P16,D07,1,1,0
1212,-1.0,1645192639.390625,P16,D07,1,1,0
1213,-0.98,1645192639.40625,P16,D07,1,1,0
1214,-0.86,1645192639.421875,P16,D07,1,1,0
1215,-0.51,1645192639.4375,P16,D07,1,1,0
1216,0.08,1645192639.453125,P16,D07,1,1,0
1217,0.75,1645192639.46875,P16,D07,1,1,0
1218,1.25,1645192639.484375,P16,D07,1,1,0
1219,1.38,1645192639.5,P16,D07,1,1,0
1220,1.09,1645192639.515625,P16,D07,1,1,0
1221,0.55,1645192639.53125,P16,D07,1,1,0
1222,0.01,1645192639.546875,P16,D07,1,1,0
1223,-0.3,1645192639.5625,P16,D07,1,1,0
1224,-0.32,1645192639.578125,P16,D07,1,1,0
1225,-0.14,1645192639.59375,P16,D07,1,1,0
1226,0.07,1645192639.609375,P16,D07,1,1,0
1227,0.21,1645192639.625,P16,D07,1,1,0
1228,0.25,1645192639.640625,P16,D07,1,1,0
1229,0.28,1645192639.65625,P16,D07,1,1,0
1230,0.38,1645192639.671875,P16,D07,1,1,0
1231,0.56,1645192639.6875,P16,D07,1,1,0
1232,0.77,1645192639.703125,P16,D07,1,1,0
1233,0.94,1645192639.71875,P16,D07,1,1,0
1234,1.03,1645192639.734375,P16,D07,1,1,0
1235,1.09,1645192639.75,P16,D07,1,1,0
1236,1.19,1645192639.765625,P16,D07,1,1,0
1237,1.34,1645192639.78125,P16,D07,1,1,0
1238,1.48,1645192639.796875,P16,D07,1,1,0
1239,1.52,1645192639.8125,P16,D07,1,1,0
1240,1.38,1645192639.828125,P16,D07,1,1,0
1241,1.05,1645192639.84375,P16,D07,1,1,0
1242,0.64,1645192639.859375,P16,D07,1,1,0
1243,0.3,1645192639.875,P16,D07,1,1,0
1244,0.14,1645192639.890625,P16,D07,1,1,0
1245,0.19,1645192639.90625,P16,D07,1,1,0
1246,0.41,1645192639.921875,P16,D07,1,1,0
1247,0.71,1645192639.9375,P16,D07,1,1,0
1248,1.01,1645192639.953125,P16,D07,1,1,0
1249,1.25,1645192639.96875,P16,D07,1,1,0
1250,1.38,1645192639.984375,P16,D07,1,1,0
1251,1.39,1645192640.0,P16,D07,1,1,0
1252,1.29,1645192640.015625,P16,D07,1,1,0
1253,1.11,1645192640.03125,P16,D07,1,1,0
1254,0.94,1645192640.046875,P16,D07,1,1,0
1255,0.85,1645192640.0625,P16,D07,1,1,0
1256,0.89,1645192640.078125,P16,D07,1,1,0
1257,1.0,1645192640.09375,P16,D07,1,1,0
1258,1.09,1645192640.109375,P16,D07,1,1,0
1259,1.07,1645192640.125,P16,D07,1,1,0
1260,0.91,1645192640.140625,P16,D07,1,1,0
1261,0.65,1645192640.15625,P16,D07,1,1,0
1262,0.39,1645192640.171875,P16,D07,1,1,0
1263,0.24,1645192640.1875,P16,D07,1,1,0
1264,0.21,1645192640.203125,P16,D07,1,1,0
1265,0.27,1645192640.21875,P16,D07,1,1,0
1266,0.35,1645192640.234375,P16,D07,1,1,0
1267,0.38,1645192640.25,P16,D07,1,1,0
1268,0.38,1645192640.265625,P16,D07,1,1,0
1269,0.35,1645192640.28125,P16,D07,1,1,0
1270,0.32,1645192640.296875,P16,D07,1,1,0
1271,0.25,1645192640.3125,P16,D07,1,1,0
1272,0.12,1645192640.328125,P16,D07,1,1,0
1273,-0.1,1645192640.34375,P16,D07,1,1,0
1274,-0.39,1645192640.359375,P16,D07,1,1,0
1275,-0.68,1645192640.375,P16,D07,1,1,0
1276,-0.87,1645192640.390625,P16,D07,1,1,0
1277,-0.9,1645192640.40625,P16,D07,1,1,0
1278,-0.77,1645192640.421875,P16,D07,1,1,0
1279,-0.56,1645192640.4375,P16,D07,1,1,0
1280,-0.36,1645192640.453125,P16,D07,1,1,0
1281,-0.27,1645192640.46875,P16,D07,1,1,0
1282,-0.29,1645192640.484375,P16,D07,1,1,0
1283,-0.38,1645192640.5,P16,D07,1,1,0
1284,-0.45,1645192640.515625,P16,D07,1,1,0
1285,-0.43,1645192640.53125,P16,D07,1,1,0
1286,-0.32,1645192640.546875,P16,D07,1,1,0
1287,-0.2,1645192640.5625,P16,D07,1,1,0
1288,-0.15,1645192640.578125,P16,D07,1,1,0
1289,-0.21,1645192640.59375,P16,D07,1,1,0
1290,-0.38,1645192640.609375,P16,D07,1,1,0
1291,-0.56,1645192640.625,P16,D07,1,1,0
1292,-0.63,1645192640.640625,P16,D07,1,1,0
1293,-0.51,1645192640.65625,P16,D07,1,1,0
1294,-0.21,1645192640.671875,P16,D07,1,1,0
1295,0.19,1645192640.6875,P16,D07,1,1,0
1296,0.56,1645192640.703125,P16,D07,1,1,0
1297,0.81,1645192640.71875,P16,D07,1,1,0
1298,0.91,1645192640.734375,P16,D07,1,1,0
1299,0.89,1645192640.75,P16,D07,1,1,0
1300,0.86,1645192640.765625,P16,D07,1,1,0
1301,0.88,1645192640.78125,P16,D07,1,1,0
1302,0.97,1645192640.796875,P16,D07,1,1,0
1303,1.08,1645192640.8125,P16,D07,1,1,0
1304,1.13,1645192640.828125,P16,D07,1,1,0
1305,1.03,1645192640.84375,P16,D07,1,1,0
1306,0.8,1645192640.859375,P16,D07,1,1,0
1307,0.53,1645192640.875,P16,D07,1,1,0
1308,0.36,1645192640.890625,P16,D07,1,1,0
1309,0.37,1645192640.90625,P16,D07,1,1,0
1310,0.53,1645192640.921875,P16,D07,1,1,0
1311,0.74,1645192640.9375,P16,D07,1,1,0
1312,0.83,1645192640.953125,P16,D07,1,1,0
1313,0.7,1645192640.96875,P16,D07,1,1,0
1314,0.36,1645192640.984375,P16,D07,1,1,0
1315,-0.09,1645192641.0,P16,D07,1,1,0
1316,-0.49,1645192641.015625,P16,D07,1,1,0
1317,-0.73,1645192641.03125,P16,D07,1,1,0
1318,-0.79,1645192641.046875,P16,D07,1,1,0
1319,-0.74,1645192641.0625,P16,D07,1,1,0
1320,-0.7,1645192641.078125,P16,D07,1,1,0
1321,-0.72,1645192641.09375,P16,D07,1,1,0
1322,-0.81,1645192641.109375,P16,D07,1,1,0
1323,-0.88,1645192641.125,P16,D07,1,1,0
1324,-0.83,1645192641.140625,P16,D07,1,1,0
1325,-0.6,1645192641.15625,P16,D07,1,1,0
1326,-0.22,1645192641.171875,P16,D07,1,1,0
1327,0.21,1645192641.1875,P16,D07,1,1,0
1328,0.55,1645192641.203125,P16,D07,1,1,0
1329,0.73,1645192641.21875,P16,D07,1,1,0
1330,0.7,1645192641.234375,P16,D07,1,1,0
1331,0.51,1645192641.25,P16,D07,1,1,0
1332,0.18,1645192641.265625,P16,D07,1,1,0
1333,-0.23,1645192641.28125,P16,D07,1,1,0
1334,-0.7,1645192641.296875,P16,D07,1,1,0
1335,-1.18,1645192641.3125,P16,D07,1,1,0
1336,-1.61,1645192641.328125,P16,D07,1,1,0
1337,-1.9,1645192641.34375,P16,D07,1,1,0
1338,-1.99,1645192641.359375,P16,D07,1,1,0
1339,-1.9,1645192641.375,P16,D07,1,1,0
1340,-1.7,1645192641.390625,P16,D07,1,1,0
1341,-1.49,1645192641.40625,P16,D07,1,1,0
1342,-1.35,1645192641.421875,P16,D07,1,1,0
1343,-1.28,1645192641.4375,P16,D07,1,1,0
1344,-1.24,1645192641.453125,P16,D07,1,1,0
1345,-1.14,1645192641.46875,P16,D07,1,1,0
1346,-0.93,1645192641.484375,P16,D07,1,1,0
1347,-0.6,1645192641.5,P16,D07,1,1,0
1348,-0.18,1645192641.515625,P16,D07,1,1,0
1349,0.22,1645192641.53125,P16,D07,1,1,0
1350,0.53,1645192641.546875,P16,D07,1,1,0
1351,0.66,1645192641.5625,P16,D07,1,1,0
1352,0.6,1645192641.578125,P16,D07,1,1,0
1353,0.34,1645192641.59375,P16,D07,1,1,0
1354,-0.06,1645192641.609375,P16,D07,1,1,0
1355,-0.53,1645192641.625,P16,D07,1,1,0
1356,-1.0,1645192641.640625,P16,D07,1,1,0
1357,-1.38,1645192641.65625,P16,D07,1,1,0
1358,-1.62,1645192641.671875,P16,D07,1,1,0
1359,-1.69,1645192641.6875,P16,D07,1,1,0
1360,-1.58,1645192641.703125,P16,D07,1,1,0
1361,-1.36,1645192641.71875,P16,D07,1,1,0
1362,-1.11,1645192641.734375,P16,D07,1,1,0
1363,-0.91,1645192641.75,P16,D07,1,1,0
1364,-0.84,1645192641.765625,P16,D07,1,1,0
1365,-0.89,1645192641.78125,P16,D07,1,1,0
1366,-1.01,1645192641.796875,P16,D07,1,1,0
1367,-1.09,1645192641.8125,P16,D07,1,1,0
1368,-1.07,1645192641.828125,P16,D07,1,1,0
1369,-0.94,1645192641.84375,P16,D07,1,1,0
1370,-0.74,1645192641.859375,P16,D07,1,1,0
1371,-0.54,1645192641.875,P16,D07,1,1,0
1372,-0.39,1645192641.890625,P16,D07,1,1,0
1373,-0.31,1645192641.90625,P16,D07,1,1,0
1374,-0.28,1645192641.921875,P16,D07,1,1,0
1375,-0.28,1645192641.9375,P16,D07,1,1,0
1376,-0.29,1645192641.953125,P16,D07,1,1,0
1377,-0.28,1645192641.96875,P16,D07,1,1,0
1378,-0.25,1645192641.984375,P16,D07,1,1,0
1379,-0.17,1645192642.0,P16,D07,1,1,0
1380,-0.03,1645192642.015625,P16,D07,1,1,0
1381,0.17,1645192642.03125,P16,D07,1,1,0
1382,0.42,1645192642.046875,P16,D07,1,1,0
1383,0.65,1645192642.0625,P16,D07,1,1,0
1384,0.82,1645192642.078125,P16,D07,1,1,0
1385,0.92,1645192642.09375,P16,D07,1,1,0
1386,0.95,1645192642.109375,P16,D07,1,1,0
1387,0.99,1645192642.125,P16,D07,1,1,0
1388,1.07,1645192642.140625,P16,D07,1,1,0
1389,1.22,1645192642.15625,P16,D07,1,1,0
1390,1.42,1645192642.171875,P16,D07,1,1,0
1391,1.63,1645192642.1875,P16,D07,1,1,0
1392,1.77,1645192642.203125,P16,D07,1,1,0
1393,1.81,1645192642.21875,P16,D07,1,1,0
1394,1.76,1645192642.234375,P16,D07,1,1,0
1395,1.66,1645192642.25,P16,D07,1,1,0
1396,1.54,1645192642.265625,P16,D07,1,1,0
1397,1.39,1645192642.28125,P16,D07,1,1,0
1398,1.17,1645192642.296875,P16,D07,1,1,0
1399,0.83,1645192642.3125,P16,D07,1,1,0
1400,0.39,1645192642.328125,P16,D07,1,1,0
1401,-0.07,1645192642.34375,P16,D07,1,1,0
1402,-0.41,1645192642.359375,P16,D07,1,1,0
1403,-0.54,1645192642.375,P16,D07,1,1,0
1404,-0.43,1645192642.390625,P16,D07,1,1,0
1405,-0.19,1645192642.40625,P16,D07,1,1,0
1406,0.04,1645192642.421875,P16,D07,1,1,0
1407,0.11,1645192642.4375,P16,D07,1,1,0
1408,-0.01,1645192642.453125,P16,D07,1,1,0
1409,-0.24,1645192642.46875,P16,D07,1,1,0
1410,-0.5,1645192642.484375,P16,D07,1,1,0
1411,-0.67,1645192642.5,P16,D07,1,1,0
1412,-0.69,1645192642.515625,P16,D07,1,1,0
1413,-0.54,1645192642.53125,P16,D07,1,1,0
1414,-0.21,1645192642.546875,P16,D07,1,1,0
1415,0.27,1645192642.5625,P16,D07,1,1,0
1416,0.83,1645192642.578125,P16,D07,1,1,0
1417,1.36,1645192642.59375,P16,D07,1,1,0
1418,1.7,1645192642.609375,P16,D07,1,1,0
1419,1.74,1645192642.625,P16,D07,1,1,0
1420,1.5,1645192642.640625,P16,D07,1,1,0
1421,1.08,1645192642.65625,P16,D07,1,1,0
1422,0.67,1645192642.671875,P16,D07,1,1,0
1423,0.43,1645192642.6875,P16,D07,1,1,0
1424,0.38,1645192642.703125,P16,D07,1,1,0
1425,0.47,1645192642.71875,P16,D07,1,1,0
1426,0.56,1645192642.734375,P16,D07,1,1,0
1427,0.57,1645192642.75,P16,D07,1,1,0
1428,0.47,1645192642.765625,P16,D07,1,1,0
1429,0.35,1645192642.78125,P16,D07,1,1,0
1430,0.26,1645192642.796875,P16,D07,1,1,0
1431,0.24,1645192642.8125,P16,D07,1,1,0
1432,0.24,1645192642.828125,P16,D07,1,1,0
1433,0.19,1645192642.84375,P16,D07,1,1,0
1434,0.04,1645192642.859375,P16,D07,1,1,0
1435,-0.19,1645192642.875,P16,D07,1,1,0
1436,-0.38,1645192642.890625,P16,D07,1,1,0
1437,-0.42,1645192642.90625,P16,D07,1,1,0
1438,-0.23,1645192642.921875,P16,D07,1,1,0
1439,0.18,1645192642.9375,P16,D07,1,1,0
1440,0.71,1645192642.953125,P16,D07,1,1,0
1441,1.22,1645192642.96875,P16,D07,1,1,0
1442,1.62,1645192642.984375,P16,D07,1,1,0
1443,1.86,1645192643.0,P16,D07,1,1,0
1444,1.98,1645192643.015625,P16,D07,1,1,0
1445,2.06,1645192643.03125,P16,D07,1,1,0
1446,2.13,1645192643.046875,P16,D07,1,1,0
1447,2.18,1645192643.0625,P16,D07,1,1,0
1448,2.14,1645192643.078125,P16,D07,1,1,0
1449,1.95,1645192643.09375,P16,D07,1,1,0
1450,1.6,1645192643.109375,P16,D07,1,1,0
1451,1.17,1645192643.125,P16,D07,1,1,0
1452,0.78,1645192643.140625,P16,D07,1,1,0
1453,0.56,1645192643.15625,P16,D07,1,1,0
1454,0.58,1645192643.171875,P16,D07,1,1,0
1455,0.82,1645192643.1875,P16,D07,1,1,0
1456,1.21,1645192643.203125,P16,D07,1,1,0
1457,1.61,1645192643.21875,P16,D07,1,1,0
1458,1.89,1645192643.234375,P16,D07,1,1,0
1459,1.95,1645192643.25,P16,D07,1,1,0
1460,1.77,1645192643.265625,P16,D07,1,1,0
1461,1.4,1645192643.28125,P16,D07,1,1,0
1462,0.93,1645192643.296875,P16,D07,1,1,0
1463,0.51,1645192643.3125,P16,D07,1,1,0
1464,0.23,1645192643.328125,P16,D07,1,1,0
1465,0.14,1645192643.34375,P16,D07,1,1,0
1466,0.2,1645192643.359375,P16,D07,1,1,0
1467,0.34,1645192643.375,P16,D07,1,1,0
1468,0.46,1645192643.390625,P16,D07,1,1,0
1469,0.53,1645192643.40625,P16,D07,1,1,0
1470,0.52,1645192643.421875,P16,D07,1,1,0
1471,0.48,1645192643.4375,P16,D07,1,1,0
1472,0.4,1645192643.453125,P16,D07,1,1,0
1473,0.3,1645192643.46875,P16,D07,1,1,0
1474,0.15,1645192643.484375,P16,D07,1,1,0
1475,-0.05,1645192643.5,P16,D07,1,1,0
1476,-0.26,1645192643.515625,P16,D07,1,1,0
1477,-0.45,1645192643.53125,P16,D07,1,1,0
1478,-0.6,1645192643.546875,P16,D07,1,1,0
1479,-0.69,1645192643.5625,P16,D07,1,1,0
1480,-0.72,1645192643.578125,P16,D07,1,1,0
1481,-0.68,1645192643.59375,P16,D07,1,1,0
1482,-0.54,1645192643.609375,P16,D07,1,1,0
1483,-0.25,1645192643.625,P16,D07,1,1,0
1484,0.15,1645192643.640625,P16,D07,1,1,0
1485,0.58,1645192643.65625,P16,D07,1,1,0
1486,0.9,1645192643.671875,P16,D07,1,1,0
1487,1.0,1645192643.6875,P16,D07,1,1,0
1488,0.81,1645192643.703125,P16,D07,1,1,0
1489,0.37,1645192643.71875,P16,D07,1,1,0
1490,-0.2,1645192643.734375,P16,D07,1,1,0
1491,-0.76,1645192643.75,P16,D07,1,1,0
1492,-1.23,1645192643.765625,P16,D07,1,1,0
1493,-1.61,1645192643.78125,P16,D07,1,1,0
1494,-1.95,1645192643.796875,P16,D07,1,1,0
1495,-2.33,1645192643.8125,P16,D07,1,1,0
1496,-2.73,1645192643.828125,P16,D07,1,1,0
1497,-3.1,1645192643.84375,P16,D07,1,1,0
1498,-3.32,1645192643.859375,P16,D07,1,1,0
1499,-3.31,1645192643.875,P16,D07,1,1,0
1500,-3.1,1645192643.890625,P16,D07,1,1,0
1501,-2.79,1645192643.90625,P16,D07,1,1,0
1502,-2.57,1645192643.921875,P16,D07,1,1,0
1503,-2.54,1645192643.9375,P16,D07,1,1,0
1504,-2.71,1645192643.953125,P16,D07,1,1,0
1505,-2.95,1645192643.96875,P16,D07,1,1,0
1506,-3.09,1645192643.984375,P16,D07,1,1,0
1507,-3.0,1645192644.0,P16,D07,1,1,0
1508,-2.72,1645192644.015625,P16,D07,1,1,0
1509,-2.39,1645192644.03125,P16,D07,1,1,0
1510,-2.18,1645192644.046875,P16,D07,1,1,0
1511,-2.18,1645192644.0625,P16,D07,1,1,0
1512,-2.35,1645192644.078125,P16,D07,1,1,0
1513,-2.51,1645192644.09375,P16,D07,1,1,0
1514,-2.5,1645192644.109375,P16,D07,1,1,0
1515,-2.25,1645192644.125,P16,D07,1,1,0
1516,-1.86,1645192644.140625,P16,D07,1,1,0
1517,-1.5,1645192644.15625,P16,D07,1,1,0
1518,-1.32,1645192644.171875,P16,D07,1,1,0
1519,-1.34,1645192644.1875,P16,D07,1,1,0
1520,-1.43,1645192644.203125,P16,D07,1,1,0
1521,-1.39,1645192644.21875,P16,D07,1,1,0
1522,-1.09,1645192644.234375,P16,D07,1,1,0
1523,-0.54,1645192644.25,P16,D07,1,1,0
1524,0.11,1645192644.265625,P16,D07,1,1,0
1525,0.64,1645192644.28125,P16,D07,1,1,0
1526,0.91,1645192644.296875,P16,D07,1,1,0
1527,0.92,1645192644.3125,P16,D07,1,1,0
1528,0.8,1645192644.328125,P16,D07,1,1,0
1529,0.67,1645192644.34375,P16,D07,1,1,0
1530,0.6,1645192644.359375,P16,D07,1,1,0
1531,0.51,1645192644.375,P16,D07,1,1,0
1532,0.3,1645192644.390625,P16,D07,1,1,0
1533,-0.12,1645192644.40625,P16,D07,1,1,0
1534,-0.69,1645192644.421875,P16,D07,1,1,0
1535,-1.24,1645192644.4375,P16,D07,1,1,0
1536,-1.57,1645192644.453125,P16,D07,1,1,0
1537,-1.57,1645192644.46875,P16,D07,1,1,0
1538,-1.24,1645192644.484375,P16,D07,1,1,0
1539,-0.74,1645192644.5,P16,D07,1,1,0
1540,-0.24,1645192644.515625,P16,D07,1,1,0
1541,0.12,1645192644.53125,P16,D07,1,1,0
1542,0.35,1645192644.546875,P16,D07,1,1,0
1543,0.52,1645192644.5625,P16,D07,1,1,0
1544,0.71,1645192644.578125,P16,D07,1,1,0
1545,0.95,1645192644.59375,P16,D07,1,1,0
1546,1.18,1645192644.609375,P16,D07,1,1,0
1547,1.29,1645192644.625,P16,D07,1,1,0
1548,1.24,1645192644.640625,P16,D07,1,1,0
1549,1.05,1645192644.65625,P16,D07,1,1,0
1550,0.8,1645192644.671875,P16,D07,1,1,0
1551,0.59,1645192644.6875,P16,D07,1,1,0
1552,0.49,1645192644.703125,P16,D07,1,1,0
1553,0.49,1645192644.71875,P16,D07,1,1,0
1554,0.55,1645192644.734375,P16,D07,1,1,0
1555,0.6,1645192644.75,P16,D07,1,1,0
1556,0.58,1645192644.765625,P16,D07,1,1,0
1557,0.5,1645192644.78125,P16,D07,1,1,0
1558,0.4,1645192644.796875,P16,D07,1,1,0
1559,0.31,1645192644.8125,P16,D07,1,1,0
1560,0.29,1645192644.828125,P16,D07,1,1,0
1561,0.3,1645192644.84375,P16,D07,1,1,0
1562,0.29,1645192644.859375,P16,D07,1,1,0
1563,0.17,1645192644.875,P16,D07,1,1,0
1564,-0.11,1645192644.890625,P16,D07,1,1,0
1565,-0.51,1645192644.90625,P16,D07,1,1,0
1566,-0.93,1645192644.921875,P16,D07,1,1,0
1567,-1.24,1645192644.9375,P16,D07,1,1,0
1568,-1.36,1645192644.953125,P16,D07,1,1,0
1569,-1.28,1645192644.96875,P16,D07,1,1,0
1570,-1.07,1645192644.984375,P16,D07,1,1,0
1571,-0.78,1645192645.0,P16,D07,1,1,0
1572,-0.43,1645192645.015625,P16,D07,1,1,0
1573,-0.02,1645192645.03125,P16,D07,1,1,0
1574,0.46,1645192645.046875,P16,D07,1,1,0
1575,0.95,1645192645.0625,P16,D07,1,1,0
1576,1.33,1645192645.078125,P16,D07,1,1,0
1577,1.49,1645192645.09375,P16,D07,1,1,0
1578,1.38,1645192645.109375,P16,D07,1,1,0
1579,1.08,1645192645.125,P16,D07,1,1,0
1580,0.74,1645192645.140625,P16,D07,1,1,0
1581,0.5,1645192645.15625,P16,D07,1,1,0
1582,0.47,1645192645.171875,P16,D07,1,1,0
1583,0.66,1645192645.1875,P16,D07,1,1,0
1584,0.99,1645192645.203125,P16,D07,1,1,0
1585,1.36,1645192645.21875,P16,D07,1,1,0
1586,1.66,1645192645.234375,P16,D07,1,1,0
1587,1.82,1645192645.25,P16,D07,1,1,0
1588,1.82,1645192645.265625,P16,D07,1,1,0
1589,1.67,1645192645.28125,P16,D07,1,1,0
1590,1.43,1645192645.296875,P16,D07,1,1,0
1591,1.16,1645192645.3125,P16,D07,1,1,0
1592,0.92,1645192645.328125,P16,D07,1,1,0
1593,0.71,1645192645.34375,P16,D07,1,1,0
1594,0.54,1645192645.359375,P16,D07,1,1,0
1595,0.36,1645192645.375,P16,D07,1,1,0
1596,0.13,1645192645.390625,P16,D07,1,1,0
1597,-0.14,1645192645.40625,P16,D07,1,1,0
1598,-0.41,1645192645.421875,P16,D07,1,1,0
1599,-0.62,1645192645.4375,P16,D07,1,1,0
1600,-0.7,1645192645.453125,P16,D07,1,1,0
1601,-0.66,1645192645.46875,P16,D07,1,1,0
1602,-0.55,1645192645.484375,P16,D07,1,1,0
1603,-0.49,1645192645.5,P16,D07,1,1,0
1604,-0.54,1645192645.515625,P16,D07,1,1,0
1605,-0.71,1645192645.53125,P16,D07,1,1,0
1606,-0.93,1645192645.546875,P16,D07,1,1,0
1607,-1.11,1645192645.5625,P16,D07,1,1,0
1608,-1.17,1645192645.578125,P16,D07,1,1,0
1609,-1.11,1645192645.59375,P16,D07,1,1,0
1610,-0.98,1645192645.609375,P16,D07,1,1,0
1611,-0.83,1645192645.625,P16,D07,1,1,0
1612,-0.68,1645192645.640625,P16,D07,1,1,0
1613,-0.47,1645192645.65625,P16,D07,1,1,0
1614,-0.14,1645192645.671875,P16,D07,1,1,0
1615,0.29,1645192645.6875,P16,D07,1,1,0
1616,0.74,1645192645.703125,P16,D07,1,1,0
1617,1.11,1645192645.71875,P16,D07,1,1,0
1618,1.33,1645192645.734375,P16,D07,1,1,0
1619,1.41,1645192645.75,P16,D07,1,1,0
1620,1.44,1645192645.765625,P16,D07,1,1,0
1621,1.48,1645192645.78125,P16,D07,1,1,0
1622,1.57,1645192645.796875,P16,D07,1,1,0
1623,1.62,1645192645.8125,P16,D07,1,1,0
1624,1.57,1645192645.828125,P16,D07,1,1,0
1625,1.38,1645192645.84375,P16,D07,1,1,0
1626,1.09,1645192645.859375,P16,D07,1,1,0
1627,0.82,1645192645.875,P16,D07,1,1,0
1628,0.64,1645192645.890625,P16,D07,1,1,0
1629,0.59,1645192645.90625,P16,D07,1,1,0
1630,0.64,1645192645.921875,P16,D07,1,1,0
1631,0.7,1645192645.9375,P16,D07,1,1,0
1632,0.73,1645192645.953125,P16,D07,1,1,0
1633,0.72,1645192645.96875,P16,D07,1,1,0
1634,0.68,1645192645.984375,P16,D07,1,1,0
1635,0.67,1645192646.0,P16,D07,1,1,0
1636,0.69,1645192646.015625,P16,D07,1,1,0
1637,0.71,1645192646.03125,P16,D07,1,1,0
1638,0.7,1645192646.046875,P16,D07,1,1,0
1639,0.64,1645192646.0625,P16,D07,1,1,0
1640,0.55,1645192646.078125,P16,D07,1,1,0
1641,0.49,1645192646.09375,P16,D07,1,1,0
1642,0.5,1645192646.109375,P16,D07,1,1,0
1643,0.58,1645192646.125,P16,D07,1,1,0
1644,0.73,1645192646.140625,P16,D07,1,1,0
1645,0.86,1645192646.15625,P16,D07,1,1,0
1646,0.92,1645192646.171875,P16,D07,1,1,0
1647,0.85,1645192646.1875,P16,D07,1,1,0
1648,0.63,1645192646.203125,P16,D07,1,1,0
1649,0.32,1645192646.21875,P16,D07,1,1,0
1650,0.02,1645192646.234375,P16,D07,1,1,0
1651,-0.16,1645192646.25,P16,D07,1,1,0
1652,-0.15,1645192646.265625,P16,D07,1,1,0
1653,0.06,1645192646.28125,P16,D07,1,1,0
1654,0.39,1645192646.296875,P16,D07,1,1,0
1655,0.69,1645192646.3125,P16,D07,1,1,0
1656,0.81,1645192646.328125,P16,D07,1,1,0
1657,0.67,1645192646.34375,P16,D07,1,1,0
1658,0.32,1645192646.359375,P16,D07,1,1,0
1659,-0.11,1645192646.375,P16,D07,1,1,0
1660,-0.46,1645192646.390625,P16,D07,1,1,0
1661,-0.64,1645192646.40625,P16,D07,1,1,0
1662,-0.63,1645192646.421875,P16,D07,1,1,0
1663,-0.52,1645192646.4375,P16,D07,1,1,0
1664,-0.39,1645192646.453125,P16,D07,1,1,0
1665,-0.31,1645192646.46875,P16,D07,1,1,0
1666,-0.28,1645192646.484375,P16,D07,1,1,0
1667,-0.29,1645192646.5,P16,D07,1,1,0
1668,-0.34,1645192646.515625,P16,D07,1,1,0
1669,-0.47,1645192646.53125,P16,D07,1,1,0
1670,-0.74,1645192646.546875,P16,D07,1,1,0
1671,-1.16,1645192646.5625,P16,D07,1,1,0
1672,-1.67,1645192646.578125,P16,D07,1,1,0
1673,-2.12,1645192646.59375,P16,D07,1,1,0
1674,-2.33,1645192646.609375,P16,D07,1,1,0
1675,-2.22,1645192646.625,P16,D07,1,1,0
1676,-1.85,1645192646.640625,P16,D07,1,1,0
1677,-1.35,1645192646.65625,P16,D07,1,1,0
1678,-0.92,1645192646.671875,P16,D07,1,1,0
1679,-0.67,1645192646.6875,P16,D07,1,1,0
1680,-0.61,1645192646.703125,P16,D07,1,1,0
1681,-0.65,1645192646.71875,P16,D07,1,1,0
1682,-0.71,1645192646.734375,P16,D07,1,1,0
1683,-0.73,1645192646.75,P16,D07,1,1,0
1684,-0.73,1645192646.765625,P16,D07,1,1,0
1685,-0.76,1645192646.78125,P16,D07,1,1,0
1686,-0.81,1645192646.796875,P16,D07,1,1,0
1687,-0.83,1645192646.8125,P16,D07,1,1,0
1688,-0.77,1645192646.828125,P16,D07,1,1,0
1689,-0.59,1645192646.84375,P16,D07,1,1,0
1690,-0.33,1645192646.859375,P16,D07,1,1,0
1691,-0.07,1645192646.875,P16,D07,1,1,0
1692,0.11,1645192646.890625,P16,D07,1,1,0
1693,0.19,1645192646.90625,P16,D07,1,1,0
1694,0.19,1645192646.921875,P16,D07,1,1,0
1695,0.15,1645192646.9375,P16,D07,1,1,0
1696,0.1,1645192646.953125,P16,D07,1,1,0
1697,0.02,1645192646.96875,P16,D07,1,1,0
1698,-0.11,1645192646.984375,P16,D07,1,1,0
1699,-0.31,1645192647.0,P16,D07,1,1,0
1700,-0.57,1645192647.015625,P16,D07,1,1,0
1701,-0.85,1645192647.03125,P16,D07,1,1,0
1702,-1.09,1645192647.046875,P16,D07,1,1,0
1703,-1.27,1645192647.0625,P16,D07,1,1,0
1704,-1.37,1645192647.078125,P16,D07,1,1,0
1705,-1.41,1645192647.09375,P16,D07,1,1,0
1706,-1.4,1645192647.109375,P16,D07,1,1,0
1707,-1.32,1645192647.125,P16,D07,1,1,0
1708,-1.17,1645192647.140625,P16,D07,1,1,0
1709,-0.95,1645192647.15625,P16,D07,1,1,0
1710,-0.7,1645192647.171875,P16,D07,1,1,0
1711,-0.46,1645192647.1875,P16,D07,1,1,0
1712,-0.27,1645192647.203125,P16,D07,1,1,0
1713,-0.14,1645192647.21875,P16,D07,1,1,0
1714,-0.05,1645192647.234375,P16,D07,1,1,0
1715,0.05,1645192647.25,P16,D07,1,1,0
1716,0.2,1645192647.265625,P16,D07,1,1,0
1717,0.38,1645192647.28125,P16,D07,1,1,0
1718,0.56,1645192647.296875,P16,D07,1,1,0
1719,0.69,1645192647.3125,P16,D07,1,1,0
1720,0.73,1645192647.328125,P16,D07,1,1,0
1721,0.72,1645192647.34375,P16,D07,1,1,0
1722,0.7,1645192647.359375,P16,D07,1,1,0
1723,0.69,1645192647.375,P16,D07,1,1,0
1724,0.62,1645192647.390625,P16,D07,1,1,0
1725,0.44,1645192647.40625,P16,D07,1,1,0
1726,0.09,1645192647.421875,P16,D07,1,1,0
1727,-0.34,1645192647.4375,P16,D07,1,1,0
1728,-0.7,1645192647.453125,P16,D07,1,1,0
1729,-0.83,1645192647.46875,P16,D07,1,1,0
1730,-0.66,1645192647.484375,P16,D07,1,1,0
1731,-0.29,1645192647.5,P16,D07,1,1,0
1732,0.07,1645192647.515625,P16,D07,1,1,0
1733,0.22,1645192647.53125,P16,D07,1,1,0
1734,0.14,1645192647.546875,P16,D07,1,1,0
1735,-0.07,1645192647.5625,P16,D07,1,1,0
1736,-0.21,1645192647.578125,P16,D07,1,1,0
1737,-0.13,1645192647.59375,P16,D07,1,1,0
1738,0.17,1645192647.609375,P16,D07,1,1,0
1739,0.53,1645192647.625,P16,D07,1,1,0
1740,0.76,1645192647.640625,P16,D07,1,1,0
1741,0.72,1645192647.65625,P16,D07,1,1,0
1742,0.42,1645192647.671875,P16,D07,1,1,0
1743,-0.02,1645192647.6875,P16,D07,1,1,0
1744,-0.41,1645192647.703125,P16,D07,1,1,0
1745,-0.62,1645192647.71875,P16,D07,1,1,0
1746,-0.63,1645192647.734375,P16,D07,1,1,0
1747,-0.5,1645192647.75,P16,D07,1,1,0
1748,-0.29,1645192647.765625,P16,D07,1,1,0
1749,-0.06,1645192647.78125,P16,D07,1,1,0
1750,0.17,1645192647.796875,P16,D07,1,1,0
1751,0.41,1645192647.8125,P16,D07,1,1,0
1752,0.64,1645192647.828125,P16,D07,1,1,0
1753,0.86,1645192647.84375,P16,D07,1,1,0
1754,1.03,1645192647.859375,P16,D07,1,1,0
1755,1.17,1645192647.875,P16,D07,1,1,0
1756,1.27,1645192647.890625,P16,D07,1,1,0
1757,1.35,1645192647.90625,P16,D07,1,1,0
1758,1.4,1645192647.921875,P16,D07,1,1,0
1759,1.4,1645192647.9375,P16,D07,1,1,0
1760,1.33,1645192647.953125,P16,D07,1,1,0
1761,1.18,1645192647.96875,P16,D07,1,1,0
1762,1.0,1645192647.984375,P16,D07,1,1,0
1763,0.83,1645192648.0,P16,D07,1,1,0
1764,0.71,1645192648.015625,P16,D07,1,1,0
1765,0.66,1645192648.03125,P16,D07,1,1,0
1766,0.64,1645192648.046875,P16,D07,1,1,0
1767,0.66,1645192648.0625,P16,D07,1,1,0
1768,0.71,1645192648.078125,P16,D07,1,1,0
1769,0.82,1645192648.09375,P16,D07,1,1,0
1770,0.98,1645192648.109375,P16,D07,1,1,0
1771,1.15,1645192648.125,P16,D07,1,1,0
1772,1.26,1645192648.140625,P16,D07,1,1,0
1773,1.27,1645192648.15625,P16,D07,1,1,0
1774,1.15,1645192648.171875,P16,D07,1,1,0
1775,0.96,1645192648.1875,P16,D07,1,1,0
1776,0.79,1645192648.203125,P16,D07,1,1,0
1777,0.67,1645192648.21875,P16,D07,1,1,0
1778,0.61,1645192648.234375,P16,D07,1,1,0
1779,0.58,1645192648.25,P16,D07,1,1,0
1780,0.53,1645192648.265625,P16,D07,1,1,0
1781,0.44,1645192648.28125,P16,D07,1,1,0
1782,0.31,1645192648.296875,P16,D07,1,1,0
1783,0.15,1645192648.3125,P16,D07,1,1,0
1784,0.03,1645192648.328125,P16,D07,1,1,0
1785,-0.04,1645192648.34375,P16,D07,1,1,0
1786,-0.01,1645192648.359375,P16,D07,1,1,0
1787,0.13,1645192648.375,P16,D07,1,1,0
1788,0.38,1645192648.390625,P16,D07,1,1,0
1789,0.68,1645192648.40625,P16,D07,1,1,0
1790,0.96,1645192648.421875,P16,D07,1,1,0
1791,1.14,1645192648.4375,P16,D07,1,1,0
1792,1.19,1645192648.453125,P16,D07,1,1,0
1793,1.1,1645192648.46875,P16,D07,1,1,0
1794,0.93,1645192648.484375,P16,D07,1,1,0
1795,0.75,1645192648.5,P16,D07,1,1,0
1796,0.59,1645192648.515625,P16,D07,1,1,0
1797,0.45,1645192648.53125,P16,D07,1,1,0
1798,0.32,1645192648.546875,P16,D07,1,1,0
1799,0.17,1645192648.5625,P16,D07,1,1,0
1800,0.03,1645192648.578125,P16,D07,1,1,0
1801,-0.04,1645192648.59375,P16,D07,1,1,0
1802,-0.01,1645192648.609375,P16,D07,1,1,0
1803,0.11,1645192648.625,P16,D07,1,1,0
1804,0.23,1645192648.640625,P16,D07,1,1,0
1805,0.21,1645192648.65625,P16,D07,1,1,0
1806,-0.03,1645192648.671875,P16,D07,1,1,0
1807,-0.46,1645192648.6875,P16,D07,1,1,0
1808,-0.94,1645192648.703125,P16,D07,1,1,0
1809,-1.26,1645192648.71875,P16,D07,1,1,0
1810,-1.3,1645192648.734375,P16,D07,1,1,0
1811,-1.04,1645192648.75,P16,D07,1,1,0
1812,-0.59,1645192648.765625,P16,D07,1,1,0
1813,-0.13,1645192648.78125,P16,D07,1,1,0
1814,0.2,1645192648.796875,P16,D07,1,1,0
1815,0.36,1645192648.8125,P16,D07,1,1,0
1816,0.39,1645192648.828125,P16,D07,1,1,0
1817,0.35,1645192648.84375,P16,D07,1,1,0
1818,0.24,1645192648.859375,P16,D07,1,1,0
1819,0.05,1645192648.875,P16,D07,1,1,0
1820,-0.26,1645192648.890625,P16,D07,1,1,0
1821,-0.64,1645192648.90625,P16,D07,1,1,0
1822,-0.99,1645192648.921875,P16,D07,1,1,0
1823,-1.2,1645192648.9375,P16,D07,1,1,0
1824,-1.17,1645192648.953125,P16,D07,1,1,0
1825,-0.93,1645192648.96875,P16,D07,1,1,0
1826,-0.6,1645192648.984375,P16,D07,1,1,0
1827,-0.32,1645192649.0,P16,D07,1,1,0
1828,-0.22,1645192649.015625,P16,D07,1,1,0
1829,-0.33,1645192649.03125,P16,D07,1,1,0
1830,-0.62,1645192649.046875,P16,D07,1,1,0
1831,-1.02,1645192649.0625,P16,D07,1,1,0
1832,-1.43,1645192649.078125,P16,D07,1,1,0
1833,-1.78,1645192649.09375,P16,D07,1,1,0
1834,-2.03,1645192649.109375,P16,D07,1,1,0
1835,-2.11,1645192649.125,P16,D07,1,1,0
1836,-1.96,1645192649.140625,P16,D07,1,1,0
1837,-1.56,1645192649.15625,P16,D07,1,1,0
1838,-0.97,1645192649.171875,P16,D07,1,1,0
1839,-0.31,1645192649.1875,P16,D07,1,1,0
1840,0.26,1645192649.203125,P16,D07,1,1,0
1841,0.58,1645192649.21875,P16,D07,1,1,0
1842,0.6,1645192649.234375,P16,D07,1,1,0
1843,0.38,1645192649.25,P16,D07,1,1,0
1844,0.04,1645192649.265625,P16,D07,1,1,0
1845,-0.28,1645192649.28125,P16,D07,1,1,0
1846,-0.48,1645192649.296875,P16,D07,1,1,0
1847,-0.57,1645192649.3125,P16,D07,1,1,0
1848,-0.59,1645192649.328125,P16,D07,1,1,0
1849,-0.59,1645192649.34375,P16,D07,1,1,0
1850,-0.62,1645192649.359375,P16,D07,1,1,0
1851,-0.62,1645192649.375,P16,D07,1,1,0
1852,-0.57,1645192649.390625,P16,D07,1,1,0
1853,-0.43,1645192649.40625,P16,D07,1,1,0
1854,-0.23,1645192649.421875,P16,D07,1,1,0
1855,-0.01,1645192649.4375,P16,D07,1,1,0
1856,0.18,1645192649.453125,P16,D07,1,1,0
1857,0.27,1645192649.46875,P16,D07,1,1,0
1858,0.21,1645192649.484375,P16,D07,1,1,0
1859,-0.01,1645192649.5,P16,D07,1,1,0
1860,-0.34,1645192649.515625,P16,D07,1,1,0
1861,-0.72,1645192649.53125,P16,D07,1,1,0
1862,-1.0,1645192649.546875,P16,D07,1,1,0
1863,-1.1,1645192649.5625,P16,D07,1,1,0
1864,-0.97,1645192649.578125,P16,D07,1,1,0
1865,-0.65,1645192649.59375,P16,D07,1,1,0
1866,-0.24,1645192649.609375,P16,D07,1,1,0
1867,0.14,1645192649.625,P16,D07,1,1,0
1868,0.42,1645192649.640625,P16,D07,1,1,0
1869,0.6,1645192649.65625,P16,D07,1,1,0
1870,0.73,1645192649.671875,P16,D07,1,1,0
1871,0.86,1645192649.6875,P16,D07,1,1,0
1872,0.99,1645192649.703125,P16,D07,1,1,0
1873,1.04,1645192649.71875,P16,D07,1,1,0
1874,0.96,1645192649.734375,P16,D07,1,1,0
1875,0.73,1645192649.75,P16,D07,1,1,0
1876,0.41,1645192649.765625,P16,D07,1,1,0
1877,0.15,1645192649.78125,P16,D07,1,1,0
1878,0.05,1645192649.796875,P16,D07,1,1,0
1879,0.15,1645192649.8125,P16,D07,1,1,0
1880,0.35,1645192649.828125,P16,D07,1,1,0
1881,0.5,1645192649.84375,P16,D07,1,1,0
1882,0.47,1645192649.859375,P16,D07,1,1,0
1883,0.26,1645192649.875,P16,D07,1,1,0
1884,-0.01,1645192649.890625,P16,D07,1,1,0
1885,-0.2,1645192649.90625,P16,D07,1,1,0
1886,-0.23,1645192649.921875,P16,D07,1,1,0
1887,-0.13,1645192649.9375,P16,D07,1,1,0
1888,-0.02,1645192649.953125,P16,D07,1,1,0
1889,-0.03,1645192649.96875,P16,D07,1,1,0
1890,-0.22,1645192649.984375,P16,D07,1,1,0
1891,-0.55,1645192650.0,P16,D07,1,1,0
1892,-0.92,1645192650.015625,P16,D07,1,1,0
1893,-1.24,1645192650.03125,P16,D07,1,1,0
1894,-1.47,1645192650.046875,P16,D07,1,1,0
1895,-1.61,1645192650.0625,P16,D07,1,1,0
1896,-1.63,1645192650.078125,P16,D07,1,1,0
1897,-1.51,1645192650.09375,P16,D07,1,1,0
1898,-1.24,1645192650.109375,P16,D07,1,1,0
1899,-0.81,1645192650.125,P16,D07,1,1,0
1900,-0.3,1645192650.140625,P16,D07,1,1,0
1901,0.21,1645192650.15625,P16,D07,1,1,0
1902,0.63,1645192650.171875,P16,D07,1,1,0
1903,0.91,1645192650.1875,P16,D07,1,1,0
1904,1.01,1645192650.203125,P16,D07,1,1,0
1905,0.9,1645192650.21875,P16,D07,1,1,0
1906,0.6,1645192650.234375,P16,D07,1,1,0
1907,0.16,1645192650.25,P16,D07,1,1,0
1908,-0.29,1645192650.265625,P16,D07,1,1,0
1909,-0.59,1645192650.28125,P16,D07,1,1,0
1910,-0.57,1645192650.296875,P16,D07,1,1,0
1911,-0.2,1645192650.3125,P16,D07,1,1,0
1912,0.43,1645192650.328125,P16,D07,1,1,0
1913,1.13,1645192650.34375,P16,D07,1,1,0
1914,1.66,1645192650.359375,P16,D07,1,1,0
1915,1.9,1645192650.375,P16,D07,1,1,0
1916,1.84,1645192650.390625,P16,D07,1,1,0
1917,1.57,1645192650.40625,P16,D07,1,1,0
1918,1.22,1645192650.421875,P16,D07,1,1,0
1919,0.87,1645192650.4375,P16,D07,1,1,0
1920,0.57,1645192650.453125,P16,D07,1,1,0
1921,0.3,1645192650.46875,P16,D07,1,1,0
1922,0.07,1645192650.484375,P16,D07,1,1,0
1923,-0.07,1645192650.5,P16,D07,1,1,0
1924,-0.1,1645192650.515625,P16,D07,1,1,0
1925,-0.01,1645192650.53125,P16,D07,1,1,0
1926,0.15,1645192650.546875,P16,D07,1,1,0
1927,0.26,1645192650.5625,P16,D07,1,1,0
1928,0.25,1645192650.578125,P16,D07,1,1,0
1929,0.11,1645192650.59375,P16,D07,1,1,0
1930,-0.1,1645192650.609375,P16,D07,1,1,0
1931,-0.23,1645192650.625,P16,D07,1,1,0
1932,-0.19,1645192650.640625,P16,D07,1,1,0
1933,0.02,1645192650.65625,P16,D07,1,1,0
1934,0.29,1645192650.671875,P16,D07,1,1,0
1935,0.47,1645192650.6875,P16,D07,1,1,0
1936,0.45,1645192650.703125,P16,D07,1,1,0
1937,0.22,1645192650.71875,P16,D07,1,1,0
1938,-0.13,1645192650.734375,P16,D07,1,1,0
1939,-0.46,1645192650.75,P16,D07,1,1,0
1940,-0.65,1645192650.765625,P16,D07,1,1,0
1941,-0.63,1645192650.78125,P16,D07,1,1,0
1942,-0.42,1645192650.796875,P16,D07,1,1,0
1943,-0.09,1645192650.8125,P16,D07,1,1,0
1944,0.31,1645192650.828125,P16,D07,1,1,0
1945,0.69,1645192650.84375,P16,D07,1,1,0
1946,0.98,1645192650.859375,P16,D07,1,1,0
1947,1.13,1645192650.875,P16,D07,1,1,0
1948,1.09,1645192650.890625,P16,D07,1,1,0
1949,0.89,1645192650.90625,P16,D07,1,1,0
1950,0.6,1645192650.921875,P16,D07,1,1,0
1951,0.3,1645192650.9375,P16,D07,1,1,0
1952,0.11,1645192650.953125,P16,D07,1,1,0
1953,0.05,1645192650.96875,P16,D07,1,1,0
1954,0.12,1645192650.984375,P16,D07,1,1,0
1955,0.26,1645192651.0,P16,D07,1,1,0
1956,0.4,1645192651.015625,P16,D07,1,1,0
1957,0.51,1645192651.03125,P16,D07,1,1,0
1958,0.59,1645192651.046875,P16,D07,1,1,0
1959,0.64,1645192651.0625,P16,D07,1,1,0
1960,0.69,1645192651.078125,P16,D07,1,1,0
1961,0.77,1645192651.09375,P16,D07,1,1,0
1962,0.83,1645192651.109375,P16,D07,1,1,0
1963,0.88,1645192651.125,P16,D07,1,1,0
1964,0.87,1645192651.140625,P16,D07,1,1,0
1965,0.78,1645192651.15625,P16,D07,1,1,0
1966,0.63,1645192651.171875,P16,D07,1,1,0
1967,0.4,1645192651.1875,P16,D07,1,1,0
1968,0.15,1645192651.203125,P16,D07,1,1,0
1969,-0.07,1645192651.21875,P16,D07,1,1,0
1970,-0.19,1645192651.234375,P16,D07,1,1,0
1971,-0.14,1645192651.25,P16,D07,1,1,0
1972,0.09,1645192651.265625,P16,D07,1,1,0
1973,0.43,1645192651.28125,P16,D07,1,1,0
1974,0.76,1645192651.296875,P16,D07,1,1,0
1975,0.91,1645192651.3125,P16,D07,1,1,0
1976,0.81,1645192651.328125,P16,D07,1,1,0
1977,0.49,1645192651.34375,P16,D07,1,1,0
1978,0.06,1645192651.359375,P16,D07,1,1,0
1979,-0.33,1645192651.375,P16,D07,1,1,0
1980,-0.56,1645192651.390625,P16,D07,1,1,0
1981,-0.62,1645192651.40625,P16,D07,1,1,0
1982,-0.58,1645192651.421875,P16,D07,1,1,0
1983,-0.54,1645192651.4375,P16,D07,1,1,0
1984,-0.55,1645192651.453125,P16,D07,1,1,0
1985,-0.61,1645192651.46875,P16,D07,1,1,0
1986,-0.65,1645192651.484375,P16,D07,1,1,0
1987,-0.62,1645192651.5,P16,D07,1,1,0
1988,-0.5,1645192651.515625,P16,D07,1,1,0
1989,-0.33,1645192651.53125,P16,D07,1,1,0
1990,-0.21,1645192651.546875,P16,D07,1,1,0
1991,-0.16,1645192651.5625,P16,D07,1,1,0
1992,-0.19,1645192651.578125,P16,D07,1,1,0
1993,-0.27,1645192651.59375,P16,D07,1,1,0
1994,-0.36,1645192651.609375,P16,D07,1,1,0
1995,-0.42,1645192651.625,P16,D07,1,1,0
1996,-0.47,1645192651.640625,P16,D07,1,1,0
1997,-0.52,1645192651.65625,P16,D07,1,1,0
1998,-0.58,1645192651.671875,P16,D07,1,1,0
1999,-0.65,1645192651.6875,P16,D07,1,1,0
2000,-0.72,1645192651.703125,P16,D07,1,1,0
2001,-0.81,1645192651.71875,P16,D07,1,1,0
2002,-0.97,1645192651.734375,P16,D07,1,1,0
2003,-1.24,1645192651.75,P16,D07,1,1,0
2004,-1.6,1645192651.765625,P16,D07,1,1,0
2005,-1.95,1645192651.78125,P16,D07,1,1,0
2006,-2.18,1645192651.796875,P16,D07,1,1,0
2007,-2.19,1645192651.8125,P16,D07,1,1,0
2008,-2.0,1645192651.828125,P16,D07,1,1,0
2009,-1.74,1645192651.84375,P16,D07,1,1,0
2010,-1.56,1645192651.859375,P16,D07,1,1,0
2011,-1.58,1645192651.875,P16,D07,1,1,0
2012,-1.75,1645192651.890625,P16,D07,1,1,0
2013,-1.95,1645192651.90625,P16,D07,1,1,0
2014,-2.04,1645192651.921875,P16,D07,1,1,0
2015,-1.95,1645192651.9375,P16,D07,1,1,0
2016,-1.7,1645192651.953125,P16,D07,1,1,0
2017,-1.43,1645192651.96875,P16,D07,1,1,0
2018,-1.26,1645192651.984375,P16,D07,1,1,0
2019,-1.26,1645192652.0,P16,D07,1,1,0
2020,-1.4,1645192652.015625,P16,D07,1,1,0
2021,-1.62,1645192652.03125,P16,D07,1,1,0
2022,-1.83,1645192652.046875,P16,D07,1,1,0
2023,-2.01,1645192652.0625,P16,D07,1,1,0
2024,-2.19,1645192652.078125,P16,D07,1,1,0
2025,-2.39,1645192652.09375,P16,D07,1,1,0
2026,-2.68,1645192652.109375,P16,D07,1,1,0
2027,-3.06,1645192652.125,P16,D07,1,1,0
2028,-3.57,1645192652.140625,P16,D07,1,1,0
2029,-4.2,1645192652.15625,P16,D07,1,1,0
2030,-4.92,1645192652.171875,P16,D07,1,1,0
2031,-5.62,1645192652.1875,P16,D07,1,1,0
2032,-6.1,1645192652.203125,P16,D07,1,1,0
2033,-6.1,1645192652.21875,P16,D07,1,1,0
2034,-5.41,1645192652.234375,P16,D07,1,1,0
2035,-3.98,1645192652.25,P16,D07,1,1,0
2036,-2.0,1645192652.265625,P16,D07,1,1,0
2037,0.18,1645192652.28125,P16,D07,1,1,0
2038,2.14,1645192652.296875,P16,D07,1,1,0
2039,3.61,1645192652.3125,P16,D07,1,1,0
2040,4.51,1645192652.328125,P16,D07,1,1,0
2041,4.94,1645192652.34375,P16,D07,1,1,0
2042,5.11,1645192652.359375,P16,D07,1,1,0
2043,5.15,1645192652.375,P16,D07,1,1,0
2044,5.14,1645192652.390625,P16,D07,1,1,0
2045,5.04,1645192652.40625,P16,D07,1,1,0
2046,4.84,1645192652.421875,P16,D07,1,1,0
2047,4.57,1645192652.4375,P16,D07,1,1,0
2048,4.29,1645192652.453125,P16,D07,1,1,0
2049,4.03,1645192652.46875,P16,D07,1,1,0
2050,3.81,1645192652.484375,P16,D07,1,1,0
2051,3.61,1645192652.5,P16,D07,1,1,0
2052,3.41,1645192652.515625,P16,D07,1,1,0
2053,3.21,1645192652.53125,P16,D07,1,1,0
2054,3.08,1645192652.546875,P16,D07,1,1,0
2055,3.07,1645192652.5625,P16,D07,1,1,0
2056,3.18,1645192652.578125,P16,D07,1,1,0
2057,3.38,1645192652.59375,P16,D07,1,1,0
2058,3.57,1645192652.609375,P16,D07,1,1,0
2059,3.63,1645192652.625,P16,D07,1,1,0
2060,3.48,1645192652.640625,P16,D07,1,1,0
2061,3.07,1645192652.65625,P16,D07,1,1,0
2062,2.45,1645192652.671875,P16,D07,1,1,0
2063,1.69,1645192652.6875,P16,D07,1,1,0
2064,0.91,1645192652.703125,P16,D07,1,1,0
2065,0.21,1645192652.71875,P16,D07,1,1,0
2066,-0.31,1645192652.734375,P16,D07,1,1,0
2067,-0.62,1645192652.75,P16,D07,1,1,0
2068,-0.75,1645192652.765625,P16,D07,1,1,0
2069,-0.76,1645192652.78125,P16,D07,1,1,0
2070,-0.76,1645192652.796875,P16,D07,1,1,0
2071,-0.82,1645192652.8125,P16,D07,1,1,0
2072,-0.96,1645192652.828125,P16,D07,1,1,0
2073,-1.14,1645192652.84375,P16,D07,1,1,0
2074,-1.3,1645192652.859375,P16,D07,1,1,0
2075,-1.37,1645192652.875,P16,D07,1,1,0
2076,-1.33,1645192652.890625,P16,D07,1,1,0
2077,-1.23,1645192652.90625,P16,D07,1,1,0
2078,-1.16,1645192652.921875,P16,D07,1,1,0
2079,-1.16,1645192652.9375,P16,D07,1,1,0
2080,-1.21,1645192652.953125,P16,D07,1,1,0
2081,-1.27,1645192652.96875,P16,D07,1,1,0
2082,-1.23,1645192652.984375,P16,D07,1,1,0
2083,-1.08,1645192653.0,P16,D07,1,1,0
2084,-0.86,1645192653.015625,P16,D07,1,1,0
2085,-0.64,1645192653.03125,P16,D07,1,1,0
2086,-0.53,1645192653.046875,P16,D07,1,1,0
2087,-0.5,1645192653.0625,P16,D07,1,1,0
2088,-0.47,1645192653.078125,P16,D07,1,1,0
2089,-0.36,1645192653.09375,P16,D07,1,1,0
2090,-0.08,1645192653.109375,P16,D07,1,1,0
2091,0.33,1645192653.125,P16,D07,1,1,0
2092,0.77,1645192653.140625,P16,D07,1,1,0
2093,1.13,1645192653.15625,P16,D07,1,1,0
2094,1.34,1645192653.171875,P16,D07,1,1,0
2095,1.44,1645192653.1875,P16,D07,1,1,0
2096,1.49,1645192653.203125,P16,D07,1,1,0
2097,1.57,1645192653.21875,P16,D07,1,1,0
2098,1.69,1645192653.234375,P16,D07,1,1,0
2099,1.82,1645192653.25,P16,D07,1,1,0
2100,1.92,1645192653.265625,P16,D07,1,1,0
2101,1.95,1645192653.28125,P16,D07,1,1,0
2102,1.93,1645192653.296875,P16,D07,1,1,0
2103,1.9,1645192653.3125,P16,D07,1,1,0
2104,1.9,1645192653.328125,P16,D07,1,1,0
2105,1.95,1645192653.34375,P16,D07,1,1,0
2106,2.01,1645192653.359375,P16,D07,1,1,0
2107,2.02,1645192653.375,P16,D07,1,1,0
2108,1.93,1645192653.390625,P16,D07,1,1,0
2109,1.72,1645192653.40625,P16,D07,1,1,0
2110,1.41,1645192653.421875,P16,D07,1,1,0
2111,1.03,1645192653.4375,P16,D07,1,1,0
2112,0.62,1645192653.453125,P16,D07,1,1,0
2113,0.2,1645192653.46875,P16,D07,1,1,0
2114,-0.21,1645192653.484375,P16,D07,1,1,0
2115,-0.61,1645192653.5,P16,D07,1,1,0
2116,-0.98,1645192653.515625,P16,D07,1,1,0
2117,-1.3,1645192653.53125,P16,D07,1,1,0
2118,-1.49,1645192653.546875,P16,D07,1,1,0
2119,-1.49,1645192653.5625,P16,D07,1,1,0
2120,-1.26,1645192653.578125,P16,D07,1,1,0
2121,-0.82,1645192653.59375,P16,D07,1,1,0
2122,-0.28,1645192653.609375,P16,D07,1,1,0
2123,0.22,1645192653.625,P16,D07,1,1,0
2124,0.55,1645192653.640625,P16,D07,1,1,0
2125,0.62,1645192653.65625,P16,D07,1,1,0
2126,0.46,1645192653.671875,P16,D07,1,1,0
2127,0.17,1645192653.6875,P16,D07,1,1,0
2128,-0.09,1645192653.703125,P16,D07,1,1,0
2129,-0.17,1645192653.71875,P16,D07,1,1,0
2130,0.0,1645192653.734375,P16,D07,1,1,0
2131,0.39,1645192653.75,P16,D07,1,1,0
2132,0.88,1645192653.765625,P16,D07,1,1,0
2133,1.32,1645192653.78125,P16,D07,1,1,0
2134,1.61,1645192653.796875,P16,D07,1,1,0
2135,1.71,1645192653.8125,P16,D07,1,1,0
2136,1.67,1645192653.828125,P16,D07,1,1,0
2137,1.57,1645192653.84375,P16,D07,1,1,0
2138,1.46,1645192653.859375,P16,D07,1,1,0
2139,1.35,1645192653.875,P16,D07,1,1,0
2140,1.21,1645192653.890625,P16,D07,1,1,0
2141,1.01,1645192653.90625,P16,D07,1,1,0
2142,0.74,1645192653.921875,P16,D07,1,1,0
2143,0.43,1645192653.9375,P16,D07,1,1,0
2144,0.12,1645192653.953125,P16,D07,1,1,0
2145,-0.17,1645192653.96875,P16,D07,1,1,0
2146,-0.42,1645192653.984375,P16,D07,1,1,0
2147,-0.67,1645192654.0,P16,D07,1,1,0
2148,-0.95,1645192654.015625,P16,D07,1,1,0
2149,-1.26,1645192654.03125,P16,D07,1,1,0
2150,-1.62,1645192654.046875,P16,D07,1,1,0
2151,-1.98,1645192654.0625,P16,D07,1,1,0
2152,-2.34,1645192654.078125,P16,D07,1,1,0
2153,-2.68,1645192654.09375,P16,D07,1,1,0
2154,-2.98,1645192654.109375,P16,D07,1,1,0
2155,-3.19,1645192654.125,P16,D07,1,1,0
2156,-3.27,1645192654.140625,P16,D07,1,1,0
2157,-3.14,1645192654.15625,P16,D07,1,1,0
2158,-2.83,1645192654.171875,P16,D07,1,1,0
2159,-2.39,1645192654.1875,P16,D07,1,1,0
2160,-1.93,1645192654.203125,P16,D07,1,1,0
2161,-1.59,1645192654.21875,P16,D07,1,1,0
2162,-1.41,1645192654.234375,P16,D07,1,1,0
2163,-1.39,1645192654.25,P16,D07,1,1,0
2164,-1.47,1645192654.265625,P16,D07,1,1,0
2165,-1.57,1645192654.28125,P16,D07,1,1,0
2166,-1.67,1645192654.296875,P16,D07,1,1,0
2167,-1.77,1645192654.3125,P16,D07,1,1,0
2168,-1.85,1645192654.328125,P16,D07,1,1,0
2169,-1.87,1645192654.34375,P16,D07,1,1,0
2170,-1.77,1645192654.359375,P16,D07,1,1,0
2171,-1.51,1645192654.375,P16,D07,1,1,0
2172,-1.11,1645192654.390625,P16,D07,1,1,0
2173,-0.67,1645192654.40625,P16,D07,1,1,0
2174,-0.31,1645192654.421875,P16,D07,1,1,0
2175,-0.08,1645192654.4375,P16,D07,1,1,0
2176,-0.0,1645192654.453125,P16,D07,1,1,0
2177,-0.01,1645192654.46875,P16,D07,1,1,0
2178,-0.05,1645192654.484375,P16,D07,1,1,0
2179,-0.08,1645192654.5,P16,D07,1,1,0
2180,-0.13,1645192654.515625,P16,D07,1,1,0
2181,-0.23,1645192654.53125,P16,D07,1,1,0
2182,-0.42,1645192654.546875,P16,D07,1,1,0
2183,-0.66,1645192654.5625,P16,D07,1,1,0
2184,-0.85,1645192654.578125,P16,D07,1,1,0
2185,-0.9,1645192654.59375,P16,D07,1,1,0
2186,-0.74,1645192654.609375,P16,D07,1,1,0
2187,-0.37,1645192654.625,P16,D07,1,1,0
2188,0.1,1645192654.640625,P16,D07,1,1,0
2189,0.54,1645192654.65625,P16,D07,1,1,0
2190,0.85,1645192654.671875,P16,D07,1,1,0
2191,0.98,1645192654.6875,P16,D07,1,1,0
2192,0.99,1645192654.703125,P16,D07,1,1,0
2193,0.95,1645192654.71875,P16,D07,1,1,0
2194,0.92,1645192654.734375,P16,D07,1,1,0
2195,0.88,1645192654.75,P16,D07,1,1,0
2196,0.78,1645192654.765625,P16,D07,1,1,0
2197,0.56,1645192654.78125,P16,D07,1,1,0
2198,0.22,1645192654.796875,P16,D07,1,1,0
2199,-0.19,1645192654.8125,P16,D07,1,1,0
2200,-0.54,1645192654.828125,P16,D07,1,1,0
2201,-0.77,1645192654.84375,P16,D07,1,1,0
2202,-0.85,1645192654.859375,P16,D07,1,1,0
2203,-0.83,1645192654.875,P16,D07,1,1,0
2204,-0.76,1645192654.890625,P16,D07,1,1,0
2205,-0.67,1645192654.90625,P16,D07,1,1,0
2206,-0.6,1645192654.921875,P16,D07,1,1,0
2207,-0.56,1645192654.9375,P16,D07,1,1,0
2208,-0.59,1645192654.953125,P16,D07,1,1,0
2209,-0.68,1645192654.96875,P16,D07,1,1,0
2210,-0.86,1645192654.984375,P16,D07,1,1,0
2211,-1.07,1645192655.0,P16,D07,1,1,0
2212,-1.23,1645192655.015625,P16,D07,1,1,0
2213,-1.26,1645192655.03125,P16,D07,1,1,0
2214,-1.1,1645192655.046875,P16,D07,1,1,0
2215,-0.74,1645192655.0625,P16,D07,1,1,0
2216,-0.25,1645192655.078125,P16,D07,1,1,0
2217,0.27,1645192655.09375,P16,D07,1,1,0
2218,0.73,1645192655.109375,P16,D07,1,1,0
2219,1.06,1645192655.125,P16,D07,1,1,0
2220,1.25,1645192655.140625,P16,D07,1,1,0
2221,1.3,1645192655.15625,P16,D07,1,1,0
2222,1.27,1645192655.171875,P16,D07,1,1,0
2223,1.2,1645192655.1875,P16,D07,1,1,0
2224,1.15,1645192655.203125,P16,D07,1,1,0
2225,1.17,1645192655.21875,P16,D07,1,1,0
2226,1.24,1645192655.234375,P16,D07,1,1,0
2227,1.36,1645192655.25,P16,D07,1,1,0
2228,1.45,1645192655.265625,P16,D07,1,1,0
2229,1.45,1645192655.28125,P16,D07,1,1,0
2230,1.29,1645192655.296875,P16,D07,1,1,0
2231,0.95,1645192655.3125,P16,D07,1,1,0
2232,0.52,1645192655.328125,P16,D07,1,1,0
2233,0.11,1645192655.34375,P16,D07,1,1,0
2234,-0.15,1645192655.359375,P16,D07,1,1,0
2235,-0.18,1645192655.375,P16,D07,1,1,0
2236,-0.02,1645192655.390625,P16,D07,1,1,0
2237,0.22,1645192655.40625,P16,D07,1,1,0
2238,0.43,1645192655.421875,P16,D07,1,1,0
2239,0.56,1645192655.4375,P16,D07,1,1,0
2240,0.63,1645192655.453125,P16,D07,1,1,0
2241,0.68,1645192655.46875,P16,D07,1,1,0
2242,0.76,1645192655.484375,P16,D07,1,1,0
2243,0.85,1645192655.5,P16,D07,1,1,0
2244,0.9,1645192655.515625,P16,D07,1,1,0
2245,0.87,1645192655.53125,P16,D07,1,1,0
2246,0.74,1645192655.546875,P16,D07,1,1,0
2247,0.53,1645192655.5625,P16,D07,1,1,0
2248,0.27,1645192655.578125,P16,D07,1,1,0
2249,0.02,1645192655.59375,P16,D07,1,1,0
2250,-0.2,1645192655.609375,P16,D07,1,1,0
2251,-0.36,1645192655.625,P16,D07,1,1,0
2252,-0.42,1645192655.640625,P16,D07,1,1,0
2253,-0.35,1645192655.65625,P16,D07,1,1,0
2254,-0.14,1645192655.671875,P16,D07,1,1,0
2255,0.15,1645192655.6875,P16,D07,1,1,0
2256,0.47,1645192655.703125,P16,D07,1,1,0
2257,0.74,1645192655.71875,P16,D07,1,1,0
2258,0.93,1645192655.734375,P16,D07,1,1,0
2259,1.05,1645192655.75,P16,D07,1,1,0
2260,1.13,1645192655.765625,P16,D07,1,1,0
2261,1.18,1645192655.78125,P16,D07,1,1,0
2262,1.21,1645192655.796875,P16,D07,1,1,0
2263,1.23,1645192655.8125,P16,D07,1,1,0
2264,1.22,1645192655.828125,P16,D07,1,1,0
2265,1.22,1645192655.84375,P16,D07,1,1,0
2266,1.23,1645192655.859375,P16,D07,1,1,0
2267,1.26,1645192655.875,P16,D07,1,1,0
2268,1.3,1645192655.890625,P16,D07,1,1,0
2269,1.3,1645192655.90625,P16,D07,1,1,0
2270,1.25,1645192655.921875,P16,D07,1,1,0
2271,1.11,1645192655.9375,P16,D07,1,1,0
2272,0.89,1645192655.953125,P16,D07,1,1,0
2273,0.61,1645192655.96875,P16,D07,1,1,0
2274,0.31,1645192655.984375,P16,D07,1,1,0
2275,0.07,1645192656.0,P16,D07,1,1,0
2276,-0.07,1645192656.015625,P16,D07,1,1,0
2277,-0.06,1645192656.03125,P16,D07,1,1,0
2278,0.1,1645192656.046875,P16,D07,1,1,0
2279,0.36,1645192656.0625,P16,D07,1,1,0
2280,0.64,1645192656.078125,P16,D07,1,1,0
2281,0.82,1645192656.09375,P16,D07,1,1,0
2282,0.83,1645192656.109375,P16,D07,1,1,0
2283,0.65,1645192656.125,P16,D07,1,1,0
2284,0.31,1645192656.140625,P16,D07,1,1,0
2285,-0.09,1645192656.15625,P16,D07,1,1,0
2286,-0.47,1645192656.171875,P16,D07,1,1,0
2287,-0.76,1645192656.1875,P16,D07,1,1,0
2288,-0.92,1645192656.203125,P16,D07,1,1,0
2289,-0.95,1645192656.21875,P16,D07,1,1,0
2290,-0.87,1645192656.234375,P16,D07,1,1,0
2291,-0.72,1645192656.25,P16,D07,1,1,0
2292,-0.57,1645192656.265625,P16,D07,1,1,0
2293,-0.45,1645192656.28125,P16,D07,1,1,0
2294,-0.4,1645192656.296875,P16,D07,1,1,0
2295,-0.4,1645192656.3125,P16,D07,1,1,0
2296,-0.4,1645192656.328125,P16,D07,1,1,0
2297,-0.39,1645192656.34375,P16,D07,1,1,0
2298,-0.36,1645192656.359375,P16,D07,1,1,0
2299,-0.33,1645192656.375,P16,D07,1,1,0
2300,-0.32,1645192656.390625,P16,D07,1,1,0
2301,-0.34,1645192656.40625,P16,D07,1,1,0
2302,-0.36,1645192656.421875,P16,D07,1,1,0
2303,-0.36,1645192656.4375,P16,D07,1,1,0
2304,-0.32,1645192656.453125,P16,D07,1,1,0
2305,-0.26,1645192656.46875,P16,D07,1,1,0
2306,-0.24,1645192656.484375,P16,D07,1,1,0
2307,-0.28,1645192656.5,P16,D07,1,1,0
2308,-0.41,1645192656.515625,P16,D07,1,1,0
2309,-0.62,1645192656.53125,P16,D07,1,1,0
2310,-0.86,1645192656.546875,P16,D07,1,1,0
2311,-1.08,1645192656.5625,P16,D07,1,1,0
2312,-1.21,1645192656.578125,P16,D07,1,1,0
2313,-1.24,1645192656.59375,P16,D07,1,1,0
2314,-1.17,1645192656.609375,P16,D07,1,1,0
2315,-1.02,1645192656.625,P16,D07,1,1,0
2316,-0.87,1645192656.640625,P16,D07,1,1,0
2317,-0.8,1645192656.65625,P16,D07,1,1,0
2318,-0.82,1645192656.671875,P16,D07,1,1,0
2319,-0.91,1645192656.6875,P16,D07,1,1,0
2320,-0.97,1645192656.703125,P16,D07,1,1,0
2321,-0.91,1645192656.71875,P16,D07,1,1,0
2322,-0.71,1645192656.734375,P16,D07,1,1,0
2323,-0.41,1645192656.75,P16,D07,1,1,0
2324,-0.14,1645192656.765625,P16,D07,1,1,0
2325,-0.02,1645192656.78125,P16,D07,1,1,0
2326,-0.07,1645192656.796875,P16,D07,1,1,0
2327,-0.23,1645192656.8125,P16,D07,1,1,0
2328,-0.39,1645192656.828125,P16,D07,1,1,0
2329,-0.44,1645192656.84375,P16,D07,1,1,0
2330,-0.36,1645192656.859375,P16,D07,1,1,0
2331,-0.23,1645192656.875,P16,D07,1,1,0
2332,-0.13,1645192656.890625,P16,D07,1,1,0
2333,-0.13,1645192656.90625,P16,D07,1,1,0
2334,-0.2,1645192656.921875,P16,D07,1,1,0
2335,-0.25,1645192656.9375,P16,D07,1,1,0
2336,-0.18,1645192656.953125,P16,D07,1,1,0
2337,0.03,1645192656.96875,P16,D07,1,1,0
2338,0.32,1645192656.984375,P16,D07,1,1,0
2339,0.55,1645192657.0,P16,D07,1,1,0
2340,0.59,1645192657.015625,P16,D07,1,1,0
2341,0.41,1645192657.03125,P16,D07,1,1,0
2342,0.07,1645192657.046875,P16,D07,1,1,0
2343,-0.3,1645192657.0625,P16,D07,1,1,0
2344,-0.56,1645192657.078125,P16,D07,1,1,0
2345,-0.63,1645192657.09375,P16,D07,1,1,0
2346,-0.52,1645192657.109375,P16,D07,1,1,0
2347,-0.32,1645192657.125,P16,D07,1,1,0
2348,-0.14,1645192657.140625,P16,D07,1,1,0
2349,-0.03,1645192657.15625,P16,D07,1,1,0
2350,0.0,1645192657.171875,P16,D07,1,1,0
2351,0.01,1645192657.1875,P16,D07,1,1,0
2352,0.04,1645192657.203125,P16,D07,1,1,0
2353,0.07,1645192657.21875,P16,D07,1,1,0
2354,0.09,1645192657.234375,P16,D07,1,1,0
2355,0.04,1645192657.25,P16,D07,1,1,0
2356,-0.12,1645192657.265625,P16,D07,1,1,0
2357,-0.34,1645192657.28125,P16,D07,1,1,0
2358,-0.58,1645192657.296875,P16,D07,1,1,0
2359,-0.77,1645192657.3125,P16,D07,1,1,0
2360,-0.89,1645192657.328125,P16,D07,1,1,0
2361,-0.94,1645192657.34375,P16,D07,1,1,0
2362,-0.94,1645192657.359375,P16,D07,1,1,0
2363,-0.92,1645192657.375,P16,D07,1,1,0
2364,-0.86,1645192657.390625,P16,D07,1,1,0
2365,-0.75,1645192657.40625,P16,D07,1,1,0
2366,-0.56,1645192657.421875,P16,D07,1,1,0
2367,-0.32,1645192657.4375,P16,D07,1,1,0
2368,-0.07,1645192657.453125,P16,D07,1,1,0
2369,0.11,1645192657.46875,P16,D07,1,1,0
2370,0.17,1645192657.484375,P16,D07,1,1,0
2371,0.12,1645192657.5,P16,D07,1,1,0
2372,0.02,1645192657.515625,P16,D07,1,1,0
2373,-0.04,1645192657.53125,P16,D07,1,1,0
2374,-0.0,1645192657.546875,P16,D07,1,1,0
2375,0.11,1645192657.5625,P16,D07,1,1,0
2376,0.23,1645192657.578125,P16,D07,1,1,0
2377,0.26,1645192657.59375,P16,D07,1,1,0
2378,0.12,1645192657.609375,P16,D07,1,1,0
2379,-0.16,1645192657.625,P16,D07,1,1,0
2380,-0.48,1645192657.640625,P16,D07,1,1,0
2381,-0.7,1645192657.65625,P16,D07,1,1,0
2382,-0.72,1645192657.671875,P16,D07,1,1,0
2383,-0.51,1645192657.6875,P16,D07,1,1,0
2384,-0.13,1645192657.703125,P16,D07,1,1,0
2385,0.28,1645192657.71875,P16,D07,1,1,0
2386,0.63,1645192657.734375,P16,D07,1,1,0
2387,0.84,1645192657.75,P16,D07,1,1,0
2388,0.89,1645192657.765625,P16,D07,1,1,0
2389,0.83,1645192657.78125,P16,D07,1,1,0
2390,0.7,1645192657.796875,P16,D07,1,1,0
2391,0.53,1645192657.8125,P16,D07,1,1,0
2392,0.36,1645192657.828125,P16,D07,1,1,0
2393,0.18,1645192657.84375,P16,D07,1,1,0
2394,0.05,1645192657.859375,P16,D07,1,1,0
2395,-0.01,1645192657.875,P16,D07,1,1,0
2396,0.02,1645192657.890625,P16,D07,1,1,0
2397,0.14,1645192657.90625,P16,D07,1,1,0
2398,0.3,1645192657.921875,P16,D07,1,1,0
2399,0.45,1645192657.9375,P16,D07,1,1,0
2400,0.54,1645192657.953125,P16,D07,1,1,0
2401,0.56,1645192657.96875,P16,D07,1,1,0
2402,0.49,1645192657.984375,P16,D07,1,1,0
2403,0.37,1645192658.0,P16,D07,1,1,0
2404,0.21,1645192658.015625,P16,D07,1,1,0
2405,0.01,1645192658.03125,P16,D07,1,1,0
2406,-0.2,1645192658.046875,P16,D07,1,1,0
2407,-0.4,1645192658.0625,P16,D07,1,1,0
2408,-0.55,1645192658.078125,P16,D07,1,1,0
2409,-0.65,1645192658.09375,P16,D07,1,1,0
2410,-0.7,1645192658.109375,P16,D07,1,1,0
2411,-0.75,1645192658.125,P16,D07,1,1,0
2412,-0.81,1645192658.140625,P16,D07,1,1,0
2413,-0.86,1645192658.15625,P16,D07,1,1,0
2414,-0.81,1645192658.171875,P16,D07,1,1,0
2415,-0.61,1645192658.1875,P16,D07,1,1,0
2416,-0.24,1645192658.203125,P16,D07,1,1,0
2417,0.22,1645192658.21875,P16,D07,1,1,0
2418,0.63,1645192658.234375,P16,D07,1,1,0
2419,0.87,1645192658.25,P16,D07,1,1,0
2420,0.85,1645192658.265625,P16,D07,1,1,0
2421,0.63,1645192658.28125,P16,D07,1,1,0
2422,0.32,1645192658.296875,P16,D07,1,1,0
2423,0.05,1645192658.3125,P16,D07,1,1,0
2424,-0.09,1645192658.328125,P16,D07,1,1,0
2425,-0.09,1645192658.34375,P16,D07,1,1,0
2426,0.02,1645192658.359375,P16,D07,1,1,0
2427,0.2,1645192658.375,P16,D07,1,1,0
2428,0.45,1645192658.390625,P16,D07,1,1,0
2429,0.74,1645192658.40625,P16,D07,1,1,0
2430,1.02,1645192658.421875,P16,D07,1,1,0
2431,1.25,1645192658.4375,P16,D07,1,1,0
2432,1.35,1645192658.453125,P16,D07,1,1,0
2433,1.32,1645192658.46875,P16,D07,1,1,0
2434,1.16,1645192658.484375,P16,D07,1,1,0
2435,0.92,1645192658.5,P16,D07,1,1,0
2436,0.64,1645192658.515625,P16,D07,1,1,0
2437,0.35,1645192658.53125,P16,D07,1,1,0
2438,0.07,1645192658.546875,P16,D07,1,1,0
2439,-0.17,1645192658.5625,P16,D07,1,1,0
2440,-0.29,1645192658.578125,P16,D07,1,1,0
2441,-0.24,1645192658.59375,P16,D07,1,1,0
2442,0.0,1645192658.609375,P16,D07,1,1,0
2443,0.41,1645192658.625,P16,D07,1,1,0
2444,0.88,1645192658.640625,P16,D07,1,1,0
2445,1.27,1645192658.65625,P16,D07,1,1,0
2446,1.47,1645192658.671875,P16,D07,1,1,0
2447,1.45,1645192658.6875,P16,D07,1,1,0
2448,1.25,1645192658.703125,P16,D07,1,1,0
2449,0.97,1645192658.71875,P16,D07,1,1,0
2450,0.7,1645192658.734375,P16,D07,1,1,0
2451,0.5,1645192658.75,P16,D07,1,1,0
2452,0.4,1645192658.765625,P16,D07,1,1,0
2453,0.39,1645192658.78125,P16,D07,1,1,0
2454,0.46,1645192658.796875,P16,D07,1,1,0
2455,0.58,1645192658.8125,P16,D07,1,1,0
2456,0.75,1645192658.828125,P16,D07,1,1,0
2457,0.93,1645192658.84375,P16,D07,1,1,0
2458,1.08,1645192658.859375,P16,D07,1,1,0
2459,1.14,1645192658.875,P16,D07,1,1,0
2460,1.06,1645192658.890625,P16,D07,1,1,0
2461,0.83,1645192658.90625,P16,D07,1,1,0
2462,0.48,1645192658.921875,P16,D07,1,1,0
2463,0.12,1645192658.9375,P16,D07,1,1,0
2464,-0.12,1645192658.953125,P16,D07,1,1,0
2465,-0.16,1645192658.96875,P16,D07,1,1,0
2466,0.01,1645192658.984375,P16,D07,1,1,0
2467,0.34,1645192659.0,P16,D07,1,1,0
2468,0.68,1645192659.015625,P16,D07,1,1,0
2469,0.93,1645192659.03125,P16,D07,1,1,0
2470,1.01,1645192659.046875,P16,D07,1,1,0
2471,0.91,1645192659.0625,P16,D07,1,1,0
2472,0.66,1645192659.078125,P16,D07,1,1,0
2473,0.33,1645192659.09375,P16,D07,1,1,0
2474,-0.05,1645192659.109375,P16,D07,1,1,0
2475,-0.46,1645192659.125,P16,D07,1,1,0
2476,-0.87,1645192659.140625,P16,D07,1,1,0
2477,-1.24,1645192659.15625,P16,D07,1,1,0
2478,-1.53,1645192659.171875,P16,D07,1,1,0
2479,-1.7,1645192659.1875,P16,D07,1,1,0
2480,-1.71,1645192659.203125,P16,D07,1,1,0
2481,-1.54,1645192659.21875,P16,D07,1,1,0
2482,-1.25,1645192659.234375,P16,D07,1,1,0
2483,-0.88,1645192659.25,P16,D07,1,1,0
2484,-0.53,1645192659.265625,P16,D07,1,1,0
2485,-0.3,1645192659.28125,P16,D07,1,1,0
2486,-0.28,1645192659.296875,P16,D07,1,1,0
2487,-0.48,1645192659.3125,P16,D07,1,1,0
2488,-0.87,1645192659.328125,P16,D07,1,1,0
2489,-1.34,1645192659.34375,P16,D07,1,1,0
2490,-1.73,1645192659.359375,P16,D07,1,1,0
2491,-1.95,1645192659.375,P16,D07,1,1,0
2492,-1.92,1645192659.390625,P16,D07,1,1,0
2493,-1.69,1645192659.40625,P16,D07,1,1,0
2494,-1.34,1645192659.421875,P16,D07,1,1,0
2495,-0.95,1645192659.4375,P16,D07,1,1,0
2496,-0.56,1645192659.453125,P16,D07,1,1,0
2497,-0.14,1645192659.46875,P16,D07,1,1,0
2498,0.35,1645192659.484375,P16,D07,1,1,0
2499,0.88,1645192659.5,P16,D07,1,1,0
2500,1.35,1645192659.515625,P16,D07,1,1,0
2501,1.63,1645192659.53125,P16,D07,1,1,0
2502,1.6,1645192659.546875,P16,D07,1,1,0
2503,1.23,1645192659.5625,P16,D07,1,1,0
2504,0.63,1645192659.578125,P16,D07,1,1,0
2505,-0.03,1645192659.59375,P16,D07,1,1,0
2506,-0.59,1645192659.609375,P16,D07,1,1,0
2507,-0.95,1645192659.625,P16,D07,1,1,0
2508,-1.08,1645192659.640625,P16,D07,1,1,0
2509,-1.0,1645192659.65625,P16,D07,1,1,0
2510,-0.77,1645192659.671875,P16,D07,1,1,0
2511,-0.43,1645192659.6875,P16,D07,1,1,0
2512,-0.04,1645192659.703125,P16,D07,1,1,0
2513,0.3,1645192659.71875,P16,D07,1,1,0
2514,0.5,1645192659.734375,P16,D07,1,1,0
2515,0.47,1645192659.75,P16,D07,1,1,0
2516,0.2,1645192659.765625,P16,D07,1,1,0
2517,-0.22,1645192659.78125,P16,D07,1,1,0
2518,-0.65,1645192659.796875,P16,D07,1,1,0
2519,-0.95,1645192659.8125,P16,D07,1,1,0
2520,-1.03,1645192659.828125,P16,D07,1,1,0
2521,-0.87,1645192659.84375,P16,D07,1,1,0
2522,-0.56,1645192659.859375,P16,D07,1,1,0
2523,-0.22,1645192659.875,P16,D07,1,1,0
2524,0.01,1645192659.890625,P16,D07,1,1,0
2525,0.06,1645192659.90625,P16,D07,1,1,0
2526,-0.06,1645192659.921875,P16,D07,1,1,0
2527,-0.29,1645192659.9375,P16,D07,1,1,0
2528,-0.51,1645192659.953125,P16,D07,1,1,0
2529,-0.63,1645192659.96875,P16,D07,1,1,0
2530,-0.63,1645192659.984375,P16,D07,1,1,0
2531,-0.52,1645192660.0,P16,D07,1,1,0
2532,-0.36,1645192660.015625,P16,D07,1,1,0
2533,-0.19,1645192660.03125,P16,D07,1,1,0
2534,-0.0,1645192660.046875,P16,D07,1,1,0
2535,0.21,1645192660.0625,P16,D07,1,1,0
2536,0.44,1645192660.078125,P16,D07,1,1,0
2537,0.61,1645192660.09375,P16,D07,1,1,0
2538,0.64,1645192660.109375,P16,D07,1,1,0
2539,0.44,1645192660.125,P16,D07,1,1,0
2540,0.07,1645192660.140625,P16,D07,1,1,0
2541,-0.33,1645192660.15625,P16,D07,1,1,0
2542,-0.59,1645192660.171875,P16,D07,1,1,0
2543,-0.58,1645192660.1875,P16,D07,1,1,0
2544,-0.31,1645192660.203125,P16,D07,1,1,0
2545,0.09,1645192660.21875,P16,D07,1,1,0
2546,0.45,1645192660.234375,P16,D07,1,1,0
2547,0.64,1645192660.25,P16,D07,1,1,0
2548,0.65,1645192660.265625,P16,D07,1,1,0
2549,0.55,1645192660.28125,P16,D07,1,1,0
2550,0.46,1645192660.296875,P16,D07,1,1,0
2551,0.46,1645192660.3125,P16,D07,1,1,0
2552,0.54,1645192660.328125,P16,D07,1,1,0
2553,0.65,1645192660.34375,P16,D07,1,1,0
2554,0.69,1645192660.359375,P16,D07,1,1,0
2555,0.62,1645192660.375,P16,D07,1,1,0
2556,0.46,1645192660.390625,P16,D07,1,1,0
2557,0.27,1645192660.40625,P16,D07,1,1,0
2558,0.13,1645192660.421875,P16,D07,1,1,0
2559,0.1,1645192660.4375,P16,D07,1,1,0
2560,0.21,1645192660.453125,P16,D07,1,1,0
2561,0.45,1645192660.46875,P16,D07,1,1,0
2562,0.78,1645192660.484375,P16,D07,1,1,0
2563,1.13,1645192660.5,P16,D07,1,1,0
2564,1.42,1645192660.515625,P16,D07,1,1,0
2565,1.57,1645192660.53125,P16,D07,1,1,0
2566,1.56,1645192660.546875,P16,D07,1,1,0
2567,1.38,1645192660.5625,P16,D07,1,1,0
2568,1.09,1645192660.578125,P16,D07,1,1,0
2569,0.75,1645192660.59375,P16,D07,1,1,0
2570,0.42,1645192660.609375,P16,D07,1,1,0
2571,0.14,1645192660.625,P16,D07,1,1,0
2572,-0.06,1645192660.640625,P16,D07,1,1,0
2573,-0.21,1645192660.65625,P16,D07,1,1,0
2574,-0.29,1645192660.671875,P16,D07,1,1,0
2575,-0.31,1645192660.6875,P16,D07,1,1,0
2576,-0.27,1645192660.703125,P16,D07,1,1,0
2577,-0.16,1645192660.71875,P16,D07,1,1,0
2578,-0.05,1645192660.734375,P16,D07,1,1,0
2579,0.02,1645192660.75,P16,D07,1,1,0
2580,-0.03,1645192660.765625,P16,D07,1,1,0
2581,-0.19,1645192660.78125,P16,D07,1,1,0
2582,-0.41,1645192660.796875,P16,D07,1,1,0
2583,-0.6,1645192660.8125,P16,D07,1,1,0
2584,-0.66,1645192660.828125,P16,D07,1,1,0
2585,-0.55,1645192660.84375,P16,D07,1,1,0
2586,-0.31,1645192660.859375,P16,D07,1,1,0
2587,-0.06,1645192660.875,P16,D07,1,1,0
2588,0.09,1645192660.890625,P16,D07,1,1,0
2589,0.05,1645192660.90625,P16,D07,1,1,0
2590,-0.2,1645192660.921875,P16,D07,1,1,0
2591,-0.54,1645192660.9375,P16,D07,1,1,0
2592,-0.86,1645192660.953125,P16,D07,1,1,0
2593,-1.04,1645192660.96875,P16,D07,1,1,0
2594,-1.05,1645192660.984375,P16,D07,1,1,0
2595,-0.94,1645192661.0,P16,D07,1,1,0
2596,-0.78,1645192661.015625,P16,D07,1,1,0
2597,-0.65,1645192661.03125,P16,D07,1,1,0
2598,-0.56,1645192661.046875,P16,D07,1,1,0
2599,-0.5,1645192661.0625,P16,D07,1,1,0
2600,-0.4,1645192661.078125,P16,D07,1,1,0
2601,-0.21,1645192661.09375,P16,D07,1,1,0
2602,0.06,1645192661.109375,P16,D07,1,1,0
2603,0.4,1645192661.125,P16,D07,1,1,0
2604,0.75,1645192661.140625,P16,D07,1,1,0
2605,1.03,1645192661.15625,P16,D07,1,1,0
2606,1.17,1645192661.171875,P16,D07,1,1,0
2607,1.17,1645192661.1875,P16,D07,1,1,0
2608,1.06,1645192661.203125,P16,D07,1,1,0
2609,0.97,1645192661.21875,P16,D07,1,1,0
2610,1.01,1645192661.234375,P16,D07,1,1,0
2611,1.26,1645192661.25,P16,D07,1,1,0
2612,1.64,1645192661.265625,P16,D07,1,1,0
2613,2.02,1645192661.28125,P16,D07,1,1,0
2614,2.22,1645192661.296875,P16,D07,1,1,0
2615,2.14,1645192661.3125,P16,D07,1,1,0
2616,1.79,1645192661.328125,P16,D07,1,1,0
2617,1.3,1645192661.34375,P16,D07,1,1,0
2618,0.87,1645192661.359375,P16,D07,1,1,0
2619,0.59,1645192661.375,P16,D07,1,1,0
2620,0.48,1645192661.390625,P16,D07,1,1,0
2621,0.46,1645192661.40625,P16,D07,1,1,0
2622,0.41,1645192661.421875,P16,D07,1,1,0
2623,0.27,1645192661.4375,P16,D07,1,1,0
2624,0.08,1645192661.453125,P16,D07,1,1,0
2625,-0.09,1645192661.46875,P16,D07,1,1,0
2626,-0.17,1645192661.484375,P16,D07,1,1,0
2627,-0.18,1645192661.5,P16,D07,1,1,0
2628,-0.15,1645192661.515625,P16,D07,1,1,0
2629,-0.14,1645192661.53125,P16,D07,1,1,0
2630,-0.19,1645192661.546875,P16,D07,1,1,0
2631,-0.25,1645192661.5625,P16,D07,1,1,0
2632,-0.26,1645192661.578125,P16,D07,1,1,0
2633,-0.19,1645192661.59375,P16,D07,1,1,0
2634,-0.03,1645192661.609375,P16,D07,1,1,0
2635,0.15,1645192661.625,P16,D07,1,1,0
2636,0.31,1645192661.640625,P16,D07,1,1,0
2637,0.4,1645192661.65625,P16,D07,1,1,0
2638,0.46,1645192661.671875,P16,D07,1,1,0
2639,0.5,1645192661.6875,P16,D07,1,1,0
2640,0.54,1645192661.703125,P16,D07,1,1,0
2641,0.57,1645192661.71875,P16,D07,1,1,0
2642,0.57,1645192661.734375,P16,D07,1,1,0
2643,0.51,1645192661.75,P16,D07,1,1,0
2644,0.38,1645192661.765625,P16,D07,1,1,0
2645,0.2,1645192661.78125,P16,D07,1,1,0
2646,0.0,1645192661.796875,P16,D07,1,1,0
2647,-0.2,1645192661.8125,P16,D07,1,1,0
2648,-0.4,1645192661.828125,P16,D07,1,1,0
2649,-0.6,1645192661.84375,P16,D07,1,1,0
2650,-0.8,1645192661.859375,P16,D07,1,1,0
2651,-0.99,1645192661.875,P16,D07,1,1,0
2652,-1.17,1645192661.890625,P16,D07,1,1,0
2653,-1.29,1645192661.90625,P16,D07,1,1,0
2654,-1.34,1645192661.921875,P16,D07,1,1,0
2655,-1.3,1645192661.9375,P16,D07,1,1,0
2656,-1.19,1645192661.953125,P16,D07,1,1,0
2657,-1.07,1645192661.96875,P16,D07,1,1,0
2658,-1.02,1645192661.984375,P16,D07,1,1,0
2659,-1.07,1645192662.0,P16,D07,1,1,0
2660,-1.21,1645192662.015625,P16,D07,1,1,0
2661,-1.36,1645192662.03125,P16,D07,1,1,0
2662,-1.4,1645192662.046875,P16,D07,1,1,0
2663,-1.26,1645192662.0625,P16,D07,1,1,0
2664,-0.91,1645192662.078125,P16,D07,1,1,0
2665,-0.43,1645192662.09375,P16,D07,1,1,0
2666,0.07,1645192662.109375,P16,D07,1,1,0
2667,0.44,1645192662.125,P16,D07,1,1,0
2668,0.58,1645192662.140625,P16,D07,1,1,0
2669,0.45,1645192662.15625,P16,D07,1,1,0
2670,0.09,1645192662.171875,P16,D07,1,1,0
2671,-0.43,1645192662.1875,P16,D07,1,1,0
2672,-0.96,1645192662.203125,P16,D07,1,1,0
2673,-1.37,1645192662.21875,P16,D07,1,1,0
2674,-1.54,1645192662.234375,P16,D07,1,1,0
2675,-1.45,1645192662.25,P16,D07,1,1,0
2676,-1.17,1645192662.265625,P16,D07,1,1,0
2677,-0.85,1645192662.28125,P16,D07,1,1,0
2678,-0.65,1645192662.296875,P16,D07,1,1,0
2679,-0.65,1645192662.3125,P16,D07,1,1,0
2680,-0.79,1645192662.328125,P16,D07,1,1,0
2681,-0.95,1645192662.34375,P16,D07,1,1,0
2682,-0.95,1645192662.359375,P16,D07,1,1,0
2683,-0.73,1645192662.375,P16,D07,1,1,0
2684,-0.34,1645192662.390625,P16,D07,1,1,0
2685,0.04,1645192662.40625,P16,D07,1,1,0
2686,0.3,1645192662.421875,P16,D07,1,1,0
2687,0.4,1645192662.4375,P16,D07,1,1,0
2688,0.39,1645192662.453125,P16,D07,1,1,0
2689,0.39,1645192662.46875,P16,D07,1,1,0
2690,0.41,1645192662.484375,P16,D07,1,1,0
2691,0.41,1645192662.5,P16,D07,1,1,0
2692,0.28,1645192662.515625,P16,D07,1,1,0
2693,-0.04,1645192662.53125,P16,D07,1,1,0
2694,-0.47,1645192662.546875,P16,D07,1,1,0
2695,-0.87,1645192662.5625,P16,D07,1,1,0
2696,-1.09,1645192662.578125,P16,D07,1,1,0
2697,-1.08,1645192662.59375,P16,D07,1,1,0
2698,-0.92,1645192662.609375,P16,D07,1,1,0
2699,-0.75,1645192662.625,P16,D07,1,1,0
2700,-0.67,1645192662.640625,P16,D07,1,1,0
2701,-0.68,1645192662.65625,P16,D07,1,1,0
2702,-0.72,1645192662.671875,P16,D07,1,1,0
2703,-0.72,1645192662.6875,P16,D07,1,1,0
2704,-0.61,1645192662.703125,P16,D07,1,1,0
2705,-0.41,1645192662.71875,P16,D07,1,1,0
2706,-0.15,1645192662.734375,P16,D07,1,1,0
2707,0.13,1645192662.75,P16,D07,1,1,0
2708,0.38,1645192662.765625,P16,D07,1,1,0
2709,0.51,1645192662.78125,P16,D07,1,1,0
2710,0.44,1645192662.796875,P16,D07,1,1,0
2711,0.14,1645192662.8125,P16,D07,1,1,0
2712,-0.33,1645192662.828125,P16,D07,1,1,0
2713,-0.84,1645192662.84375,P16,D07,1,1,0
2714,-1.19,1645192662.859375,P16,D07,1,1,0
2715,-1.27,1645192662.875,P16,D07,1,1,0
2716,-1.07,1645192662.890625,P16,D07,1,1,0
2717,-0.71,1645192662.90625,P16,D07,1,1,0
2718,-0.34,1645192662.921875,P16,D07,1,1,0
2719,-0.08,1645192662.9375,P16,D07,1,1,0
2720,0.04,1645192662.953125,P16,D07,1,1,0
2721,0.08,1645192662.96875,P16,D07,1,1,0
2722,0.09,1645192662.984375,P16,D07,1,1,0
2723,0.13,1645192663.0,P16,D07,1,1,0
2724,0.21,1645192663.015625,P16,D07,1,1,0
2725,0.31,1645192663.03125,P16,D07,1,1,0
2726,0.42,1645192663.046875,P16,D07,1,1,0
2727,0.51,1645192663.0625,P16,D07,1,1,0
2728,0.56,1645192663.078125,P16,D07,1,1,0
2729,0.57,1645192663.09375,P16,D07,1,1,0
2730,0.53,1645192663.109375,P16,D07,1,1,0
2731,0.49,1645192663.125,P16,D07,1,1,0
2732,0.49,1645192663.140625,P16,D07,1,1,0
2733,0.57,1645192663.15625,P16,D07,1,1,0
2734,0.69,1645192663.171875,P16,D07,1,1,0
2735,0.8,1645192663.1875,P16,D07,1,1,0
2736,0.85,1645192663.203125,P16,D07,1,1,0
2737,0.82,1645192663.21875,P16,D07,1,1,0
2738,0.75,1645192663.234375,P16,D07,1,1,0
2739,0.74,1645192663.25,P16,D07,1,1,0
2740,0.82,1645192663.265625,P16,D07,1,1,0
2741,0.97,1645192663.28125,P16,D07,1,1,0
2742,1.09,1645192663.296875,P16,D07,1,1,0
2743,1.09,1645192663.3125,P16,D07,1,1,0
2744,0.95,1645192663.328125,P16,D07,1,1,0
2745,0.71,1645192663.34375,P16,D07,1,1,0
2746,0.49,1645192663.359375,P16,D07,1,1,0
2747,0.39,1645192663.375,P16,D07,1,1,0
2748,0.42,1645192663.390625,P16,D07,1,1,0
2749,0.51,1645192663.40625,P16,D07,1,1,0
2750,0.58,1645192663.421875,P16,D07,1,1,0
2751,0.56,1645192663.4375,P16,D07,1,1,0
2752,0.48,1645192663.453125,P16,D07,1,1,0
2753,0.4,1645192663.46875,P16,D07,1,1,0
2754,0.4,1645192663.484375,P16,D07,1,1,0
2755,0.47,1645192663.5,P16,D07,1,1,0
2756,0.58,1645192663.515625,P16,D07,1,1,0
2757,0.69,1645192663.53125,P16,D07,1,1,0
2758,0.74,1645192663.546875,P16,D07,1,1,0
2759,0.74,1645192663.5625,P16,D07,1,1,0
2760,0.7,1645192663.578125,P16,D07,1,1,0
2761,0.65,1645192663.59375,P16,D07,1,1,0
2762,0.61,1645192663.609375,P16,D07,1,1,0
2763,0.58,1645192663.625,P16,D07,1,1,0
2764,0.55,1645192663.640625,P16,D07,1,1,0
2765,0.51,1645192663.65625,P16,D07,1,1,0
2766,0.42,1645192663.671875,P16,D07,1,1,0
2767,0.28,1645192663.6875,P16,D07,1,1,0
2768,0.08,1645192663.703125,P16,D07,1,1,0
2769,-0.14,1645192663.71875,P16,D07,1,1,0
2770,-0.31,1645192663.734375,P16,D07,1,1,0
2771,-0.35,1645192663.75,P16,D07,1,1,0
2772,-0.2,1645192663.765625,P16,D07,1,1,0
2773,0.08,1645192663.78125,P16,D07,1,1,0
2774,0.41,1645192663.796875,P16,D07,1,1,0
2775,0.63,1645192663.8125,P16,D07,1,1,0
2776,0.6,1645192663.828125,P16,D07,1,1,0
2777,0.31,1645192663.84375,P16,D07,1,1,0
2778,-0.17,1645192663.859375,P16,D07,1,1,0
2779,-0.65,1645192663.875,P16,D07,1,1,0
2780,-0.96,1645192663.890625,P16,D07,1,1,0
2781,-0.96,1645192663.90625,P16,D07,1,1,0
2782,-0.64,1645192663.921875,P16,D07,1,1,0
2783,-0.1,1645192663.9375,P16,D07,1,1,0
2784,0.48,1645192663.953125,P16,D07,1,1,0
2785,0.95,1645192663.96875,P16,D07,1,1,0
2786,1.21,1645192663.984375,P16,D07,1,1,0
2787,1.27,1645192664.0,P16,D07,1,1,0
2788,1.2,1645192664.015625,P16,D07,1,1,0
2789,1.07,1645192664.03125,P16,D07,1,1,0
2790,0.91,1645192664.046875,P16,D07,1,1,0
2791,0.7,1645192664.0625,P16,D07,1,1,0
2792,0.43,1645192664.078125,P16,D07,1,1,0
2793,0.12,1645192664.09375,P16,D07,1,1,0
2794,-0.13,1645192664.109375,P16,D07,1,1,0
2795,-0.23,1645192664.125,P16,D07,1,1,0
2796,-0.12,1645192664.140625,P16,D07,1,1,0
2797,0.14,1645192664.15625,P16,D07,1,1,0
2798,0.43,1645192664.171875,P16,D07,1,1,0
2799,0.59,1645192664.1875,P16,D07,1,1,0
2800,0.54,1645192664.203125,P16,D07,1,1,0
2801,0.3,1645192664.21875,P16,D07,1,1,0
2802,0.0,1645192664.234375,P16,D07,1,1,0
2803,-0.19,1645192664.25,P16,D07,1,1,0
2804,-0.19,1645192664.265625,P16,D07,1,1,0
2805,-0.01,1645192664.28125,P16,D07,1,1,0
2806,0.24,1645192664.296875,P16,D07,1,1,0
2807,0.43,1645192664.3125,P16,D07,1,1,0
2808,0.5,1645192664.328125,P16,D07,1,1,0
2809,0.45,1645192664.34375,P16,D07,1,1,0
2810,0.32,1645192664.359375,P16,D07,1,1,0
2811,0.19,1645192664.375,P16,D07,1,1,0
2812,0.09,1645192664.390625,P16,D07,1,1,0
2813,0.01,1645192664.40625,P16,D07,1,1,0
2814,-0.07,1645192664.421875,P16,D07,1,1,0
2815,-0.17,1645192664.4375,P16,D07,1,1,0
2816,-0.26,1645192664.453125,P16,D07,1,1,0
2817,-0.31,1645192664.46875,P16,D07,1,1,0
2818,-0.26,1645192664.484375,P16,D07,1,1,0
2819,-0.13,1645192664.5,P16,D07,1,1,0
2820,0.0,1645192664.515625,P16,D07,1,1,0
2821,0.01,1645192664.53125,P16,D07,1,1,0
2822,-0.19,1645192664.546875,P16,D07,1,1,0
2823,-0.61,1645192664.5625,P16,D07,1,1,0
2824,-1.14,1645192664.578125,P16,D07,1,1,0
2825,-1.65,1645192664.59375,P16,D07,1,1,0
2826,-1.99,1645192664.609375,P16,D07,1,1,0
2827,-2.08,1645192664.625,P16,D07,1,1,0
2828,-1.95,1645192664.640625,P16,D07,1,1,0
2829,-1.67,1645192664.65625,P16,D07,1,1,0
2830,-1.36,1645192664.671875,P16,D07,1,1,0
2831,-1.1,1645192664.6875,P16,D07,1,1,0
2832,-0.89,1645192664.703125,P16,D07,1,1,0
2833,-0.71,1645192664.71875,P16,D07,1,1,0
2834,-0.51,1645192664.734375,P16,D07,1,1,0
2835,-0.25,1645192664.75,P16,D07,1,1,0
2836,0.1,1645192664.765625,P16,D07,1,1,0
2837,0.51,1645192664.78125,P16,D07,1,1,0
2838,0.94,1645192664.796875,P16,D07,1,1,0
2839,1.3,1645192664.8125,P16,D07,1,1,0
2840,1.53,1645192664.828125,P16,D07,1,1,0
2841,1.54,1645192664.84375,P16,D07,1,1,0
2842,1.32,1645192664.859375,P16,D07,1,1,0
2843,0.93,1645192664.875,P16,D07,1,1,0
2844,0.42,1645192664.890625,P16,D07,1,1,0
2845,-0.11,1645192664.90625,P16,D07,1,1,0
2846,-0.6,1645192664.921875,P16,D07,1,1,0
2847,-1.04,1645192664.9375,P16,D07,1,1,0
2848,-1.42,1645192664.953125,P16,D07,1,1,0
2849,-1.73,1645192664.96875,P16,D07,1,1,0
2850,-1.95,1645192664.984375,P16,D07,1,1,0
2851,-2.05,1645192665.0,P16,D07,1,1,0
2852,-2.01,1645192665.015625,P16,D07,1,1,0
2853,-1.86,1645192665.03125,P16,D07,1,1,0
2854,-1.67,1645192665.046875,P16,D07,1,1,0
2855,-1.53,1645192665.0625,P16,D07,1,1,0
2856,-1.5,1645192665.078125,P16,D07,1,1,0
2857,-1.6,1645192665.09375,P16,D07,1,1,0
2858,-1.78,1645192665.109375,P16,D07,1,1,0
2859,-1.94,1645192665.125,P16,D07,1,1,0
2860,-1.99,1645192665.140625,P16,D07,1,1,0
2861,-1.85,1645192665.15625,P16,D07,1,1,0
2862,-1.53,1645192665.171875,P16,D07,1,1,0
2863,-1.1,1645192665.1875,P16,D07,1,1,0
2864,-0.65,1645192665.203125,P16,D07,1,1,0
2865,-0.28,1645192665.21875,P16,D07,1,1,0
2866,-0.02,1645192665.234375,P16,D07,1,1,0
2867,0.16,1645192665.25,P16,D07,1,1,0
2868,0.3,1645192665.265625,P16,D07,1,1,0
2869,0.48,1645192665.28125,P16,D07,1,1,0
2870,0.72,1645192665.296875,P16,D07,1,1,0
2871,1.02,1645192665.3125,P16,D07,1,1,0
2872,1.37,1645192665.328125,P16,D07,1,1,0
2873,1.73,1645192665.34375,P16,D07,1,1,0
2874,2.07,1645192665.359375,P16,D07,1,1,0
2875,2.34,1645192665.375,P16,D07,1,1,0
2876,2.51,1645192665.390625,P16,D07,1,1,0
2877,2.56,1645192665.40625,P16,D07,1,1,0
2878,2.45,1645192665.421875,P16,D07,1,1,0
2879,2.21,1645192665.4375,P16,D07,1,1,0
2880,1.85,1645192665.453125,P16,D07,1,1,0
2881,1.47,1645192665.46875,P16,D07,1,1,0
2882,1.13,1645192665.484375,P16,D07,1,1,0
2883,0.89,1645192665.5,P16,D07,1,1,0
2884,0.72,1645192665.515625,P16,D07,1,1,0
2885,0.55,1645192665.53125,P16,D07,1,1,0
2886,0.3,1645192665.546875,P16,D07,1,1,0
2887,-0.08,1645192665.5625,P16,D07,1,1,0
2888,-0.54,1645192665.578125,P16,D07,1,1,0
2889,-0.98,1645192665.59375,P16,D07,1,1,0
2890,-1.22,1645192665.609375,P16,D07,1,1,0
2891,-1.18,1645192665.625,P16,D07,1,1,0
2892,-0.86,1645192665.640625,P16,D07,1,1,0
2893,-0.4,1645192665.65625,P16,D07,1,1,0
2894,0.01,1645192665.671875,P16,D07,1,1,0
2895,0.19,1645192665.6875,P16,D07,1,1,0
2896,0.12,1645192665.703125,P16,D07,1,1,0
2897,-0.12,1645192665.71875,P16,D07,1,1,0
2898,-0.35,1645192665.734375,P16,D07,1,1,0
2899,-0.42,1645192665.75,P16,D07,1,1,0
2900,-0.3,1645192665.765625,P16,D07,1,1,0
2901,-0.07,1645192665.78125,P16,D07,1,1,0
2902,0.13,1645192665.796875,P16,D07,1,1,0
2903,0.17,1645192665.8125,P16,D07,1,1,0
2904,0.02,1645192665.828125,P16,D07,1,1,0
2905,-0.23,1645192665.84375,P16,D07,1,1,0
2906,-0.48,1645192665.859375,P16,D07,1,1,0
2907,-0.6,1645192665.875,P16,D07,1,1,0
2908,-0.58,1645192665.890625,P16,D07,1,1,0
2909,-0.46,1645192665.90625,P16,D07,1,1,0
2910,-0.32,1645192665.921875,P16,D07,1,1,0
2911,-0.18,1645192665.9375,P16,D07,1,1,0
2912,-0.04,1645192665.953125,P16,D07,1,1,0
2913,0.13,1645192665.96875,P16,D07,1,1,0
2914,0.38,1645192665.984375,P16,D07,1,1,0
2915,0.65,1645192666.0,P16,D07,1,1,0
2916,0.88,1645192666.015625,P16,D07,1,1,0
2917,0.97,1645192666.03125,P16,D07,1,1,0
2918,0.88,1645192666.046875,P16,D07,1,1,0
2919,0.65,1645192666.0625,P16,D07,1,1,0
