,data,timestamp,participant,document,val,arou,eng
0,-26.0,1645192431.859375,P16,D06,1,1,1
1,-25.78,1645192431.875,P16,D06,1,1,1
2,-24.36,1645192431.890625,P16,D06,1,1,1
3,-22.52,1645192431.90625,P16,D06,1,1,1
4,-20.89,1645192431.921875,P16,D06,1,1,1
5,-19.73,1645192431.9375,P16,D06,1,1,1
6,-18.87,1645192431.953125,P16,D06,1,1,1
7,-17.97,1645192431.96875,P16,D06,1,1,1
8,-16.76,1645192431.984375,P16,D06,1,1,1
9,-15.27,1645192432.0,P16,D06,1,1,1
10,-13.75,1645192432.015625,P16,D06,1,1,1
11,-12.51,1645192432.03125,P16,D06,1,1,1
12,-11.73,1645192432.046875,P16,D06,1,1,1
13,-11.35,1645192432.0625,P16,D06,1,1,1
14,-11.14,1645192432.078125,P16,D06,1,1,1
15,-10.86,1645192432.09375,P16,D06,1,1,1
16,-10.34,1645192432.109375,P16,D06,1,1,1
17,-9.56,1645192432.125,P16,D06,1,1,1
18,-8.61,1645192432.140625,P16,D06,1,1,1
19,-7.63,1645192432.15625,P16,D06,1,1,1
20,-6.75,1645192432.171875,P16,D06,1,1,1
21,-6.08,1645192432.1875,P16,D06,1,1,1
22,-5.6,1645192432.203125,P16,D06,1,1,1
23,-5.27,1645192432.21875,P16,D06,1,1,1
24,-5.01,1645192432.234375,P16,D06,1,1,1
25,-4.74,1645192432.25,P16,D06,1,1,1
26,-4.42,1645192432.265625,P16,D06,1,1,1
27,-4.01,1645192432.28125,P16,D06,1,1,1
28,-3.54,1645192432.296875,P16,D06,1,1,1
29,-3.04,1645192432.3125,P16,D06,1,1,1
30,-2.58,1645192432.328125,P16,D06,1,1,1
31,-2.2,1645192432.34375,P16,D06,1,1,1
32,-1.98,1645192432.359375,P16,D06,1,1,1
33,-1.92,1645192432.375,P16,D06,1,1,1
34,-1.96,1645192432.390625,P16,D06,1,1,1
35,-2.02,1645192432.40625,P16,D06,1,1,1
36,-1.98,1645192432.421875,P16,D06,1,1,1
37,-1.77,1645192432.4375,P16,D06,1,1,1
38,-1.41,1645192432.453125,P16,D06,1,1,1
39,-0.99,1645192432.46875,P16,D06,1,1,1
40,-0.64,1645192432.484375,P16,D06,1,1,1
41,-0.48,1645192432.5,P16,D06,1,1,1
42,-0.52,1645192432.515625,P16,D06,1,1,1
43,-0.7,1645192432.53125,P16,D06,1,1,1
44,-0.93,1645192432.546875,P16,D06,1,1,1
45,-1.1,1645192432.5625,P16,D06,1,1,1
46,-1.17,1645192432.578125,P16,D06,1,1,1
47,-1.14,1645192432.59375,P16,D06,1,1,1
48,-1.04,1645192432.609375,P16,D06,1,1,1
49,-0.87,1645192432.625,P16,D06,1,1,1
50,-0.63,1645192432.640625,P16,D06,1,1,1
51,-0.33,1645192432.65625,P16,D06,1,1,1
52,0.0,1645192432.671875,P16,D06,1,1,1
53,0.32,1645192432.6875,P16,D06,1,1,1
54,0.58,1645192432.703125,P16,D06,1,1,1
55,0.7,1645192432.71875,P16,D06,1,1,1
56,0.68,1645192432.734375,P16,D06,1,1,1
57,0.53,1645192432.75,P16,D06,1,1,1
58,0.33,1645192432.765625,P16,D06,1,1,1
59,0.18,1645192432.78125,P16,D06,1,1,1
60,0.16,1645192432.796875,P16,D06,1,1,1
61,0.32,1645192432.8125,P16,D06,1,1,1
62,0.59,1645192432.828125,P16,D06,1,1,1
63,0.88,1645192432.84375,P16,D06,1,1,1
64,1.08,1645192432.859375,P16,D06,1,1,1
65,1.11,1645192432.875,P16,D06,1,1,1
66,0.96,1645192432.890625,P16,D06,1,1,1
67,0.71,1645192432.90625,P16,D06,1,1,1
68,0.42,1645192432.921875,P16,D06,1,1,1
69,0.16,1645192432.9375,P16,D06,1,1,1
70,-0.06,1645192432.953125,P16,D06,1,1,1
71,-0.24,1645192432.96875,P16,D06,1,1,1
72,-0.43,1645192432.984375,P16,D06,1,1,1
73,-0.64,1645192433.0,P16,D06,1,1,1
74,-0.82,1645192433.015625,P16,D06,1,1,1
75,-0.95,1645192433.03125,P16,D06,1,1,1
76,-0.98,1645192433.046875,P16,D06,1,1,1
77,-0.89,1645192433.0625,P16,D06,1,1,1
78,-0.69,1645192433.078125,P16,D06,1,1,1
79,-0.45,1645192433.09375,P16,D06,1,1,1
80,-0.23,1645192433.109375,P16,D06,1,1,1
81,-0.12,1645192433.125,P16,D06,1,1,1
82,-0.15,1645192433.140625,P16,D06,1,1,1
83,-0.32,1645192433.15625,P16,D06,1,1,1
84,-0.55,1645192433.171875,P16,D06,1,1,1
85,-0.75,1645192433.1875,P16,D06,1,1,1
86,-0.81,1645192433.203125,P16,D06,1,1,1
87,-0.69,1645192433.21875,P16,D06,1,1,1
88,-0.44,1645192433.234375,P16,D06,1,1,1
89,-0.16,1645192433.25,P16,D06,1,1,1
90,-0.01,1645192433.265625,P16,D06,1,1,1
91,-0.05,1645192433.28125,P16,D06,1,1,1
92,-0.29,1645192433.296875,P16,D06,1,1,1
93,-0.61,1645192433.3125,P16,D06,1,1,1
94,-0.9,1645192433.328125,P16,D06,1,1,1
95,-1.07,1645192433.34375,P16,D06,1,1,1
96,-1.12,1645192433.359375,P16,D06,1,1,1
97,-1.1,1645192433.375,P16,D06,1,1,1
98,-1.1,1645192433.390625,P16,D06,1,1,1
99,-1.15,1645192433.40625,P16,D06,1,1,1
100,-1.25,1645192433.421875,P16,D06,1,1,1
101,-1.37,1645192433.4375,P16,D06,1,1,1
102,-1.48,1645192433.453125,P16,D06,1,1,1
103,-1.61,1645192433.46875,P16,D06,1,1,1
104,-1.82,1645192433.484375,P16,D06,1,1,1
105,-2.12,1645192433.5,P16,D06,1,1,1
106,-2.49,1645192433.515625,P16,D06,1,1,1
107,-2.88,1645192433.53125,P16,D06,1,1,1
108,-3.2,1645192433.546875,P16,D06,1,1,1
109,-3.4,1645192433.5625,P16,D06,1,1,1
110,-3.49,1645192433.578125,P16,D06,1,1,1
111,-3.47,1645192433.59375,P16,D06,1,1,1
112,-3.4,1645192433.609375,P16,D06,1,1,1
113,-3.34,1645192433.625,P16,D06,1,1,1
114,-3.3,1645192433.640625,P16,D06,1,1,1
115,-3.25,1645192433.65625,P16,D06,1,1,1
116,-3.12,1645192433.671875,P16,D06,1,1,1
117,-2.84,1645192433.6875,P16,D06,1,1,1
118,-2.36,1645192433.703125,P16,D06,1,1,1
119,-1.71,1645192433.71875,P16,D06,1,1,1
120,-0.94,1645192433.734375,P16,D06,1,1,1
121,-0.14,1645192433.75,P16,D06,1,1,1
122,0.65,1645192433.765625,P16,D06,1,1,1
123,1.44,1645192433.78125,P16,D06,1,1,1
124,2.24,1645192433.796875,P16,D06,1,1,1
125,3.04,1645192433.8125,P16,D06,1,1,1
126,3.78,1645192433.828125,P16,D06,1,1,1
127,4.35,1645192433.84375,P16,D06,1,1,1
128,4.71,1645192433.859375,P16,D06,1,1,1
129,4.83,1645192433.875,P16,D06,1,1,1
130,4.8,1645192433.890625,P16,D06,1,1,1
131,4.72,1645192433.90625,P16,D06,1,1,1
132,4.65,1645192433.921875,P16,D06,1,1,1
133,4.6,1645192433.9375,P16,D06,1,1,1
134,4.52,1645192433.953125,P16,D06,1,1,1
135,4.39,1645192433.96875,P16,D06,1,1,1
136,4.2,1645192433.984375,P16,D06,1,1,1
137,4.04,1645192434.0,P16,D06,1,1,1
138,3.99,1645192434.015625,P16,D06,1,1,1
139,4.05,1645192434.03125,P16,D06,1,1,1
140,4.17,1645192434.046875,P16,D06,1,1,1
141,4.25,1645192434.0625,P16,D06,1,1,1
142,4.17,1645192434.078125,P16,D06,1,1,1
143,3.95,1645192434.09375,P16,D06,1,1,1
144,3.67,1645192434.109375,P16,D06,1,1,1
145,3.48,1645192434.125,P16,D06,1,1,1
146,3.48,1645192434.140625,P16,D06,1,1,1
147,3.62,1645192434.15625,P16,D06,1,1,1
148,3.79,1645192434.171875,P16,D06,1,1,1
149,3.82,1645192434.1875,P16,D06,1,1,1
150,3.64,1645192434.203125,P16,D06,1,1,1
151,3.31,1645192434.21875,P16,D06,1,1,1
152,2.9,1645192434.234375,P16,D06,1,1,1
153,2.45,1645192434.25,P16,D06,1,1,1
154,1.9,1645192434.265625,P16,D06,1,1,1
155,1.13,1645192434.28125,P16,D06,1,1,1
156,0.11,1645192434.296875,P16,D06,1,1,1
157,-1.03,1645192434.3125,P16,D06,1,1,1
158,-1.98,1645192434.328125,P16,D06,1,1,1
159,-2.45,1645192434.34375,P16,D06,1,1,1
160,-2.29,1645192434.359375,P16,D06,1,1,1
161,-1.67,1645192434.375,P16,D06,1,1,1
162,-0.92,1645192434.390625,P16,D06,1,1,1
163,-0.39,1645192434.40625,P16,D06,1,1,1
164,-0.27,1645192434.421875,P16,D06,1,1,1
165,-0.49,1645192434.4375,P16,D06,1,1,1
166,-0.85,1645192434.453125,P16,D06,1,1,1
167,-1.14,1645192434.46875,P16,D06,1,1,1
168,-1.27,1645192434.484375,P16,D06,1,1,1
169,-1.27,1645192434.5,P16,D06,1,1,1
170,-1.21,1645192434.515625,P16,D06,1,1,1
171,-1.12,1645192434.53125,P16,D06,1,1,1
172,-0.97,1645192434.546875,P16,D06,1,1,1
173,-0.67,1645192434.5625,P16,D06,1,1,1
174,-0.18,1645192434.578125,P16,D06,1,1,1
175,0.47,1645192434.59375,P16,D06,1,1,1
176,1.13,1645192434.609375,P16,D06,1,1,1
177,1.63,1645192434.625,P16,D06,1,1,1
178,1.82,1645192434.640625,P16,D06,1,1,1
179,1.64,1645192434.65625,P16,D06,1,1,1
180,1.15,1645192434.671875,P16,D06,1,1,1
181,0.51,1645192434.6875,P16,D06,1,1,1
182,-0.1,1645192434.703125,P16,D06,1,1,1
183,-0.55,1645192434.71875,P16,D06,1,1,1
184,-0.79,1645192434.734375,P16,D06,1,1,1
185,-0.84,1645192434.75,P16,D06,1,1,1
186,-0.8,1645192434.765625,P16,D06,1,1,1
187,-0.73,1645192434.78125,P16,D06,1,1,1
188,-0.67,1645192434.796875,P16,D06,1,1,1
189,-0.63,1645192434.8125,P16,D06,1,1,1
190,-0.63,1645192434.828125,P16,D06,1,1,1
191,-0.66,1645192434.84375,P16,D06,1,1,1
192,-0.76,1645192434.859375,P16,D06,1,1,1
193,-0.9,1645192434.875,P16,D06,1,1,1
194,-1.05,1645192434.890625,P16,D06,1,1,1
195,-1.14,1645192434.90625,P16,D06,1,1,1
196,-1.11,1645192434.921875,P16,D06,1,1,1
197,-0.92,1645192434.9375,P16,D06,1,1,1
198,-0.62,1645192434.953125,P16,D06,1,1,1
199,-0.28,1645192434.96875,P16,D06,1,1,1
200,0.01,1645192434.984375,P16,D06,1,1,1
201,0.15,1645192435.0,P16,D06,1,1,1
202,0.11,1645192435.015625,P16,D06,1,1,1
203,-0.06,1645192435.03125,P16,D06,1,1,1
204,-0.3,1645192435.046875,P16,D06,1,1,1
205,-0.53,1645192435.0625,P16,D06,1,1,1
206,-0.68,1645192435.078125,P16,D06,1,1,1
207,-0.73,1645192435.09375,P16,D06,1,1,1
208,-0.69,1645192435.109375,P16,D06,1,1,1
209,-0.61,1645192435.125,P16,D06,1,1,1
210,-0.49,1645192435.140625,P16,D06,1,1,1
211,-0.34,1645192435.15625,P16,D06,1,1,1
212,-0.13,1645192435.171875,P16,D06,1,1,1
213,0.14,1645192435.1875,P16,D06,1,1,1
214,0.45,1645192435.203125,P16,D06,1,1,1
215,0.76,1645192435.21875,P16,D06,1,1,1
216,1.03,1645192435.234375,P16,D06,1,1,1
217,1.19,1645192435.25,P16,D06,1,1,1
218,1.22,1645192435.265625,P16,D06,1,1,1
219,1.12,1645192435.28125,P16,D06,1,1,1
220,0.94,1645192435.296875,P16,D06,1,1,1
221,0.73,1645192435.3125,P16,D06,1,1,1
222,0.57,1645192435.328125,P16,D06,1,1,1
223,0.47,1645192435.34375,P16,D06,1,1,1
224,0.42,1645192435.359375,P16,D06,1,1,1
225,0.35,1645192435.375,P16,D06,1,1,1
226,0.2,1645192435.390625,P16,D06,1,1,1
227,-0.02,1645192435.40625,P16,D06,1,1,1
228,-0.28,1645192435.421875,P16,D06,1,1,1
229,-0.46,1645192435.4375,P16,D06,1,1,1
230,-0.51,1645192435.453125,P16,D06,1,1,1
231,-0.46,1645192435.46875,P16,D06,1,1,1
232,-0.37,1645192435.484375,P16,D06,1,1,1
233,-0.34,1645192435.5,P16,D06,1,1,1
234,-0.43,1645192435.515625,P16,D06,1,1,1
235,-0.62,1645192435.53125,P16,D06,1,1,1
236,-0.87,1645192435.546875,P16,D06,1,1,1
237,-1.09,1645192435.5625,P16,D06,1,1,1
238,-1.24,1645192435.578125,P16,D06,1,1,1
239,-1.29,1645192435.59375,P16,D06,1,1,1
240,-1.23,1645192435.609375,P16,D06,1,1,1
241,-1.05,1645192435.625,P16,D06,1,1,1
242,-0.79,1645192435.640625,P16,D06,1,1,1
243,-0.48,1645192435.65625,P16,D06,1,1,1
244,-0.2,1645192435.671875,P16,D06,1,1,1
245,0.02,1645192435.6875,P16,D06,1,1,1
246,0.14,1645192435.703125,P16,D06,1,1,1
247,0.18,1645192435.71875,P16,D06,1,1,1
248,0.16,1645192435.734375,P16,D06,1,1,1
249,0.1,1645192435.75,P16,D06,1,1,1
250,0.01,1645192435.765625,P16,D06,1,1,1
251,-0.07,1645192435.78125,P16,D06,1,1,1
252,-0.09,1645192435.796875,P16,D06,1,1,1
253,-0.02,1645192435.8125,P16,D06,1,1,1
254,0.16,1645192435.828125,P16,D06,1,1,1
255,0.41,1645192435.84375,P16,D06,1,1,1
256,0.62,1645192435.859375,P16,D06,1,1,1
257,0.71,1645192435.875,P16,D06,1,1,1
258,0.66,1645192435.890625,P16,D06,1,1,1
259,0.53,1645192435.90625,P16,D06,1,1,1
260,0.39,1645192435.921875,P16,D06,1,1,1
261,0.31,1645192435.9375,P16,D06,1,1,1
262,0.27,1645192435.953125,P16,D06,1,1,1
263,0.2,1645192435.96875,P16,D06,1,1,1
264,0.02,1645192435.984375,P16,D06,1,1,1
265,-0.25,1645192436.0,P16,D06,1,1,1
266,-0.57,1645192436.015625,P16,D06,1,1,1
267,-0.85,1645192436.03125,P16,D06,1,1,1
268,-1.05,1645192436.046875,P16,D06,1,1,1
269,-1.2,1645192436.0625,P16,D06,1,1,1
270,-1.33,1645192436.078125,P16,D06,1,1,1
271,-1.45,1645192436.09375,P16,D06,1,1,1
272,-1.52,1645192436.109375,P16,D06,1,1,1
273,-1.46,1645192436.125,P16,D06,1,1,1
274,-1.23,1645192436.140625,P16,D06,1,1,1
275,-0.89,1645192436.15625,P16,D06,1,1,1
276,-0.58,1645192436.171875,P16,D06,1,1,1
277,-0.41,1645192436.1875,P16,D06,1,1,1
278,-0.44,1645192436.203125,P16,D06,1,1,1
279,-0.6,1645192436.21875,P16,D06,1,1,1
280,-0.74,1645192436.234375,P16,D06,1,1,1
281,-0.78,1645192436.25,P16,D06,1,1,1
282,-0.69,1645192436.265625,P16,D06,1,1,1
283,-0.57,1645192436.28125,P16,D06,1,1,1
284,-0.53,1645192436.296875,P16,D06,1,1,1
285,-0.66,1645192436.3125,P16,D06,1,1,1
286,-0.93,1645192436.328125,P16,D06,1,1,1
287,-1.23,1645192436.34375,P16,D06,1,1,1
288,-1.41,1645192436.359375,P16,D06,1,1,1
289,-1.35,1645192436.375,P16,D06,1,1,1
290,-1.01,1645192436.390625,P16,D06,1,1,1
291,-0.46,1645192436.40625,P16,D06,1,1,1
292,0.16,1645192436.421875,P16,D06,1,1,1
293,0.7,1645192436.4375,P16,D06,1,1,1
294,1.07,1645192436.453125,P16,D06,1,1,1
295,1.24,1645192436.46875,P16,D06,1,1,1
296,1.22,1645192436.484375,P16,D06,1,1,1
297,1.05,1645192436.5,P16,D06,1,1,1
298,0.78,1645192436.515625,P16,D06,1,1,1
299,0.45,1645192436.53125,P16,D06,1,1,1
300,0.1,1645192436.546875,P16,D06,1,1,1
301,-0.21,1645192436.5625,P16,D06,1,1,1
302,-0.39,1645192436.578125,P16,D06,1,1,1
303,-0.42,1645192436.59375,P16,D06,1,1,1
304,-0.34,1645192436.609375,P16,D06,1,1,1
305,-0.22,1645192436.625,P16,D06,1,1,1
306,-0.16,1645192436.640625,P16,D06,1,1,1
307,-0.19,1645192436.65625,P16,D06,1,1,1
308,-0.29,1645192436.671875,P16,D06,1,1,1
309,-0.38,1645192436.6875,P16,D06,1,1,1
310,-0.41,1645192436.703125,P16,D06,1,1,1
311,-0.36,1645192436.71875,P16,D06,1,1,1
312,-0.31,1645192436.734375,P16,D06,1,1,1
313,-0.32,1645192436.75,P16,D06,1,1,1
314,-0.42,1645192436.765625,P16,D06,1,1,1
315,-0.56,1645192436.78125,P16,D06,1,1,1
316,-0.67,1645192436.796875,P16,D06,1,1,1
317,-0.64,1645192436.8125,P16,D06,1,1,1
318,-0.45,1645192436.828125,P16,D06,1,1,1
319,-0.19,1645192436.84375,P16,D06,1,1,1
320,0.04,1645192436.859375,P16,D06,1,1,1
321,0.12,1645192436.875,P16,D06,1,1,1
322,0.04,1645192436.890625,P16,D06,1,1,1
323,-0.1,1645192436.90625,P16,D06,1,1,1
324,-0.15,1645192436.921875,P16,D06,1,1,1
325,0.01,1645192436.9375,P16,D06,1,1,1
326,0.4,1645192436.953125,P16,D06,1,1,1
327,0.9,1645192436.96875,P16,D06,1,1,1
328,1.32,1645192436.984375,P16,D06,1,1,1
329,1.51,1645192437.0,P16,D06,1,1,1
330,1.42,1645192437.015625,P16,D06,1,1,1
331,1.15,1645192437.03125,P16,D06,1,1,1
332,0.85,1645192437.046875,P16,D06,1,1,1
333,0.64,1645192437.0625,P16,D06,1,1,1
334,0.54,1645192437.078125,P16,D06,1,1,1
335,0.5,1645192437.09375,P16,D06,1,1,1
336,0.43,1645192437.109375,P16,D06,1,1,1
337,0.33,1645192437.125,P16,D06,1,1,1
338,0.27,1645192437.140625,P16,D06,1,1,1
339,0.33,1645192437.15625,P16,D06,1,1,1
340,0.57,1645192437.171875,P16,D06,1,1,1
341,0.89,1645192437.1875,P16,D06,1,1,1
342,1.14,1645192437.203125,P16,D06,1,1,1
343,1.18,1645192437.21875,P16,D06,1,1,1
344,0.95,1645192437.234375,P16,D06,1,1,1
345,0.52,1645192437.25,P16,D06,1,1,1
346,0.06,1645192437.265625,P16,D06,1,1,1
347,-0.25,1645192437.28125,P16,D06,1,1,1
348,-0.32,1645192437.296875,P16,D06,1,1,1
349,-0.19,1645192437.3125,P16,D06,1,1,1
350,0.05,1645192437.328125,P16,D06,1,1,1
351,0.27,1645192437.34375,P16,D06,1,1,1
352,0.42,1645192437.359375,P16,D06,1,1,1
353,0.51,1645192437.375,P16,D06,1,1,1
354,0.59,1645192437.390625,P16,D06,1,1,1
355,0.69,1645192437.40625,P16,D06,1,1,1
356,0.8,1645192437.421875,P16,D06,1,1,1
357,0.88,1645192437.4375,P16,D06,1,1,1
358,0.87,1645192437.453125,P16,D06,1,1,1
359,0.76,1645192437.46875,P16,D06,1,1,1
360,0.58,1645192437.484375,P16,D06,1,1,1
361,0.39,1645192437.5,P16,D06,1,1,1
362,0.24,1645192437.515625,P16,D06,1,1,1
363,0.13,1645192437.53125,P16,D06,1,1,1
364,0.04,1645192437.546875,P16,D06,1,1,1
365,-0.06,1645192437.5625,P16,D06,1,1,1
366,-0.2,1645192437.578125,P16,D06,1,1,1
367,-0.37,1645192437.59375,P16,D06,1,1,1
368,-0.53,1645192437.609375,P16,D06,1,1,1
369,-0.66,1645192437.625,P16,D06,1,1,1
370,-0.74,1645192437.640625,P16,D06,1,1,1
371,-0.77,1645192437.65625,P16,D06,1,1,1
372,-0.77,1645192437.671875,P16,D06,1,1,1
373,-0.72,1645192437.6875,P16,D06,1,1,1
374,-0.62,1645192437.703125,P16,D06,1,1,1
375,-0.48,1645192437.71875,P16,D06,1,1,1
376,-0.35,1645192437.734375,P16,D06,1,1,1
377,-0.27,1645192437.75,P16,D06,1,1,1
378,-0.3,1645192437.765625,P16,D06,1,1,1
379,-0.44,1645192437.78125,P16,D06,1,1,1
380,-0.63,1645192437.796875,P16,D06,1,1,1
381,-0.79,1645192437.8125,P16,D06,1,1,1
382,-0.83,1645192437.828125,P16,D06,1,1,1
383,-0.73,1645192437.84375,P16,D06,1,1,1
384,-0.51,1645192437.859375,P16,D06,1,1,1
385,-0.28,1645192437.875,P16,D06,1,1,1
386,-0.15,1645192437.890625,P16,D06,1,1,1
387,-0.18,1645192437.90625,P16,D06,1,1,1
388,-0.37,1645192437.921875,P16,D06,1,1,1
389,-0.65,1645192437.9375,P16,D06,1,1,1
390,-0.89,1645192437.953125,P16,D06,1,1,1
391,-0.98,1645192437.96875,P16,D06,1,1,1
392,-0.92,1645192437.984375,P16,D06,1,1,1
393,-0.76,1645192438.0,P16,D06,1,1,1
394,-0.62,1645192438.015625,P16,D06,1,1,1
395,-0.58,1645192438.03125,P16,D06,1,1,1
396,-0.66,1645192438.046875,P16,D06,1,1,1
397,-0.77,1645192438.0625,P16,D06,1,1,1
398,-0.78,1645192438.078125,P16,D06,1,1,1
399,-0.61,1645192438.09375,P16,D06,1,1,1
400,-0.25,1645192438.109375,P16,D06,1,1,1
401,0.21,1645192438.125,P16,D06,1,1,1
402,0.64,1645192438.140625,P16,D06,1,1,1
403,0.88,1645192438.15625,P16,D06,1,1,1
404,0.9,1645192438.171875,P16,D06,1,1,1
405,0.71,1645192438.1875,P16,D06,1,1,1
406,0.4,1645192438.203125,P16,D06,1,1,1
407,0.07,1645192438.21875,P16,D06,1,1,1
408,-0.19,1645192438.234375,P16,D06,1,1,1
409,-0.34,1645192438.25,P16,D06,1,1,1
410,-0.36,1645192438.265625,P16,D06,1,1,1
411,-0.24,1645192438.28125,P16,D06,1,1,1
412,-0.0,1645192438.296875,P16,D06,1,1,1
413,0.32,1645192438.3125,P16,D06,1,1,1
414,0.66,1645192438.328125,P16,D06,1,1,1
415,0.92,1645192438.34375,P16,D06,1,1,1
416,1.04,1645192438.359375,P16,D06,1,1,1
417,1.0,1645192438.375,P16,D06,1,1,1
418,0.83,1645192438.390625,P16,D06,1,1,1
419,0.61,1645192438.40625,P16,D06,1,1,1
420,0.41,1645192438.421875,P16,D06,1,1,1
421,0.28,1645192438.4375,P16,D06,1,1,1
422,0.22,1645192438.453125,P16,D06,1,1,1
423,0.18,1645192438.46875,P16,D06,1,1,1
424,0.15,1645192438.484375,P16,D06,1,1,1
425,0.1,1645192438.5,P16,D06,1,1,1
426,0.02,1645192438.515625,P16,D06,1,1,1
427,-0.11,1645192438.53125,P16,D06,1,1,1
428,-0.33,1645192438.546875,P16,D06,1,1,1
429,-0.65,1645192438.5625,P16,D06,1,1,1
430,-1.04,1645192438.578125,P16,D06,1,1,1
431,-1.43,1645192438.59375,P16,D06,1,1,1
432,-1.71,1645192438.609375,P16,D06,1,1,1
433,-1.83,1645192438.625,P16,D06,1,1,1
434,-1.77,1645192438.640625,P16,D06,1,1,1
435,-1.58,1645192438.65625,P16,D06,1,1,1
436,-1.34,1645192438.671875,P16,D06,1,1,1
437,-1.12,1645192438.6875,P16,D06,1,1,1
438,-0.92,1645192438.703125,P16,D06,1,1,1
439,-0.75,1645192438.71875,P16,D06,1,1,1
440,-0.58,1645192438.734375,P16,D06,1,1,1
441,-0.42,1645192438.75,P16,D06,1,1,1
442,-0.28,1645192438.765625,P16,D06,1,1,1
443,-0.17,1645192438.78125,P16,D06,1,1,1
444,-0.09,1645192438.796875,P16,D06,1,1,1
445,-0.03,1645192438.8125,P16,D06,1,1,1
446,0.01,1645192438.828125,P16,D06,1,1,1
447,0.03,1645192438.84375,P16,D06,1,1,1
448,0.06,1645192438.859375,P16,D06,1,1,1
449,0.11,1645192438.875,P16,D06,1,1,1
450,0.24,1645192438.890625,P16,D06,1,1,1
451,0.46,1645192438.90625,P16,D06,1,1,1
452,0.77,1645192438.921875,P16,D06,1,1,1
453,1.13,1645192438.9375,P16,D06,1,1,1
454,1.47,1645192438.953125,P16,D06,1,1,1
455,1.76,1645192438.96875,P16,D06,1,1,1
456,1.96,1645192438.984375,P16,D06,1,1,1
457,2.06,1645192439.0,P16,D06,1,1,1
458,2.05,1645192439.015625,P16,D06,1,1,1
459,1.91,1645192439.03125,P16,D06,1,1,1
460,1.63,1645192439.046875,P16,D06,1,1,1
461,1.25,1645192439.0625,P16,D06,1,1,1
462,0.83,1645192439.078125,P16,D06,1,1,1
463,0.46,1645192439.09375,P16,D06,1,1,1
464,0.2,1645192439.109375,P16,D06,1,1,1
465,0.04,1645192439.125,P16,D06,1,1,1
466,-0.04,1645192439.140625,P16,D06,1,1,1
467,-0.11,1645192439.15625,P16,D06,1,1,1
468,-0.18,1645192439.171875,P16,D06,1,1,1
469,-0.26,1645192439.1875,P16,D06,1,1,1
470,-0.33,1645192439.203125,P16,D06,1,1,1
471,-0.39,1645192439.21875,P16,D06,1,1,1
472,-0.45,1645192439.234375,P16,D06,1,1,1
473,-0.53,1645192439.25,P16,D06,1,1,1
474,-0.64,1645192439.265625,P16,D06,1,1,1
475,-0.78,1645192439.28125,P16,D06,1,1,1
476,-0.92,1645192439.296875,P16,D06,1,1,1
477,-1.08,1645192439.3125,P16,D06,1,1,1
478,-1.27,1645192439.328125,P16,D06,1,1,1
479,-1.53,1645192439.34375,P16,D06,1,1,1
480,-1.85,1645192439.359375,P16,D06,1,1,1
481,-2.22,1645192439.375,P16,D06,1,1,1
482,-2.57,1645192439.390625,P16,D06,1,1,1
483,-2.85,1645192439.40625,P16,D06,1,1,1
484,-3.02,1645192439.421875,P16,D06,1,1,1
485,-3.11,1645192439.4375,P16,D06,1,1,1
486,-3.17,1645192439.453125,P16,D06,1,1,1
487,-3.26,1645192439.46875,P16,D06,1,1,1
488,-3.4,1645192439.484375,P16,D06,1,1,1
489,-3.59,1645192439.5,P16,D06,1,1,1
490,-3.76,1645192439.515625,P16,D06,1,1,1
491,-3.88,1645192439.53125,P16,D06,1,1,1
492,-3.96,1645192439.546875,P16,D06,1,1,1
493,-4.06,1645192439.5625,P16,D06,1,1,1
494,-4.26,1645192439.578125,P16,D06,1,1,1
495,-4.64,1645192439.59375,P16,D06,1,1,1
496,-5.22,1645192439.609375,P16,D06,1,1,1
497,-5.98,1645192439.625,P16,D06,1,1,1
498,-6.83,1645192439.640625,P16,D06,1,1,1
499,-7.68,1645192439.65625,P16,D06,1,1,1
500,-8.47,1645192439.671875,P16,D06,1,1,1
501,-9.16,1645192439.6875,P16,D06,1,1,1
502,-9.79,1645192439.703125,P16,D06,1,1,1
503,-10.41,1645192439.71875,P16,D06,1,1,1
504,-11.1,1645192439.734375,P16,D06,1,1,1
505,-11.91,1645192439.75,P16,D06,1,1,1
506,-12.93,1645192439.765625,P16,D06,1,1,1
507,-14.21,1645192439.78125,P16,D06,1,1,1
508,-15.74,1645192439.796875,P16,D06,1,1,1
509,-17.36,1645192439.8125,P16,D06,1,1,1
510,-18.73,1645192439.828125,P16,D06,1,1,1
511,-19.31,1645192439.84375,P16,D06,1,1,1
512,-18.6,1645192439.859375,P16,D06,1,1,1
513,-16.31,1645192439.875,P16,D06,1,1,1
514,-12.6,1645192439.890625,P16,D06,1,1,1
515,-8.14,1645192439.90625,P16,D06,1,1,1
516,-3.9,1645192439.921875,P16,D06,1,1,1
517,-0.79,1645192439.9375,P16,D06,1,1,1
518,0.69,1645192439.953125,P16,D06,1,1,1
519,0.68,1645192439.96875,P16,D06,1,1,1
520,-0.19,1645192439.984375,P16,D06,1,1,1
521,-1.12,1645192440.0,P16,D06,1,1,1
522,-1.5,1645192440.015625,P16,D06,1,1,1
523,-1.2,1645192440.03125,P16,D06,1,1,1
524,-0.56,1645192440.046875,P16,D06,1,1,1
525,-0.21,1645192440.0625,P16,D06,1,1,1
526,-0.73,1645192440.078125,P16,D06,1,1,1
527,-2.49,1645192440.09375,P16,D06,1,1,1
528,-5.43,1645192440.109375,P16,D06,1,1,1
529,-9.14,1645192440.125,P16,D06,1,1,1
530,-13.01,1645192440.140625,P16,D06,1,1,1
531,-16.38,1645192440.15625,P16,D06,1,1,1
532,-18.87,1645192440.171875,P16,D06,1,1,1
533,-20.52,1645192440.1875,P16,D06,1,1,1
534,-21.83,1645192440.203125,P16,D06,1,1,1
535,-23.57,1645192440.21875,P16,D06,1,1,1
536,-26.49,1645192440.234375,P16,D06,1,1,1
537,-30.88,1645192440.25,P16,D06,1,1,1
538,-36.46,1645192440.265625,P16,D06,1,1,1
539,-42.37,1645192440.28125,P16,D06,1,1,1
540,-47.63,1645192440.296875,P16,D06,1,1,1
541,-51.49,1645192440.3125,P16,D06,1,1,1
542,-53.81,1645192440.328125,P16,D06,1,1,1
543,-55.12,1645192440.34375,P16,D06,1,1,1
544,-56.35,1645192440.359375,P16,D06,1,1,1
545,-58.54,1645192440.375,P16,D06,1,1,1
546,-62.55,1645192440.390625,P16,D06,1,1,1
547,-68.97,1645192440.40625,P16,D06,1,1,1
548,-77.89,1645192440.421875,P16,D06,1,1,1
549,-88.49,1645192440.4375,P16,D06,1,1,1
550,-98.65,1645192440.453125,P16,D06,1,1,1
551,-104.92,1645192440.46875,P16,D06,1,1,1
552,-103.25,1645192440.484375,P16,D06,1,1,1
553,-90.35,1645192440.5,P16,D06,1,1,1
554,-65.31,1645192440.515625,P16,D06,1,1,1
555,-30.41,1645192440.53125,P16,D06,1,1,1
556,9.3,1645192440.546875,P16,D06,1,1,1
557,47.64,1645192440.5625,P16,D06,1,1,1
558,79.36,1645192440.578125,P16,D06,1,1,1
559,101.72,1645192440.59375,P16,D06,1,1,1
560,114.75,1645192440.609375,P16,D06,1,1,1
561,120.36,1645192440.625,P16,D06,1,1,1
562,120.99,1645192440.640625,P16,D06,1,1,1
563,118.59,1645192440.65625,P16,D06,1,1,1
564,114.34,1645192440.671875,P16,D06,1,1,1
565,109.07,1645192440.6875,P16,D06,1,1,1
566,103.72,1645192440.703125,P16,D06,1,1,1
567,99.44,1645192440.71875,P16,D06,1,1,1
568,97.19,1645192440.734375,P16,D06,1,1,1
569,97.17,1645192440.75,P16,D06,1,1,1
570,98.59,1645192440.765625,P16,D06,1,1,1
571,100.05,1645192440.78125,P16,D06,1,1,1
572,100.11,1645192440.796875,P16,D06,1,1,1
573,98.12,1645192440.8125,P16,D06,1,1,1
574,94.49,1645192440.828125,P16,D06,1,1,1
575,90.49,1645192440.84375,P16,D06,1,1,1
576,87.7,1645192440.859375,P16,D06,1,1,1
577,87.38,1645192440.875,P16,D06,1,1,1
578,90.11,1645192440.890625,P16,D06,1,1,1
579,95.59,1645192440.90625,P16,D06,1,1,1
580,102.56,1645192440.921875,P16,D06,1,1,1
581,108.92,1645192440.9375,P16,D06,1,1,1
582,112.05,1645192440.953125,P16,D06,1,1,1
583,109.57,1645192440.96875,P16,D06,1,1,1
584,100.25,1645192440.984375,P16,D06,1,1,1
585,84.7,1645192441.0,P16,D06,1,1,1
586,65.42,1645192441.015625,P16,D06,1,1,1
587,45.9,1645192441.03125,P16,D06,1,1,1
588,29.41,1645192441.046875,P16,D06,1,1,1
589,17.69,1645192441.0625,P16,D06,1,1,1
590,10.73,1645192441.078125,P16,D06,1,1,1
591,7.25,1645192441.09375,P16,D06,1,1,1
592,5.75,1645192441.109375,P16,D06,1,1,1
593,5.3,1645192441.125,P16,D06,1,1,1
594,5.77,1645192441.140625,P16,D06,1,1,1
595,7.23,1645192441.15625,P16,D06,1,1,1
596,9.16,1645192441.171875,P16,D06,1,1,1
597,9.98,1645192441.1875,P16,D06,1,1,1
598,7.35,1645192441.203125,P16,D06,1,1,1
599,-0.77,1645192441.21875,P16,D06,1,1,1
600,-14.9,1645192441.234375,P16,D06,1,1,1
601,-33.47,1645192441.25,P16,D06,1,1,1
602,-53.08,1645192441.265625,P16,D06,1,1,1
603,-69.68,1645192441.28125,P16,D06,1,1,1
604,-80.18,1645192441.296875,P16,D06,1,1,1
605,-83.6,1645192441.3125,P16,D06,1,1,1
606,-81.26,1645192441.328125,P16,D06,1,1,1
607,-75.87,1645192441.34375,P16,D06,1,1,1
608,-70.15,1645192441.359375,P16,D06,1,1,1
609,-65.65,1645192441.375,P16,D06,1,1,1
610,-62.42,1645192441.390625,P16,D06,1,1,1
611,-59.53,1645192441.40625,P16,D06,1,1,1
612,-56.08,1645192441.421875,P16,D06,1,1,1
613,-51.89,1645192441.4375,P16,D06,1,1,1
614,-47.57,1645192441.453125,P16,D06,1,1,1
615,-44.0,1645192441.46875,P16,D06,1,1,1
616,-41.63,1645192441.484375,P16,D06,1,1,1
617,-40.21,1645192441.5,P16,D06,1,1,1
618,-38.97,1645192441.515625,P16,D06,1,1,1
619,-37.07,1645192441.53125,P16,D06,1,1,1
620,-34.08,1645192441.546875,P16,D06,1,1,1
621,-30.23,1645192441.5625,P16,D06,1,1,1
622,-26.25,1645192441.578125,P16,D06,1,1,1
623,-22.9,1645192441.59375,P16,D06,1,1,1
624,-20.63,1645192441.609375,P16,D06,1,1,1
625,-19.42,1645192441.625,P16,D06,1,1,1
626,-18.78,1645192441.640625,P16,D06,1,1,1
627,-18.13,1645192441.65625,P16,D06,1,1,1
628,-17.01,1645192441.671875,P16,D06,1,1,1
629,-15.32,1645192441.6875,P16,D06,1,1,1
630,-13.29,1645192441.703125,P16,D06,1,1,1
631,-11.27,1645192441.71875,P16,D06,1,1,1
632,-9.58,1645192441.734375,P16,D06,1,1,1
633,-8.36,1645192441.75,P16,D06,1,1,1
634,-7.51,1645192441.765625,P16,D06,1,1,1
635,-6.85,1645192441.78125,P16,D06,1,1,1
636,-6.23,1645192441.796875,P16,D06,1,1,1
637,-5.54,1645192441.8125,P16,D06,1,1,1
638,-4.81,1645192441.828125,P16,D06,1,1,1
639,-4.09,1645192441.84375,P16,D06,1,1,1
640,-3.4,1645192441.859375,P16,D06,1,1,1
641,-2.74,1645192441.875,P16,D06,1,1,1
642,-2.1,1645192441.890625,P16,D06,1,1,1
643,-1.49,1645192441.90625,P16,D06,1,1,1
644,-1.02,1645192441.921875,P16,D06,1,1,1
645,-0.78,1645192441.9375,P16,D06,1,1,1
646,-0.8,1645192441.953125,P16,D06,1,1,1
647,-1.03,1645192441.96875,P16,D06,1,1,1
648,-1.27,1645192441.984375,P16,D06,1,1,1
649,-1.34,1645192442.0,P16,D06,1,1,1
650,-1.11,1645192442.015625,P16,D06,1,1,1
651,-0.61,1645192442.03125,P16,D06,1,1,1
652,0.02,1645192442.046875,P16,D06,1,1,1
653,0.56,1645192442.0625,P16,D06,1,1,1
654,0.88,1645192442.078125,P16,D06,1,1,1
655,0.92,1645192442.09375,P16,D06,1,1,1
656,0.79,1645192442.109375,P16,D06,1,1,1
657,0.63,1645192442.125,P16,D06,1,1,1
658,0.54,1645192442.140625,P16,D06,1,1,1
659,0.53,1645192442.15625,P16,D06,1,1,1
660,0.53,1645192442.171875,P16,D06,1,1,1
661,0.46,1645192442.1875,P16,D06,1,1,1
662,0.26,1645192442.203125,P16,D06,1,1,1
663,0.02,1645192442.21875,P16,D06,1,1,1
664,-0.1,1645192442.234375,P16,D06,1,1,1
665,0.02,1645192442.25,P16,D06,1,1,1
666,0.43,1645192442.265625,P16,D06,1,1,1
667,1.0,1645192442.28125,P16,D06,1,1,1
668,1.52,1645192442.296875,P16,D06,1,1,1
669,1.78,1645192442.3125,P16,D06,1,1,1
670,1.68,1645192442.328125,P16,D06,1,1,1
671,1.25,1645192442.34375,P16,D06,1,1,1
672,0.66,1645192442.359375,P16,D06,1,1,1
673,0.09,1645192442.375,P16,D06,1,1,1
674,-0.31,1645192442.390625,P16,D06,1,1,1
675,-0.52,1645192442.40625,P16,D06,1,1,1
676,-0.57,1645192442.421875,P16,D06,1,1,1
677,-0.58,1645192442.4375,P16,D06,1,1,1
678,-0.58,1645192442.453125,P16,D06,1,1,1
679,-0.6,1645192442.46875,P16,D06,1,1,1
680,-0.62,1645192442.484375,P16,D06,1,1,1
681,-0.63,1645192442.5,P16,D06,1,1,1
682,-0.62,1645192442.515625,P16,D06,1,1,1
683,-0.62,1645192442.53125,P16,D06,1,1,1
684,-0.68,1645192442.546875,P16,D06,1,1,1
685,-0.78,1645192442.5625,P16,D06,1,1,1
686,-0.88,1645192442.578125,P16,D06,1,1,1
687,-0.9,1645192442.59375,P16,D06,1,1,1
688,-0.79,1645192442.609375,P16,D06,1,1,1
689,-0.56,1645192442.625,P16,D06,1,1,1
690,-0.27,1645192442.640625,P16,D06,1,1,1
691,0.0,1645192442.65625,P16,D06,1,1,1
692,0.2,1645192442.671875,P16,D06,1,1,1
693,0.34,1645192442.6875,P16,D06,1,1,1
694,0.45,1645192442.703125,P16,D06,1,1,1
695,0.57,1645192442.71875,P16,D06,1,1,1
696,0.73,1645192442.734375,P16,D06,1,1,1
697,0.88,1645192442.75,P16,D06,1,1,1
698,0.91,1645192442.765625,P16,D06,1,1,1
699,0.75,1645192442.78125,P16,D06,1,1,1
700,0.39,1645192442.796875,P16,D06,1,1,1
701,-0.11,1645192442.8125,P16,D06,1,1,1
702,-0.6,1645192442.828125,P16,D06,1,1,1
703,-0.97,1645192442.84375,P16,D06,1,1,1
704,-1.15,1645192442.859375,P16,D06,1,1,1
705,-1.18,1645192442.875,P16,D06,1,1,1
706,-1.11,1645192442.890625,P16,D06,1,1,1
707,-1.0,1645192442.90625,P16,D06,1,1,1
708,-0.81,1645192442.921875,P16,D06,1,1,1
709,-0.51,1645192442.9375,P16,D06,1,1,1
710,-0.05,1645192442.953125,P16,D06,1,1,1
711,0.49,1645192442.96875,P16,D06,1,1,1
712,0.98,1645192442.984375,P16,D06,1,1,1
713,1.25,1645192443.0,P16,D06,1,1,1
714,1.23,1645192443.015625,P16,D06,1,1,1
715,0.97,1645192443.03125,P16,D06,1,1,1
716,0.62,1645192443.046875,P16,D06,1,1,1
717,0.36,1645192443.0625,P16,D06,1,1,1
718,0.27,1645192443.078125,P16,D06,1,1,1
719,0.31,1645192443.09375,P16,D06,1,1,1
720,0.35,1645192443.109375,P16,D06,1,1,1
721,0.27,1645192443.125,P16,D06,1,1,1
722,-0.01,1645192443.140625,P16,D06,1,1,1
723,-0.44,1645192443.15625,P16,D06,1,1,1
724,-0.9,1645192443.171875,P16,D06,1,1,1
725,-1.25,1645192443.1875,P16,D06,1,1,1
726,-1.37,1645192443.203125,P16,D06,1,1,1
727,-1.23,1645192443.21875,P16,D06,1,1,1
728,-0.88,1645192443.234375,P16,D06,1,1,1
729,-0.46,1645192443.25,P16,D06,1,1,1
730,-0.12,1645192443.265625,P16,D06,1,1,1
731,0.01,1645192443.28125,P16,D06,1,1,1
732,-0.09,1645192443.296875,P16,D06,1,1,1
733,-0.37,1645192443.3125,P16,D06,1,1,1
734,-0.67,1645192443.328125,P16,D06,1,1,1
735,-0.83,1645192443.34375,P16,D06,1,1,1
736,-0.76,1645192443.359375,P16,D06,1,1,1
737,-0.48,1645192443.375,P16,D06,1,1,1
738,-0.08,1645192443.390625,P16,D06,1,1,1
739,0.31,1645192443.40625,P16,D06,1,1,1
740,0.57,1645192443.421875,P16,D06,1,1,1
741,0.66,1645192443.4375,P16,D06,1,1,1
742,0.58,1645192443.453125,P16,D06,1,1,1
743,0.42,1645192443.46875,P16,D06,1,1,1
744,0.3,1645192443.484375,P16,D06,1,1,1
745,0.33,1645192443.5,P16,D06,1,1,1
746,0.59,1645192443.515625,P16,D06,1,1,1
747,1.06,1645192443.53125,P16,D06,1,1,1
748,1.66,1645192443.546875,P16,D06,1,1,1
749,2.21,1645192443.5625,P16,D06,1,1,1
750,2.54,1645192443.578125,P16,D06,1,1,1
751,2.5,1645192443.59375,P16,D06,1,1,1
752,2.12,1645192443.609375,P16,D06,1,1,1
753,1.52,1645192443.625,P16,D06,1,1,1
754,0.9,1645192443.640625,P16,D06,1,1,1
755,0.44,1645192443.65625,P16,D06,1,1,1
756,0.23,1645192443.671875,P16,D06,1,1,1
757,0.2,1645192443.6875,P16,D06,1,1,1
758,0.24,1645192443.703125,P16,D06,1,1,1
759,0.25,1645192443.71875,P16,D06,1,1,1
760,0.23,1645192443.734375,P16,D06,1,1,1
761,0.27,1645192443.75,P16,D06,1,1,1
762,0.43,1645192443.765625,P16,D06,1,1,1
763,0.74,1645192443.78125,P16,D06,1,1,1
764,1.07,1645192443.796875,P16,D06,1,1,1
765,1.27,1645192443.8125,P16,D06,1,1,1
766,1.24,1645192443.828125,P16,D06,1,1,1
767,1.0,1645192443.84375,P16,D06,1,1,1
768,0.67,1645192443.859375,P16,D06,1,1,1
769,0.42,1645192443.875,P16,D06,1,1,1
770,0.32,1645192443.890625,P16,D06,1,1,1
771,0.33,1645192443.90625,P16,D06,1,1,1
772,0.33,1645192443.921875,P16,D06,1,1,1
773,0.24,1645192443.9375,P16,D06,1,1,1
774,0.05,1645192443.953125,P16,D06,1,1,1
775,-0.18,1645192443.96875,P16,D06,1,1,1
776,-0.33,1645192443.984375,P16,D06,1,1,1
777,-0.36,1645192444.0,P16,D06,1,1,1
778,-0.3,1645192444.015625,P16,D06,1,1,1
779,-0.24,1645192444.03125,P16,D06,1,1,1
780,-0.26,1645192444.046875,P16,D06,1,1,1
781,-0.39,1645192444.0625,P16,D06,1,1,1
782,-0.57,1645192444.078125,P16,D06,1,1,1
783,-0.75,1645192444.09375,P16,D06,1,1,1
784,-0.87,1645192444.109375,P16,D06,1,1,1
785,-0.91,1645192444.125,P16,D06,1,1,1
786,-0.89,1645192444.140625,P16,D06,1,1,1
787,-0.85,1645192444.15625,P16,D06,1,1,1
788,-0.84,1645192444.171875,P16,D06,1,1,1
789,-0.86,1645192444.1875,P16,D06,1,1,1
790,-0.89,1645192444.203125,P16,D06,1,1,1
791,-0.9,1645192444.21875,P16,D06,1,1,1
792,-0.85,1645192444.234375,P16,D06,1,1,1
793,-0.73,1645192444.25,P16,D06,1,1,1
794,-0.53,1645192444.265625,P16,D06,1,1,1
795,-0.26,1645192444.28125,P16,D06,1,1,1
796,0.05,1645192444.296875,P16,D06,1,1,1
797,0.34,1645192444.3125,P16,D06,1,1,1
798,0.58,1645192444.328125,P16,D06,1,1,1
799,0.7,1645192444.34375,P16,D06,1,1,1
800,0.68,1645192444.359375,P16,D06,1,1,1
801,0.53,1645192444.375,P16,D06,1,1,1
802,0.31,1645192444.390625,P16,D06,1,1,1
803,0.07,1645192444.40625,P16,D06,1,1,1
804,-0.17,1645192444.421875,P16,D06,1,1,1
805,-0.39,1645192444.4375,P16,D06,1,1,1
806,-0.61,1645192444.453125,P16,D06,1,1,1
807,-0.85,1645192444.46875,P16,D06,1,1,1
808,-1.1,1645192444.484375,P16,D06,1,1,1
809,-1.3,1645192444.5,P16,D06,1,1,1
810,-1.39,1645192444.515625,P16,D06,1,1,1
811,-1.34,1645192444.53125,P16,D06,1,1,1
812,-1.18,1645192444.546875,P16,D06,1,1,1
813,-1.0,1645192444.5625,P16,D06,1,1,1
814,-0.85,1645192444.578125,P16,D06,1,1,1
815,-0.74,1645192444.59375,P16,D06,1,1,1
816,-0.65,1645192444.609375,P16,D06,1,1,1
817,-0.51,1645192444.625,P16,D06,1,1,1
818,-0.31,1645192444.640625,P16,D06,1,1,1
819,-0.12,1645192444.65625,P16,D06,1,1,1
820,-0.02,1645192444.671875,P16,D06,1,1,1
821,-0.11,1645192444.6875,P16,D06,1,1,1
822,-0.36,1645192444.703125,P16,D06,1,1,1
823,-0.67,1645192444.71875,P16,D06,1,1,1
824,-0.89,1645192444.734375,P16,D06,1,1,1
825,-0.9,1645192444.75,P16,D06,1,1,1
826,-0.68,1645192444.765625,P16,D06,1,1,1
827,-0.3,1645192444.78125,P16,D06,1,1,1
828,0.1,1645192444.796875,P16,D06,1,1,1
829,0.38,1645192444.8125,P16,D06,1,1,1
830,0.45,1645192444.828125,P16,D06,1,1,1
831,0.31,1645192444.84375,P16,D06,1,1,1
832,-0.0,1645192444.859375,P16,D06,1,1,1
833,-0.38,1645192444.875,P16,D06,1,1,1
834,-0.73,1645192444.890625,P16,D06,1,1,1
835,-0.97,1645192444.90625,P16,D06,1,1,1
836,-1.02,1645192444.921875,P16,D06,1,1,1
837,-0.89,1645192444.9375,P16,D06,1,1,1
838,-0.61,1645192444.953125,P16,D06,1,1,1
839,-0.25,1645192444.96875,P16,D06,1,1,1
840,0.12,1645192444.984375,P16,D06,1,1,1
841,0.42,1645192445.0,P16,D06,1,1,1
842,0.65,1645192445.015625,P16,D06,1,1,1
843,0.81,1645192445.03125,P16,D06,1,1,1
844,0.96,1645192445.046875,P16,D06,1,1,1
845,1.12,1645192445.0625,P16,D06,1,1,1
846,1.35,1645192445.078125,P16,D06,1,1,1
847,1.62,1645192445.09375,P16,D06,1,1,1
848,1.91,1645192445.109375,P16,D06,1,1,1
849,2.15,1645192445.125,P16,D06,1,1,1
850,2.28,1645192445.140625,P16,D06,1,1,1
851,2.27,1645192445.15625,P16,D06,1,1,1
852,2.1,1645192445.171875,P16,D06,1,1,1
853,1.8,1645192445.1875,P16,D06,1,1,1
854,1.44,1645192445.203125,P16,D06,1,1,1
855,1.09,1645192445.21875,P16,D06,1,1,1
856,0.79,1645192445.234375,P16,D06,1,1,1
857,0.62,1645192445.25,P16,D06,1,1,1
858,0.57,1645192445.265625,P16,D06,1,1,1
859,0.63,1645192445.28125,P16,D06,1,1,1
860,0.72,1645192445.296875,P16,D06,1,1,1
861,0.75,1645192445.3125,P16,D06,1,1,1
862,0.63,1645192445.328125,P16,D06,1,1,1
863,0.3,1645192445.34375,P16,D06,1,1,1
864,-0.2,1645192445.359375,P16,D06,1,1,1
865,-0.75,1645192445.375,P16,D06,1,1,1
866,-1.23,1645192445.390625,P16,D06,1,1,1
867,-1.54,1645192445.40625,P16,D06,1,1,1
868,-1.67,1645192445.421875,P16,D06,1,1,1
869,-1.69,1645192445.4375,P16,D06,1,1,1
870,-1.7,1645192445.453125,P16,D06,1,1,1
871,-1.76,1645192445.46875,P16,D06,1,1,1
872,-1.87,1645192445.484375,P16,D06,1,1,1
873,-1.93,1645192445.5,P16,D06,1,1,1
874,-1.85,1645192445.515625,P16,D06,1,1,1
875,-1.57,1645192445.53125,P16,D06,1,1,1
876,-1.13,1645192445.546875,P16,D06,1,1,1
877,-0.64,1645192445.5625,P16,D06,1,1,1
878,-0.23,1645192445.578125,P16,D06,1,1,1
879,0.01,1645192445.59375,P16,D06,1,1,1
880,0.04,1645192445.609375,P16,D06,1,1,1
881,-0.08,1645192445.625,P16,D06,1,1,1
882,-0.29,1645192445.640625,P16,D06,1,1,1
883,-0.51,1645192445.65625,P16,D06,1,1,1
884,-0.71,1645192445.671875,P16,D06,1,1,1
885,-0.85,1645192445.6875,P16,D06,1,1,1
886,-0.91,1645192445.703125,P16,D06,1,1,1
887,-0.86,1645192445.71875,P16,D06,1,1,1
888,-0.71,1645192445.734375,P16,D06,1,1,1
889,-0.47,1645192445.75,P16,D06,1,1,1
890,-0.24,1645192445.765625,P16,D06,1,1,1
891,-0.12,1645192445.78125,P16,D06,1,1,1
892,-0.19,1645192445.796875,P16,D06,1,1,1
893,-0.44,1645192445.8125,P16,D06,1,1,1
894,-0.78,1645192445.828125,P16,D06,1,1,1
895,-1.06,1645192445.84375,P16,D06,1,1,1
896,-1.16,1645192445.859375,P16,D06,1,1,1
897,-1.04,1645192445.875,P16,D06,1,1,1
898,-0.76,1645192445.890625,P16,D06,1,1,1
899,-0.45,1645192445.90625,P16,D06,1,1,1
900,-0.2,1645192445.921875,P16,D06,1,1,1
901,-0.05,1645192445.9375,P16,D06,1,1,1
902,0.04,1645192445.953125,P16,D06,1,1,1
903,0.11,1645192445.96875,P16,D06,1,1,1
904,0.18,1645192445.984375,P16,D06,1,1,1
905,0.24,1645192446.0,P16,D06,1,1,1
906,0.27,1645192446.015625,P16,D06,1,1,1
907,0.26,1645192446.03125,P16,D06,1,1,1
908,0.23,1645192446.046875,P16,D06,1,1,1
909,0.18,1645192446.0625,P16,D06,1,1,1
910,0.11,1645192446.078125,P16,D06,1,1,1
911,-0.01,1645192446.09375,P16,D06,1,1,1
912,-0.22,1645192446.109375,P16,D06,1,1,1
913,-0.53,1645192446.125,P16,D06,1,1,1
914,-0.92,1645192446.140625,P16,D06,1,1,1
915,-1.28,1645192446.15625,P16,D06,1,1,1
916,-1.54,1645192446.171875,P16,D06,1,1,1
917,-1.61,1645192446.1875,P16,D06,1,1,1
918,-1.5,1645192446.203125,P16,D06,1,1,1
919,-1.28,1645192446.21875,P16,D06,1,1,1
920,-1.03,1645192446.234375,P16,D06,1,1,1
921,-0.85,1645192446.25,P16,D06,1,1,1
922,-0.78,1645192446.265625,P16,D06,1,1,1
923,-0.8,1645192446.28125,P16,D06,1,1,1
924,-0.81,1645192446.296875,P16,D06,1,1,1
925,-0.67,1645192446.3125,P16,D06,1,1,1
926,-0.32,1645192446.328125,P16,D06,1,1,1
927,0.2,1645192446.34375,P16,D06,1,1,1
928,0.77,1645192446.359375,P16,D06,1,1,1
929,1.19,1645192446.375,P16,D06,1,1,1
930,1.31,1645192446.390625,P16,D06,1,1,1
931,1.13,1645192446.40625,P16,D06,1,1,1
932,0.79,1645192446.421875,P16,D06,1,1,1
933,0.46,1645192446.4375,P16,D06,1,1,1
934,0.29,1645192446.453125,P16,D06,1,1,1
935,0.36,1645192446.46875,P16,D06,1,1,1
936,0.58,1645192446.484375,P16,D06,1,1,1
937,0.86,1645192446.5,P16,D06,1,1,1
938,1.08,1645192446.515625,P16,D06,1,1,1
939,1.16,1645192446.53125,P16,D06,1,1,1
940,1.09,1645192446.546875,P16,D06,1,1,1
941,0.9,1645192446.5625,P16,D06,1,1,1
942,0.64,1645192446.578125,P16,D06,1,1,1
943,0.38,1645192446.59375,P16,D06,1,1,1
944,0.2,1645192446.609375,P16,D06,1,1,1
945,0.12,1645192446.625,P16,D06,1,1,1
946,0.14,1645192446.640625,P16,D06,1,1,1
947,0.2,1645192446.65625,P16,D06,1,1,1
948,0.23,1645192446.671875,P16,D06,1,1,1
949,0.22,1645192446.6875,P16,D06,1,1,1
950,0.16,1645192446.703125,P16,D06,1,1,1
951,0.13,1645192446.71875,P16,D06,1,1,1
952,0.18,1645192446.734375,P16,D06,1,1,1
953,0.36,1645192446.75,P16,D06,1,1,1
954,0.68,1645192446.765625,P16,D06,1,1,1
955,1.08,1645192446.78125,P16,D06,1,1,1
956,1.5,1645192446.796875,P16,D06,1,1,1
957,1.83,1645192446.8125,P16,D06,1,1,1
958,2.02,1645192446.828125,P16,D06,1,1,1
959,2.02,1645192446.84375,P16,D06,1,1,1
960,1.87,1645192446.859375,P16,D06,1,1,1
961,1.65,1645192446.875,P16,D06,1,1,1
962,1.48,1645192446.890625,P16,D06,1,1,1
963,1.43,1645192446.90625,P16,D06,1,1,1
964,1.49,1645192446.921875,P16,D06,1,1,1
965,1.57,1645192446.9375,P16,D06,1,1,1
966,1.56,1645192446.953125,P16,D06,1,1,1
967,1.37,1645192446.96875,P16,D06,1,1,1
968,0.99,1645192446.984375,P16,D06,1,1,1
969,0.51,1645192447.0,P16,D06,1,1,1
970,0.05,1645192447.015625,P16,D06,1,1,1
971,-0.28,1645192447.03125,P16,D06,1,1,1
972,-0.42,1645192447.046875,P16,D06,1,1,1
973,-0.4,1645192447.0625,P16,D06,1,1,1
974,-0.27,1645192447.078125,P16,D06,1,1,1
975,-0.1,1645192447.09375,P16,D06,1,1,1
976,0.04,1645192447.109375,P16,D06,1,1,1
977,0.14,1645192447.125,P16,D06,1,1,1
978,0.18,1645192447.140625,P16,D06,1,1,1
979,0.18,1645192447.15625,P16,D06,1,1,1
980,0.15,1645192447.171875,P16,D06,1,1,1
981,0.12,1645192447.1875,P16,D06,1,1,1
982,0.08,1645192447.203125,P16,D06,1,1,1
983,0.03,1645192447.21875,P16,D06,1,1,1
984,-0.03,1645192447.234375,P16,D06,1,1,1
985,-0.11,1645192447.25,P16,D06,1,1,1
986,-0.22,1645192447.265625,P16,D06,1,1,1
987,-0.32,1645192447.28125,P16,D06,1,1,1
988,-0.42,1645192447.296875,P16,D06,1,1,1
989,-0.5,1645192447.3125,P16,D06,1,1,1
990,-0.56,1645192447.328125,P16,D06,1,1,1
991,-0.61,1645192447.34375,P16,D06,1,1,1
992,-0.66,1645192447.359375,P16,D06,1,1,1
993,-0.69,1645192447.375,P16,D06,1,1,1
994,-0.7,1645192447.390625,P16,D06,1,1,1
995,-0.68,1645192447.40625,P16,D06,1,1,1
996,-0.63,1645192447.421875,P16,D06,1,1,1
997,-0.56,1645192447.4375,P16,D06,1,1,1
998,-0.47,1645192447.453125,P16,D06,1,1,1
999,-0.37,1645192447.46875,P16,D06,1,1,1
1000,-0.27,1645192447.484375,P16,D06,1,1,1
1001,-0.22,1645192447.5,P16,D06,1,1,1
1002,-0.25,1645192447.515625,P16,D06,1,1,1
1003,-0.39,1645192447.53125,P16,D06,1,1,1
1004,-0.62,1645192447.546875,P16,D06,1,1,1
1005,-0.84,1645192447.5625,P16,D06,1,1,1
1006,-0.96,1645192447.578125,P16,D06,1,1,1
1007,-0.9,1645192447.59375,P16,D06,1,1,1
1008,-0.66,1645192447.609375,P16,D06,1,1,1
1009,-0.33,1645192447.625,P16,D06,1,1,1
1010,-0.06,1645192447.640625,P16,D06,1,1,1
1011,0.04,1645192447.65625,P16,D06,1,1,1
1012,-0.09,1645192447.671875,P16,D06,1,1,1
1013,-0.4,1645192447.6875,P16,D06,1,1,1
1014,-0.76,1645192447.703125,P16,D06,1,1,1
1015,-1.03,1645192447.71875,P16,D06,1,1,1
1016,-1.12,1645192447.734375,P16,D06,1,1,1
1017,-0.99,1645192447.75,P16,D06,1,1,1
1018,-0.74,1645192447.765625,P16,D06,1,1,1
1019,-0.51,1645192447.78125,P16,D06,1,1,1
1020,-0.41,1645192447.796875,P16,D06,1,1,1
1021,-0.53,1645192447.8125,P16,D06,1,1,1
1022,-0.8,1645192447.828125,P16,D06,1,1,1
1023,-1.11,1645192447.84375,P16,D06,1,1,1
1024,-1.35,1645192447.859375,P16,D06,1,1,1
1025,-1.44,1645192447.875,P16,D06,1,1,1
1026,-1.43,1645192447.890625,P16,D06,1,1,1
1027,-1.39,1645192447.90625,P16,D06,1,1,1
1028,-1.38,1645192447.921875,P16,D06,1,1,1
1029,-1.41,1645192447.9375,P16,D06,1,1,1
1030,-1.39,1645192447.953125,P16,D06,1,1,1
1031,-1.23,1645192447.96875,P16,D06,1,1,1
1032,-0.91,1645192447.984375,P16,D06,1,1,1
1033,-0.5,1645192448.0,P16,D06,1,1,1
1034,-0.13,1645192448.015625,P16,D06,1,1,1
1035,0.06,1645192448.03125,P16,D06,1,1,1
1036,0.02,1645192448.046875,P16,D06,1,1,1
1037,-0.2,1645192448.0625,P16,D06,1,1,1
1038,-0.47,1645192448.078125,P16,D06,1,1,1
1039,-0.67,1645192448.09375,P16,D06,1,1,1
1040,-0.75,1645192448.109375,P16,D06,1,1,1
1041,-0.72,1645192448.125,P16,D06,1,1,1
1042,-0.65,1645192448.140625,P16,D06,1,1,1
1043,-0.59,1645192448.15625,P16,D06,1,1,1
1044,-0.51,1645192448.171875,P16,D06,1,1,1
1045,-0.36,1645192448.1875,P16,D06,1,1,1
1046,-0.1,1645192448.203125,P16,D06,1,1,1
1047,0.26,1645192448.21875,P16,D06,1,1,1
1048,0.63,1645192448.234375,P16,D06,1,1,1
1049,0.89,1645192448.25,P16,D06,1,1,1
1050,0.93,1645192448.265625,P16,D06,1,1,1
1051,0.77,1645192448.28125,P16,D06,1,1,1
1052,0.51,1645192448.296875,P16,D06,1,1,1
1053,0.3,1645192448.3125,P16,D06,1,1,1
1054,0.24,1645192448.328125,P16,D06,1,1,1
1055,0.35,1645192448.34375,P16,D06,1,1,1
1056,0.53,1645192448.359375,P16,D06,1,1,1
1057,0.61,1645192448.375,P16,D06,1,1,1
1058,0.51,1645192448.390625,P16,D06,1,1,1
1059,0.23,1645192448.40625,P16,D06,1,1,1
1060,-0.08,1645192448.421875,P16,D06,1,1,1
1061,-0.26,1645192448.4375,P16,D06,1,1,1
1062,-0.22,1645192448.453125,P16,D06,1,1,1
1063,-0.01,1645192448.46875,P16,D06,1,1,1
1064,0.19,1645192448.484375,P16,D06,1,1,1
1065,0.2,1645192448.5,P16,D06,1,1,1
1066,-0.06,1645192448.515625,P16,D06,1,1,1
1067,-0.49,1645192448.53125,P16,D06,1,1,1
1068,-0.92,1645192448.546875,P16,D06,1,1,1
1069,-1.14,1645192448.5625,P16,D06,1,1,1
1070,-1.11,1645192448.578125,P16,D06,1,1,1
1071,-0.87,1645192448.59375,P16,D06,1,1,1
1072,-0.6,1645192448.609375,P16,D06,1,1,1
1073,-0.41,1645192448.625,P16,D06,1,1,1
1074,-0.34,1645192448.640625,P16,D06,1,1,1
1075,-0.33,1645192448.65625,P16,D06,1,1,1
1076,-0.3,1645192448.671875,P16,D06,1,1,1
1077,-0.2,1645192448.6875,P16,D06,1,1,1
1078,-0.06,1645192448.703125,P16,D06,1,1,1
1079,0.08,1645192448.71875,P16,D06,1,1,1
1080,0.19,1645192448.734375,P16,D06,1,1,1
1081,0.28,1645192448.75,P16,D06,1,1,1
1082,0.35,1645192448.765625,P16,D06,1,1,1
1083,0.38,1645192448.78125,P16,D06,1,1,1
1084,0.34,1645192448.796875,P16,D06,1,1,1
1085,0.21,1645192448.8125,P16,D06,1,1,1
1086,0.03,1645192448.828125,P16,D06,1,1,1
1087,-0.09,1645192448.84375,P16,D06,1,1,1
1088,-0.04,1645192448.859375,P16,D06,1,1,1
1089,0.26,1645192448.875,P16,D06,1,1,1
1090,0.75,1645192448.890625,P16,D06,1,1,1
1091,1.28,1645192448.90625,P16,D06,1,1,1
1092,1.68,1645192448.921875,P16,D06,1,1,1
1093,1.84,1645192448.9375,P16,D06,1,1,1
1094,1.75,1645192448.953125,P16,D06,1,1,1
1095,1.5,1645192448.96875,P16,D06,1,1,1
1096,1.2,1645192448.984375,P16,D06,1,1,1
1097,0.96,1645192449.0,P16,D06,1,1,1
1098,0.85,1645192449.015625,P16,D06,1,1,1
1099,0.85,1645192449.03125,P16,D06,1,1,1
1100,0.92,1645192449.046875,P16,D06,1,1,1
1101,1.0,1645192449.0625,P16,D06,1,1,1
1102,1.02,1645192449.078125,P16,D06,1,1,1
1103,0.98,1645192449.09375,P16,D06,1,1,1
1104,0.92,1645192449.109375,P16,D06,1,1,1
1105,0.89,1645192449.125,P16,D06,1,1,1
1106,0.91,1645192449.140625,P16,D06,1,1,1
1107,0.95,1645192449.15625,P16,D06,1,1,1
1108,0.92,1645192449.171875,P16,D06,1,1,1
1109,0.77,1645192449.1875,P16,D06,1,1,1
1110,0.52,1645192449.203125,P16,D06,1,1,1
1111,0.29,1645192449.21875,P16,D06,1,1,1
1112,0.24,1645192449.234375,P16,D06,1,1,1
1113,0.45,1645192449.25,P16,D06,1,1,1
1114,0.86,1645192449.265625,P16,D06,1,1,1
1115,1.28,1645192449.28125,P16,D06,1,1,1
1116,1.48,1645192449.296875,P16,D06,1,1,1
1117,1.31,1645192449.3125,P16,D06,1,1,1
1118,0.82,1645192449.328125,P16,D06,1,1,1
1119,0.21,1645192449.34375,P16,D06,1,1,1
1120,-0.27,1645192449.359375,P16,D06,1,1,1
1121,-0.44,1645192449.375,P16,D06,1,1,1
1122,-0.29,1645192449.390625,P16,D06,1,1,1
1123,0.07,1645192449.40625,P16,D06,1,1,1
1124,0.47,1645192449.421875,P16,D06,1,1,1
1125,0.8,1645192449.4375,P16,D06,1,1,1
1126,1.03,1645192449.453125,P16,D06,1,1,1
1127,1.18,1645192449.46875,P16,D06,1,1,1
1128,1.29,1645192449.484375,P16,D06,1,1,1
1129,1.33,1645192449.5,P16,D06,1,1,1
1130,1.27,1645192449.515625,P16,D06,1,1,1
1131,1.09,1645192449.53125,P16,D06,1,1,1
1132,0.83,1645192449.546875,P16,D06,1,1,1
1133,0.59,1645192449.5625,P16,D06,1,1,1
1134,0.44,1645192449.578125,P16,D06,1,1,1
1135,0.41,1645192449.59375,P16,D06,1,1,1
1136,0.43,1645192449.609375,P16,D06,1,1,1
1137,0.4,1645192449.625,P16,D06,1,1,1
1138,0.23,1645192449.640625,P16,D06,1,1,1
1139,-0.05,1645192449.65625,P16,D06,1,1,1
1140,-0.36,1645192449.671875,P16,D06,1,1,1
1141,-0.58,1645192449.6875,P16,D06,1,1,1
1142,-0.64,1645192449.703125,P16,D06,1,1,1
1143,-0.56,1645192449.71875,P16,D06,1,1,1
1144,-0.44,1645192449.734375,P16,D06,1,1,1
1145,-0.39,1645192449.75,P16,D06,1,1,1
1146,-0.49,1645192449.765625,P16,D06,1,1,1
1147,-0.75,1645192449.78125,P16,D06,1,1,1
1148,-1.06,1645192449.796875,P16,D06,1,1,1
1149,-1.32,1645192449.8125,P16,D06,1,1,1
1150,-1.4,1645192449.828125,P16,D06,1,1,1
1151,-1.28,1645192449.84375,P16,D06,1,1,1
1152,-1.0,1645192449.859375,P16,D06,1,1,1
1153,-0.67,1645192449.875,P16,D06,1,1,1
1154,-0.43,1645192449.890625,P16,D06,1,1,1
1155,-0.32,1645192449.90625,P16,D06,1,1,1
1156,-0.35,1645192449.921875,P16,D06,1,1,1
1157,-0.48,1645192449.9375,P16,D06,1,1,1
1158,-0.65,1645192449.953125,P16,D06,1,1,1
1159,-0.88,1645192449.96875,P16,D06,1,1,1
1160,-1.18,1645192449.984375,P16,D06,1,1,1
1161,-1.58,1645192450.0,P16,D06,1,1,1
1162,-2.05,1645192450.015625,P16,D06,1,1,1
1163,-2.49,1645192450.03125,P16,D06,1,1,1
1164,-2.76,1645192450.046875,P16,D06,1,1,1
1165,-2.74,1645192450.0625,P16,D06,1,1,1
1166,-2.41,1645192450.078125,P16,D06,1,1,1
1167,-1.86,1645192450.09375,P16,D06,1,1,1
1168,-1.25,1645192450.109375,P16,D06,1,1,1
1169,-0.76,1645192450.125,P16,D06,1,1,1
1170,-0.48,1645192450.140625,P16,D06,1,1,1
1171,-0.41,1645192450.15625,P16,D06,1,1,1
1172,-0.47,1645192450.171875,P16,D06,1,1,1
1173,-0.54,1645192450.1875,P16,D06,1,1,1
1174,-0.54,1645192450.203125,P16,D06,1,1,1
1175,-0.49,1645192450.21875,P16,D06,1,1,1
1176,-0.44,1645192450.234375,P16,D06,1,1,1
1177,-0.47,1645192450.25,P16,D06,1,1,1
1178,-0.6,1645192450.265625,P16,D06,1,1,1
1179,-0.78,1645192450.28125,P16,D06,1,1,1
1180,-0.89,1645192450.296875,P16,D06,1,1,1
1181,-0.81,1645192450.3125,P16,D06,1,1,1
1182,-0.47,1645192450.328125,P16,D06,1,1,1
1183,0.07,1645192450.34375,P16,D06,1,1,1
1184,0.65,1645192450.359375,P16,D06,1,1,1
1185,1.08,1645192450.375,P16,D06,1,1,1
1186,1.21,1645192450.390625,P16,D06,1,1,1
1187,1.03,1645192450.40625,P16,D06,1,1,1
1188,0.65,1645192450.421875,P16,D06,1,1,1
1189,0.26,1645192450.4375,P16,D06,1,1,1
1190,0.02,1645192450.453125,P16,D06,1,1,1
1191,-0.02,1645192450.46875,P16,D06,1,1,1
1192,0.03,1645192450.484375,P16,D06,1,1,1
1193,0.04,1645192450.5,P16,D06,1,1,1
1194,-0.1,1645192450.515625,P16,D06,1,1,1
1195,-0.38,1645192450.53125,P16,D06,1,1,1
1196,-0.71,1645192450.546875,P16,D06,1,1,1
1197,-0.99,1645192450.5625,P16,D06,1,1,1
1198,-1.15,1645192450.578125,P16,D06,1,1,1
1199,-1.21,1645192450.59375,P16,D06,1,1,1
1200,-1.2,1645192450.609375,P16,D06,1,1,1
1201,-1.11,1645192450.625,P16,D06,1,1,1
1202,-0.86,1645192450.640625,P16,D06,1,1,1
1203,-0.39,1645192450.65625,P16,D06,1,1,1
1204,0.29,1645192450.671875,P16,D06,1,1,1
1205,1.05,1645192450.6875,P16,D06,1,1,1
1206,1.65,1645192450.703125,P16,D06,1,1,1
1207,1.9,1645192450.71875,P16,D06,1,1,1
1208,1.75,1645192450.734375,P16,D06,1,1,1
1209,1.33,1645192450.75,P16,D06,1,1,1
1210,0.87,1645192450.765625,P16,D06,1,1,1
1211,0.59,1645192450.78125,P16,D06,1,1,1
1212,0.59,1645192450.796875,P16,D06,1,1,1
1213,0.79,1645192450.8125,P16,D06,1,1,1
1214,1.03,1645192450.828125,P16,D06,1,1,1
1215,1.17,1645192450.84375,P16,D06,1,1,1
1216,1.15,1645192450.859375,P16,D06,1,1,1
1217,0.99,1645192450.875,P16,D06,1,1,1
1218,0.79,1645192450.890625,P16,D06,1,1,1
1219,0.63,1645192450.90625,P16,D06,1,1,1
1220,0.52,1645192450.921875,P16,D06,1,1,1
1221,0.48,1645192450.9375,P16,D06,1,1,1
1222,0.48,1645192450.953125,P16,D06,1,1,1
1223,0.53,1645192450.96875,P16,D06,1,1,1
1224,0.59,1645192450.984375,P16,D06,1,1,1
1225,0.65,1645192451.0,P16,D06,1,1,1
1226,0.66,1645192451.015625,P16,D06,1,1,1
1227,0.6,1645192451.03125,P16,D06,1,1,1
1228,0.48,1645192451.046875,P16,D06,1,1,1
1229,0.4,1645192451.0625,P16,D06,1,1,1
1230,0.43,1645192451.078125,P16,D06,1,1,1
1231,0.62,1645192451.09375,P16,D06,1,1,1
1232,0.92,1645192451.109375,P16,D06,1,1,1
1233,1.17,1645192451.125,P16,D06,1,1,1
1234,1.19,1645192451.140625,P16,D06,1,1,1
1235,0.85,1645192451.15625,P16,D06,1,1,1
1236,0.18,1645192451.171875,P16,D06,1,1,1
1237,-0.66,1645192451.1875,P16,D06,1,1,1
1238,-1.41,1645192451.203125,P16,D06,1,1,1
1239,-1.84,1645192451.21875,P16,D06,1,1,1
1240,-1.82,1645192451.234375,P16,D06,1,1,1
1241,-1.44,1645192451.25,P16,D06,1,1,1
1242,-0.9,1645192451.265625,P16,D06,1,1,1
1243,-0.48,1645192451.28125,P16,D06,1,1,1
1244,-0.34,1645192451.296875,P16,D06,1,1,1
1245,-0.54,1645192451.3125,P16,D06,1,1,1
1246,-0.94,1645192451.328125,P16,D06,1,1,1
1247,-1.38,1645192451.34375,P16,D06,1,1,1
1248,-1.67,1645192451.359375,P16,D06,1,1,1
1249,-1.71,1645192451.375,P16,D06,1,1,1
1250,-1.49,1645192451.390625,P16,D06,1,1,1
1251,-1.07,1645192451.40625,P16,D06,1,1,1
1252,-0.55,1645192451.421875,P16,D06,1,1,1
1253,0.02,1645192451.4375,P16,D06,1,1,1
1254,0.58,1645192451.453125,P16,D06,1,1,1
1255,1.08,1645192451.46875,P16,D06,1,1,1
1256,1.46,1645192451.484375,P16,D06,1,1,1
1257,1.65,1645192451.5,P16,D06,1,1,1
1258,1.58,1645192451.515625,P16,D06,1,1,1
1259,1.25,1645192451.53125,P16,D06,1,1,1
1260,0.73,1645192451.546875,P16,D06,1,1,1
1261,0.16,1645192451.5625,P16,D06,1,1,1
1262,-0.31,1645192451.578125,P16,D06,1,1,1
1263,-0.58,1645192451.59375,P16,D06,1,1,1
1264,-0.61,1645192451.609375,P16,D06,1,1,1
1265,-0.49,1645192451.625,P16,D06,1,1,1
1266,-0.31,1645192451.640625,P16,D06,1,1,1
1267,-0.21,1645192451.65625,P16,D06,1,1,1
1268,-0.24,1645192451.671875,P16,D06,1,1,1
1269,-0.38,1645192451.6875,P16,D06,1,1,1
1270,-0.55,1645192451.703125,P16,D06,1,1,1
1271,-0.67,1645192451.71875,P16,D06,1,1,1
1272,-0.65,1645192451.734375,P16,D06,1,1,1
1273,-0.47,1645192451.75,P16,D06,1,1,1
1274,-0.13,1645192451.765625,P16,D06,1,1,1
1275,0.33,1645192451.78125,P16,D06,1,1,1
1276,0.81,1645192451.796875,P16,D06,1,1,1
1277,1.25,1645192451.8125,P16,D06,1,1,1
1278,1.55,1645192451.828125,P16,D06,1,1,1
1279,1.65,1645192451.84375,P16,D06,1,1,1
1280,1.54,1645192451.859375,P16,D06,1,1,1
1281,1.23,1645192451.875,P16,D06,1,1,1
1282,0.79,1645192451.890625,P16,D06,1,1,1
1283,0.3,1645192451.90625,P16,D06,1,1,1
1284,-0.14,1645192451.921875,P16,D06,1,1,1
1285,-0.46,1645192451.9375,P16,D06,1,1,1
1286,-0.64,1645192451.953125,P16,D06,1,1,1
1287,-0.71,1645192451.96875,P16,D06,1,1,1
1288,-0.76,1645192451.984375,P16,D06,1,1,1
1289,-0.85,1645192452.0,P16,D06,1,1,1
1290,-1.04,1645192452.015625,P16,D06,1,1,1
1291,-1.3,1645192452.03125,P16,D06,1,1,1
1292,-1.55,1645192452.046875,P16,D06,1,1,1
1293,-1.66,1645192452.0625,P16,D06,1,1,1
1294,-1.56,1645192452.078125,P16,D06,1,1,1
1295,-1.19,1645192452.09375,P16,D06,1,1,1
1296,-0.62,1645192452.109375,P16,D06,1,1,1
1297,0.01,1645192452.125,P16,D06,1,1,1
1298,0.54,1645192452.140625,P16,D06,1,1,1
1299,0.83,1645192452.15625,P16,D06,1,1,1
1300,0.83,1645192452.171875,P16,D06,1,1,1
1301,0.63,1645192452.1875,P16,D06,1,1,1
1302,0.36,1645192452.203125,P16,D06,1,1,1
1303,0.16,1645192452.21875,P16,D06,1,1,1
1304,0.1,1645192452.234375,P16,D06,1,1,1
1305,0.14,1645192452.25,P16,D06,1,1,1
1306,0.2,1645192452.265625,P16,D06,1,1,1
1307,0.23,1645192452.28125,P16,D06,1,1,1
1308,0.22,1645192452.296875,P16,D06,1,1,1
1309,0.23,1645192452.3125,P16,D06,1,1,1
1310,0.34,1645192452.328125,P16,D06,1,1,1
1311,0.56,1645192452.34375,P16,D06,1,1,1
1312,0.85,1645192452.359375,P16,D06,1,1,1
1313,1.07,1645192452.375,P16,D06,1,1,1
1314,1.14,1645192452.390625,P16,D06,1,1,1
1315,1.01,1645192452.40625,P16,D06,1,1,1
1316,0.72,1645192452.421875,P16,D06,1,1,1
1317,0.32,1645192452.4375,P16,D06,1,1,1
1318,-0.14,1645192452.453125,P16,D06,1,1,1
1319,-0.62,1645192452.46875,P16,D06,1,1,1
1320,-1.09,1645192452.484375,P16,D06,1,1,1
1321,-1.48,1645192452.5,P16,D06,1,1,1
1322,-1.67,1645192452.515625,P16,D06,1,1,1
1323,-1.55,1645192452.53125,P16,D06,1,1,1
1324,-1.08,1645192452.546875,P16,D06,1,1,1
1325,-0.36,1645192452.5625,P16,D06,1,1,1
1326,0.38,1645192452.578125,P16,D06,1,1,1
1327,0.9,1645192452.59375,P16,D06,1,1,1
1328,1.03,1645192452.609375,P16,D06,1,1,1
1329,0.81,1645192452.625,P16,D06,1,1,1
1330,0.39,1645192452.640625,P16,D06,1,1,1
1331,-0.03,1645192452.65625,P16,D06,1,1,1
1332,-0.33,1645192452.671875,P16,D06,1,1,1
1333,-0.51,1645192452.6875,P16,D06,1,1,1
1334,-0.63,1645192452.703125,P16,D06,1,1,1
1335,-0.72,1645192452.71875,P16,D06,1,1,1
1336,-0.76,1645192452.734375,P16,D06,1,1,1
1337,-0.65,1645192452.75,P16,D06,1,1,1
1338,-0.34,1645192452.765625,P16,D06,1,1,1
1339,0.09,1645192452.78125,P16,D06,1,1,1
1340,0.47,1645192452.796875,P16,D06,1,1,1
1341,0.64,1645192452.8125,P16,D06,1,1,1
1342,0.5,1645192452.828125,P16,D06,1,1,1
1343,0.14,1645192452.84375,P16,D06,1,1,1
1344,-0.28,1645192452.859375,P16,D06,1,1,1
1345,-0.63,1645192452.875,P16,D06,1,1,1
1346,-0.88,1645192452.890625,P16,D06,1,1,1
1347,-1.12,1645192452.90625,P16,D06,1,1,1
1348,-1.43,1645192452.921875,P16,D06,1,1,1
1349,-1.83,1645192452.9375,P16,D06,1,1,1
1350,-2.25,1645192452.953125,P16,D06,1,1,1
1351,-2.57,1645192452.96875,P16,D06,1,1,1
1352,-2.69,1645192452.984375,P16,D06,1,1,1
1353,-2.56,1645192453.0,P16,D06,1,1,1
1354,-2.22,1645192453.015625,P16,D06,1,1,1
1355,-1.71,1645192453.03125,P16,D06,1,1,1
1356,-1.08,1645192453.046875,P16,D06,1,1,1
1357,-0.37,1645192453.0625,P16,D06,1,1,1
1358,0.35,1645192453.078125,P16,D06,1,1,1
1359,0.98,1645192453.09375,P16,D06,1,1,1
1360,1.43,1645192453.109375,P16,D06,1,1,1
1361,1.64,1645192453.125,P16,D06,1,1,1
1362,1.67,1645192453.140625,P16,D06,1,1,1
1363,1.6,1645192453.15625,P16,D06,1,1,1
1364,1.57,1645192453.171875,P16,D06,1,1,1
1365,1.67,1645192453.1875,P16,D06,1,1,1
1366,1.92,1645192453.203125,P16,D06,1,1,1
1367,2.28,1645192453.21875,P16,D06,1,1,1
1368,2.66,1645192453.234375,P16,D06,1,1,1
1369,2.99,1645192453.25,P16,D06,1,1,1
1370,3.18,1645192453.265625,P16,D06,1,1,1
1371,3.2,1645192453.28125,P16,D06,1,1,1
1372,3.03,1645192453.296875,P16,D06,1,1,1
1373,2.75,1645192453.3125,P16,D06,1,1,1
1374,2.41,1645192453.328125,P16,D06,1,1,1
1375,2.09,1645192453.34375,P16,D06,1,1,1
1376,1.8,1645192453.359375,P16,D06,1,1,1
1377,1.52,1645192453.375,P16,D06,1,1,1
1378,1.23,1645192453.390625,P16,D06,1,1,1
1379,0.93,1645192453.40625,P16,D06,1,1,1
1380,0.68,1645192453.421875,P16,D06,1,1,1
1381,0.52,1645192453.4375,P16,D06,1,1,1
1382,0.5,1645192453.453125,P16,D06,1,1,1
1383,0.57,1645192453.46875,P16,D06,1,1,1
1384,0.65,1645192453.484375,P16,D06,1,1,1
1385,0.64,1645192453.5,P16,D06,1,1,1
1386,0.48,1645192453.515625,P16,D06,1,1,1
1387,0.21,1645192453.53125,P16,D06,1,1,1
1388,-0.11,1645192453.546875,P16,D06,1,1,1
1389,-0.4,1645192453.5625,P16,D06,1,1,1
1390,-0.62,1645192453.578125,P16,D06,1,1,1
1391,-0.81,1645192453.59375,P16,D06,1,1,1
1392,-1.03,1645192453.609375,P16,D06,1,1,1
1393,-1.3,1645192453.625,P16,D06,1,1,1
1394,-1.59,1645192453.640625,P16,D06,1,1,1
1395,-1.81,1645192453.65625,P16,D06,1,1,1
1396,-1.87,1645192453.671875,P16,D06,1,1,1
1397,-1.69,1645192453.6875,P16,D06,1,1,1
1398,-1.28,1645192453.703125,P16,D06,1,1,1
1399,-0.79,1645192453.71875,P16,D06,1,1,1
1400,-0.38,1645192453.734375,P16,D06,1,1,1
1401,-0.25,1645192453.75,P16,D06,1,1,1
1402,-0.5,1645192453.765625,P16,D06,1,1,1
1403,-1.08,1645192453.78125,P16,D06,1,1,1
1404,-1.82,1645192453.796875,P16,D06,1,1,1
1405,-2.47,1645192453.8125,P16,D06,1,1,1
1406,-2.85,1645192453.828125,P16,D06,1,1,1
1407,-2.83,1645192453.84375,P16,D06,1,1,1
1408,-2.44,1645192453.859375,P16,D06,1,1,1
1409,-1.77,1645192453.875,P16,D06,1,1,1
1410,-0.96,1645192453.890625,P16,D06,1,1,1
1411,-0.12,1645192453.90625,P16,D06,1,1,1
1412,0.64,1645192453.921875,P16,D06,1,1,1
1413,1.23,1645192453.9375,P16,D06,1,1,1
1414,1.56,1645192453.953125,P16,D06,1,1,1
1415,1.59,1645192453.96875,P16,D06,1,1,1
1416,1.33,1645192453.984375,P16,D06,1,1,1
1417,0.89,1645192454.0,P16,D06,1,1,1
1418,0.41,1645192454.015625,P16,D06,1,1,1
1419,0.03,1645192454.03125,P16,D06,1,1,1
1420,-0.15,1645192454.046875,P16,D06,1,1,1
1421,-0.1,1645192454.0625,P16,D06,1,1,1
1422,0.19,1645192454.078125,P16,D06,1,1,1
1423,0.64,1645192454.09375,P16,D06,1,1,1
1424,1.2,1645192454.109375,P16,D06,1,1,1
1425,1.77,1645192454.125,P16,D06,1,1,1
1426,2.28,1645192454.140625,P16,D06,1,1,1
1427,2.61,1645192454.15625,P16,D06,1,1,1
1428,2.7,1645192454.171875,P16,D06,1,1,1
1429,2.47,1645192454.1875,P16,D06,1,1,1
1430,1.95,1645192454.203125,P16,D06,1,1,1
1431,1.19,1645192454.21875,P16,D06,1,1,1
1432,0.32,1645192454.234375,P16,D06,1,1,1
1433,-0.48,1645192454.25,P16,D06,1,1,1
1434,-1.01,1645192454.265625,P16,D06,1,1,1
1435,-1.1,1645192454.28125,P16,D06,1,1,1
1436,-0.75,1645192454.296875,P16,D06,1,1,1
1437,-0.08,1645192454.3125,P16,D06,1,1,1
1438,0.62,1645192454.328125,P16,D06,1,1,1
1439,1.04,1645192454.34375,P16,D06,1,1,1
1440,0.96,1645192454.359375,P16,D06,1,1,1
1441,0.38,1645192454.375,P16,D06,1,1,1
1442,-0.57,1645192454.390625,P16,D06,1,1,1
1443,-1.63,1645192454.40625,P16,D06,1,1,1
1444,-2.59,1645192454.421875,P16,D06,1,1,1
1445,-3.36,1645192454.4375,P16,D06,1,1,1
1446,-3.9,1645192454.453125,P16,D06,1,1,1
1447,-4.2,1645192454.46875,P16,D06,1,1,1
1448,-4.26,1645192454.484375,P16,D06,1,1,1
1449,-4.04,1645192454.5,P16,D06,1,1,1
1450,-3.55,1645192454.515625,P16,D06,1,1,1
1451,-2.89,1645192454.53125,P16,D06,1,1,1
1452,-2.23,1645192454.546875,P16,D06,1,1,1
1453,-1.78,1645192454.5625,P16,D06,1,1,1
1454,-1.66,1645192454.578125,P16,D06,1,1,1
1455,-1.84,1645192454.59375,P16,D06,1,1,1
1456,-2.14,1645192454.609375,P16,D06,1,1,1
1457,-2.35,1645192454.625,P16,D06,1,1,1
1458,-2.29,1645192454.640625,P16,D06,1,1,1
1459,-1.88,1645192454.65625,P16,D06,1,1,1
1460,-1.18,1645192454.671875,P16,D06,1,1,1
1461,-0.27,1645192454.6875,P16,D06,1,1,1
1462,0.76,1645192454.703125,P16,D06,1,1,1
1463,1.85,1645192454.71875,P16,D06,1,1,1
1464,2.94,1645192454.734375,P16,D06,1,1,1
1465,3.93,1645192454.75,P16,D06,1,1,1
1466,4.68,1645192454.765625,P16,D06,1,1,1
1467,5.06,1645192454.78125,P16,D06,1,1,1
1468,4.99,1645192454.796875,P16,D06,1,1,1
1469,4.52,1645192454.8125,P16,D06,1,1,1
1470,3.79,1645192454.828125,P16,D06,1,1,1
1471,2.97,1645192454.84375,P16,D06,1,1,1
1472,2.19,1645192454.859375,P16,D06,1,1,1
1473,1.47,1645192454.875,P16,D06,1,1,1
1474,0.78,1645192454.890625,P16,D06,1,1,1
1475,-0.0,1645192454.90625,P16,D06,1,1,1
1476,-0.93,1645192454.921875,P16,D06,1,1,1
1477,-2.03,1645192454.9375,P16,D06,1,1,1
1478,-3.21,1645192454.953125,P16,D06,1,1,1
1479,-4.31,1645192454.96875,P16,D06,1,1,1
1480,-5.13,1645192454.984375,P16,D06,1,1,1
1481,-5.51,1645192455.0,P16,D06,1,1,1
1482,-5.4,1645192455.015625,P16,D06,1,1,1
1483,-4.92,1645192455.03125,P16,D06,1,1,1
1484,-4.28,1645192455.046875,P16,D06,1,1,1
1485,-3.76,1645192455.0625,P16,D06,1,1,1
1486,-3.57,1645192455.078125,P16,D06,1,1,1
1487,-3.72,1645192455.09375,P16,D06,1,1,1
1488,-4.0,1645192455.109375,P16,D06,1,1,1
1489,-4.07,1645192455.125,P16,D06,1,1,1
1490,-3.6,1645192455.140625,P16,D06,1,1,1
1491,-2.45,1645192455.15625,P16,D06,1,1,1
1492,-0.71,1645192455.171875,P16,D06,1,1,1
1493,1.32,1645192455.1875,P16,D06,1,1,1
1494,3.25,1645192455.203125,P16,D06,1,1,1
1495,4.81,1645192455.21875,P16,D06,1,1,1
1496,5.89,1645192455.234375,P16,D06,1,1,1
1497,6.56,1645192455.25,P16,D06,1,1,1
1498,7.04,1645192455.265625,P16,D06,1,1,1
1499,7.48,1645192455.28125,P16,D06,1,1,1
1500,7.99,1645192455.296875,P16,D06,1,1,1
1501,8.54,1645192455.3125,P16,D06,1,1,1
1502,9.04,1645192455.328125,P16,D06,1,1,1
1503,9.34,1645192455.34375,P16,D06,1,1,1
1504,9.31,1645192455.359375,P16,D06,1,1,1
1505,8.85,1645192455.375,P16,D06,1,1,1
1506,7.91,1645192455.390625,P16,D06,1,1,1
1507,6.49,1645192455.40625,P16,D06,1,1,1
1508,4.67,1645192455.421875,P16,D06,1,1,1
1509,2.6,1645192455.4375,P16,D06,1,1,1
1510,0.45,1645192455.453125,P16,D06,1,1,1
1511,-1.58,1645192455.46875,P16,D06,1,1,1
1512,-3.32,1645192455.484375,P16,D06,1,1,1
1513,-4.64,1645192455.5,P16,D06,1,1,1
1514,-5.47,1645192455.515625,P16,D06,1,1,1
1515,-5.77,1645192455.53125,P16,D06,1,1,1
1516,-5.61,1645192455.546875,P16,D06,1,1,1
1517,-5.08,1645192455.5625,P16,D06,1,1,1
1518,-4.34,1645192455.578125,P16,D06,1,1,1
1519,-3.57,1645192455.59375,P16,D06,1,1,1
1520,-2.88,1645192455.609375,P16,D06,1,1,1
1521,-2.34,1645192455.625,P16,D06,1,1,1
1522,-1.9,1645192455.640625,P16,D06,1,1,1
1523,-1.47,1645192455.65625,P16,D06,1,1,1
1524,-0.97,1645192455.671875,P16,D06,1,1,1
1525,-0.39,1645192455.6875,P16,D06,1,1,1
1526,0.22,1645192455.703125,P16,D06,1,1,1
1527,0.78,1645192455.71875,P16,D06,1,1,1
1528,1.19,1645192455.734375,P16,D06,1,1,1
1529,1.4,1645192455.75,P16,D06,1,1,1
1530,1.41,1645192455.765625,P16,D06,1,1,1
1531,1.29,1645192455.78125,P16,D06,1,1,1
1532,1.12,1645192455.796875,P16,D06,1,1,1
1533,0.97,1645192455.8125,P16,D06,1,1,1
1534,0.96,1645192455.828125,P16,D06,1,1,1
1535,1.15,1645192455.84375,P16,D06,1,1,1
1536,1.55,1645192455.859375,P16,D06,1,1,1
1537,2.12,1645192455.875,P16,D06,1,1,1
1538,2.73,1645192455.890625,P16,D06,1,1,1
1539,3.2,1645192455.90625,P16,D06,1,1,1
1540,3.38,1645192455.921875,P16,D06,1,1,1
1541,3.22,1645192455.9375,P16,D06,1,1,1
1542,2.78,1645192455.953125,P16,D06,1,1,1
1543,2.2,1645192455.96875,P16,D06,1,1,1
1544,1.66,1645192455.984375,P16,D06,1,1,1
1545,1.28,1645192456.0,P16,D06,1,1,1
1546,1.1,1645192456.015625,P16,D06,1,1,1
1547,1.09,1645192456.03125,P16,D06,1,1,1
1548,1.17,1645192456.046875,P16,D06,1,1,1
1549,1.25,1645192456.0625,P16,D06,1,1,1
1550,1.3,1645192456.078125,P16,D06,1,1,1
1551,1.31,1645192456.09375,P16,D06,1,1,1
1552,1.28,1645192456.109375,P16,D06,1,1,1
1553,1.25,1645192456.125,P16,D06,1,1,1
1554,1.22,1645192456.140625,P16,D06,1,1,1
1555,1.15,1645192456.15625,P16,D06,1,1,1
1556,1.01,1645192456.171875,P16,D06,1,1,1
1557,0.74,1645192456.1875,P16,D06,1,1,1
1558,0.33,1645192456.203125,P16,D06,1,1,1
1559,-0.19,1645192456.21875,P16,D06,1,1,1
1560,-0.77,1645192456.234375,P16,D06,1,1,1
1561,-1.29,1645192456.25,P16,D06,1,1,1
1562,-1.71,1645192456.265625,P16,D06,1,1,1
1563,-2.01,1645192456.28125,P16,D06,1,1,1
1564,-2.21,1645192456.296875,P16,D06,1,1,1
1565,-2.38,1645192456.3125,P16,D06,1,1,1
1566,-2.53,1645192456.328125,P16,D06,1,1,1
1567,-2.63,1645192456.34375,P16,D06,1,1,1
1568,-2.62,1645192456.359375,P16,D06,1,1,1
1569,-2.44,1645192456.375,P16,D06,1,1,1
1570,-2.08,1645192456.390625,P16,D06,1,1,1
1571,-1.58,1645192456.40625,P16,D06,1,1,1
1572,-1.05,1645192456.421875,P16,D06,1,1,1
1573,-0.6,1645192456.4375,P16,D06,1,1,1
1574,-0.29,1645192456.453125,P16,D06,1,1,1
1575,-0.13,1645192456.46875,P16,D06,1,1,1
1576,-0.05,1645192456.484375,P16,D06,1,1,1
1577,0.02,1645192456.5,P16,D06,1,1,1
1578,0.17,1645192456.515625,P16,D06,1,1,1
1579,0.37,1645192456.53125,P16,D06,1,1,1
1580,0.57,1645192456.546875,P16,D06,1,1,1
1581,0.67,1645192456.5625,P16,D06,1,1,1
1582,0.63,1645192456.578125,P16,D06,1,1,1
1583,0.45,1645192456.59375,P16,D06,1,1,1
1584,0.2,1645192456.609375,P16,D06,1,1,1
1585,-0.01,1645192456.625,P16,D06,1,1,1
1586,-0.09,1645192456.640625,P16,D06,1,1,1
1587,-0.04,1645192456.65625,P16,D06,1,1,1
1588,0.07,1645192456.671875,P16,D06,1,1,1
1589,0.15,1645192456.6875,P16,D06,1,1,1
1590,0.14,1645192456.703125,P16,D06,1,1,1
1591,0.03,1645192456.71875,P16,D06,1,1,1
1592,-0.12,1645192456.734375,P16,D06,1,1,1
1593,-0.28,1645192456.75,P16,D06,1,1,1
1594,-0.42,1645192456.765625,P16,D06,1,1,1
1595,-0.6,1645192456.78125,P16,D06,1,1,1
1596,-0.87,1645192456.796875,P16,D06,1,1,1
1597,-1.29,1645192456.8125,P16,D06,1,1,1
1598,-1.8,1645192456.828125,P16,D06,1,1,1
1599,-2.32,1645192456.84375,P16,D06,1,1,1
1600,-2.69,1645192456.859375,P16,D06,1,1,1
1601,-2.8,1645192456.875,P16,D06,1,1,1
1602,-2.67,1645192456.890625,P16,D06,1,1,1
1603,-2.38,1645192456.90625,P16,D06,1,1,1
1604,-2.1,1645192456.921875,P16,D06,1,1,1
1605,-1.96,1645192456.9375,P16,D06,1,1,1
1606,-2.01,1645192456.953125,P16,D06,1,1,1
1607,-2.19,1645192456.96875,P16,D06,1,1,1
1608,-2.36,1645192456.984375,P16,D06,1,1,1
1609,-2.42,1645192457.0,P16,D06,1,1,1
1610,-2.31,1645192457.015625,P16,D06,1,1,1
1611,-2.07,1645192457.03125,P16,D06,1,1,1
1612,-1.77,1645192457.046875,P16,D06,1,1,1
1613,-1.5,1645192457.0625,P16,D06,1,1,1
1614,-1.29,1645192457.078125,P16,D06,1,1,1
1615,-1.13,1645192457.09375,P16,D06,1,1,1
1616,-0.94,1645192457.109375,P16,D06,1,1,1
1617,-0.7,1645192457.125,P16,D06,1,1,1
1618,-0.41,1645192457.140625,P16,D06,1,1,1
1619,-0.11,1645192457.15625,P16,D06,1,1,1
1620,0.11,1645192457.171875,P16,D06,1,1,1
1621,0.21,1645192457.1875,P16,D06,1,1,1
1622,0.17,1645192457.203125,P16,D06,1,1,1
1623,0.03,1645192457.21875,P16,D06,1,1,1
1624,-0.14,1645192457.234375,P16,D06,1,1,1
1625,-0.27,1645192457.25,P16,D06,1,1,1
1626,-0.31,1645192457.265625,P16,D06,1,1,1
1627,-0.25,1645192457.28125,P16,D06,1,1,1
1628,-0.13,1645192457.296875,P16,D06,1,1,1
1629,-0.02,1645192457.3125,P16,D06,1,1,1
1630,0.02,1645192457.328125,P16,D06,1,1,1
1631,-0.08,1645192457.34375,P16,D06,1,1,1
1632,-0.33,1645192457.359375,P16,D06,1,1,1
1633,-0.67,1645192457.375,P16,D06,1,1,1
1634,-0.99,1645192457.390625,P16,D06,1,1,1
1635,-1.12,1645192457.40625,P16,D06,1,1,1
1636,-0.94,1645192457.421875,P16,D06,1,1,1
1637,-0.45,1645192457.4375,P16,D06,1,1,1
1638,0.21,1645192457.453125,P16,D06,1,1,1
1639,0.8,1645192457.46875,P16,D06,1,1,1
1640,1.11,1645192457.484375,P16,D06,1,1,1
1641,1.07,1645192457.5,P16,D06,1,1,1
1642,0.76,1645192457.515625,P16,D06,1,1,1
1643,0.36,1645192457.53125,P16,D06,1,1,1
1644,0.08,1645192457.546875,P16,D06,1,1,1
1645,-0.0,1645192457.5625,P16,D06,1,1,1
1646,0.07,1645192457.578125,P16,D06,1,1,1
1647,0.16,1645192457.59375,P16,D06,1,1,1
1648,0.15,1645192457.609375,P16,D06,1,1,1
1649,-0.03,1645192457.625,P16,D06,1,1,1
1650,-0.31,1645192457.640625,P16,D06,1,1,1
1651,-0.61,1645192457.65625,P16,D06,1,1,1
1652,-0.84,1645192457.671875,P16,D06,1,1,1
1653,-0.95,1645192457.6875,P16,D06,1,1,1
1654,-0.93,1645192457.703125,P16,D06,1,1,1
1655,-0.79,1645192457.71875,P16,D06,1,1,1
1656,-0.56,1645192457.734375,P16,D06,1,1,1
1657,-0.3,1645192457.75,P16,D06,1,1,1
1658,-0.09,1645192457.765625,P16,D06,1,1,1
1659,-0.02,1645192457.78125,P16,D06,1,1,1
1660,-0.17,1645192457.796875,P16,D06,1,1,1
1661,-0.54,1645192457.8125,P16,D06,1,1,1
1662,-1.02,1645192457.828125,P16,D06,1,1,1
1663,-1.42,1645192457.84375,P16,D06,1,1,1
1664,-1.56,1645192457.859375,P16,D06,1,1,1
1665,-1.34,1645192457.875,P16,D06,1,1,1
1666,-0.78,1645192457.890625,P16,D06,1,1,1
1667,-0.05,1645192457.90625,P16,D06,1,1,1
1668,0.65,1645192457.921875,P16,D06,1,1,1
1669,1.18,1645192457.9375,P16,D06,1,1,1
1670,1.52,1645192457.953125,P16,D06,1,1,1
1671,1.79,1645192457.96875,P16,D06,1,1,1
1672,2.15,1645192457.984375,P16,D06,1,1,1
1673,2.71,1645192458.0,P16,D06,1,1,1
1674,3.43,1645192458.015625,P16,D06,1,1,1
1675,4.17,1645192458.03125,P16,D06,1,1,1
1676,4.74,1645192458.046875,P16,D06,1,1,1
1677,5.02,1645192458.0625,P16,D06,1,1,1
1678,5.01,1645192458.078125,P16,D06,1,1,1
1679,4.79,1645192458.09375,P16,D06,1,1,1
1680,4.45,1645192458.109375,P16,D06,1,1,1
1681,4.03,1645192458.125,P16,D06,1,1,1
1682,3.5,1645192458.140625,P16,D06,1,1,1
1683,2.83,1645192458.15625,P16,D06,1,1,1
1684,2.08,1645192458.171875,P16,D06,1,1,1
1685,1.41,1645192458.1875,P16,D06,1,1,1
1686,1.0,1645192458.203125,P16,D06,1,1,1
1687,0.95,1645192458.21875,P16,D06,1,1,1
1688,1.17,1645192458.234375,P16,D06,1,1,1
1689,1.4,1645192458.25,P16,D06,1,1,1
1690,1.38,1645192458.265625,P16,D06,1,1,1
1691,0.96,1645192458.28125,P16,D06,1,1,1
1692,0.22,1645192458.296875,P16,D06,1,1,1
1693,-0.6,1645192458.3125,P16,D06,1,1,1
1694,-1.25,1645192458.328125,P16,D06,1,1,1
1695,-1.56,1645192458.34375,P16,D06,1,1,1
1696,-1.57,1645192458.359375,P16,D06,1,1,1
1697,-1.41,1645192458.375,P16,D06,1,1,1
1698,-1.25,1645192458.390625,P16,D06,1,1,1
1699,-1.14,1645192458.40625,P16,D06,1,1,1
1700,-1.04,1645192458.421875,P16,D06,1,1,1
1701,-0.85,1645192458.4375,P16,D06,1,1,1
1702,-0.51,1645192458.453125,P16,D06,1,1,1
1703,-0.04,1645192458.46875,P16,D06,1,1,1
1704,0.46,1645192458.484375,P16,D06,1,1,1
1705,0.83,1645192458.5,P16,D06,1,1,1
1706,0.97,1645192458.515625,P16,D06,1,1,1
1707,0.87,1645192458.53125,P16,D06,1,1,1
1708,0.57,1645192458.546875,P16,D06,1,1,1
1709,0.19,1645192458.5625,P16,D06,1,1,1
1710,-0.18,1645192458.578125,P16,D06,1,1,1
1711,-0.47,1645192458.59375,P16,D06,1,1,1
1712,-0.69,1645192458.609375,P16,D06,1,1,1
1713,-0.83,1645192458.625,P16,D06,1,1,1
1714,-0.9,1645192458.640625,P16,D06,1,1,1
1715,-0.88,1645192458.65625,P16,D06,1,1,1
1716,-0.75,1645192458.671875,P16,D06,1,1,1
1717,-0.51,1645192458.6875,P16,D06,1,1,1
1718,-0.21,1645192458.703125,P16,D06,1,1,1
1719,0.06,1645192458.71875,P16,D06,1,1,1
1720,0.2,1645192458.734375,P16,D06,1,1,1
1721,0.14,1645192458.75,P16,D06,1,1,1
1722,-0.1,1645192458.765625,P16,D06,1,1,1
1723,-0.47,1645192458.78125,P16,D06,1,1,1
1724,-0.86,1645192458.796875,P16,D06,1,1,1
1725,-1.21,1645192458.8125,P16,D06,1,1,1
1726,-1.49,1645192458.828125,P16,D06,1,1,1
1727,-1.7,1645192458.84375,P16,D06,1,1,1
1728,-1.86,1645192458.859375,P16,D06,1,1,1
1729,-1.97,1645192458.875,P16,D06,1,1,1
1730,-2.02,1645192458.890625,P16,D06,1,1,1
1731,-1.99,1645192458.90625,P16,D06,1,1,1
1732,-1.89,1645192458.921875,P16,D06,1,1,1
1733,-1.76,1645192458.9375,P16,D06,1,1,1
1734,-1.67,1645192458.953125,P16,D06,1,1,1
1735,-1.64,1645192458.96875,P16,D06,1,1,1
1736,-1.66,1645192458.984375,P16,D06,1,1,1
1737,-1.66,1645192459.0,P16,D06,1,1,1
1738,-1.59,1645192459.015625,P16,D06,1,1,1
1739,-1.46,1645192459.03125,P16,D06,1,1,1
1740,-1.33,1645192459.046875,P16,D06,1,1,1
1741,-1.32,1645192459.0625,P16,D06,1,1,1
1742,-1.51,1645192459.078125,P16,D06,1,1,1
1743,-1.86,1645192459.09375,P16,D06,1,1,1
1744,-2.26,1645192459.109375,P16,D06,1,1,1
1745,-2.53,1645192459.125,P16,D06,1,1,1
1746,-2.53,1645192459.140625,P16,D06,1,1,1
1747,-2.21,1645192459.15625,P16,D06,1,1,1
1748,-1.62,1645192459.171875,P16,D06,1,1,1
1749,-0.88,1645192459.1875,P16,D06,1,1,1
1750,-0.13,1645192459.203125,P16,D06,1,1,1
1751,0.5,1645192459.21875,P16,D06,1,1,1
1752,0.96,1645192459.234375,P16,D06,1,1,1
1753,1.21,1645192459.25,P16,D06,1,1,1
1754,1.26,1645192459.265625,P16,D06,1,1,1
1755,1.16,1645192459.28125,P16,D06,1,1,1
1756,0.96,1645192459.296875,P16,D06,1,1,1
1757,0.71,1645192459.3125,P16,D06,1,1,1
1758,0.45,1645192459.328125,P16,D06,1,1,1
1759,0.22,1645192459.34375,P16,D06,1,1,1
1760,0.06,1645192459.359375,P16,D06,1,1,1
1761,0.0,1645192459.375,P16,D06,1,1,1
1762,0.11,1645192459.390625,P16,D06,1,1,1
1763,0.36,1645192459.40625,P16,D06,1,1,1
1764,0.7,1645192459.421875,P16,D06,1,1,1
1765,0.99,1645192459.4375,P16,D06,1,1,1
1766,1.1,1645192459.453125,P16,D06,1,1,1
1767,0.97,1645192459.46875,P16,D06,1,1,1
1768,0.66,1645192459.484375,P16,D06,1,1,1
1769,0.29,1645192459.5,P16,D06,1,1,1
1770,0.03,1645192459.515625,P16,D06,1,1,1
1771,-0.02,1645192459.53125,P16,D06,1,1,1
1772,0.11,1645192459.546875,P16,D06,1,1,1
1773,0.3,1645192459.5625,P16,D06,1,1,1
1774,0.41,1645192459.578125,P16,D06,1,1,1
1775,0.35,1645192459.59375,P16,D06,1,1,1
1776,0.14,1645192459.609375,P16,D06,1,1,1
1777,-0.11,1645192459.625,P16,D06,1,1,1
1778,-0.29,1645192459.640625,P16,D06,1,1,1
1779,-0.29,1645192459.65625,P16,D06,1,1,1
1780,-0.08,1645192459.671875,P16,D06,1,1,1
1781,0.31,1645192459.6875,P16,D06,1,1,1
1782,0.81,1645192459.703125,P16,D06,1,1,1
1783,1.33,1645192459.71875,P16,D06,1,1,1
1784,1.78,1645192459.734375,P16,D06,1,1,1
1785,2.06,1645192459.75,P16,D06,1,1,1
1786,2.1,1645192459.765625,P16,D06,1,1,1
1787,1.86,1645192459.78125,P16,D06,1,1,1
1788,1.42,1645192459.796875,P16,D06,1,1,1
1789,0.9,1645192459.8125,P16,D06,1,1,1
1790,0.44,1645192459.828125,P16,D06,1,1,1
1791,0.17,1645192459.84375,P16,D06,1,1,1
1792,0.12,1645192459.859375,P16,D06,1,1,1
1793,0.27,1645192459.875,P16,D06,1,1,1
1794,0.51,1645192459.890625,P16,D06,1,1,1
1795,0.76,1645192459.90625,P16,D06,1,1,1
1796,0.95,1645192459.921875,P16,D06,1,1,1
1797,1.05,1645192459.9375,P16,D06,1,1,1
1798,1.08,1645192459.953125,P16,D06,1,1,1
1799,1.06,1645192459.96875,P16,D06,1,1,1
1800,1.04,1645192459.984375,P16,D06,1,1,1
1801,1.06,1645192460.0,P16,D06,1,1,1
1802,1.15,1645192460.015625,P16,D06,1,1,1
1803,1.31,1645192460.03125,P16,D06,1,1,1
1804,1.48,1645192460.046875,P16,D06,1,1,1
1805,1.61,1645192460.0625,P16,D06,1,1,1
1806,1.63,1645192460.078125,P16,D06,1,1,1
1807,1.51,1645192460.09375,P16,D06,1,1,1
1808,1.27,1645192460.109375,P16,D06,1,1,1
1809,0.94,1645192460.125,P16,D06,1,1,1
1810,0.55,1645192460.140625,P16,D06,1,1,1
1811,0.12,1645192460.15625,P16,D06,1,1,1
1812,-0.38,1645192460.171875,P16,D06,1,1,1
1813,-0.93,1645192460.1875,P16,D06,1,1,1
1814,-1.47,1645192460.203125,P16,D06,1,1,1
1815,-1.91,1645192460.21875,P16,D06,1,1,1
1816,-2.19,1645192460.234375,P16,D06,1,1,1
1817,-2.3,1645192460.25,P16,D06,1,1,1
1818,-2.3,1645192460.265625,P16,D06,1,1,1
1819,-2.27,1645192460.28125,P16,D06,1,1,1
1820,-2.24,1645192460.296875,P16,D06,1,1,1
1821,-2.16,1645192460.3125,P16,D06,1,1,1
1822,-1.98,1645192460.328125,P16,D06,1,1,1
1823,-1.69,1645192460.34375,P16,D06,1,1,1
1824,-1.36,1645192460.359375,P16,D06,1,1,1
1825,-1.13,1645192460.375,P16,D06,1,1,1
1826,-1.09,1645192460.390625,P16,D06,1,1,1
1827,-1.2,1645192460.40625,P16,D06,1,1,1
1828,-1.34,1645192460.421875,P16,D06,1,1,1
1829,-1.3,1645192460.4375,P16,D06,1,1,1
1830,-0.97,1645192460.453125,P16,D06,1,1,1
1831,-0.39,1645192460.46875,P16,D06,1,1,1
1832,0.29,1645192460.484375,P16,D06,1,1,1
1833,0.85,1645192460.5,P16,D06,1,1,1
1834,1.14,1645192460.515625,P16,D06,1,1,1
1835,1.12,1645192460.53125,P16,D06,1,1,1
1836,0.87,1645192460.546875,P16,D06,1,1,1
1837,0.48,1645192460.5625,P16,D06,1,1,1
1838,0.04,1645192460.578125,P16,D06,1,1,1
1839,-0.41,1645192460.59375,P16,D06,1,1,1
1840,-0.82,1645192460.609375,P16,D06,1,1,1
1841,-1.15,1645192460.625,P16,D06,1,1,1
1842,-1.31,1645192460.640625,P16,D06,1,1,1
1843,-1.27,1645192460.65625,P16,D06,1,1,1
1844,-1.05,1645192460.671875,P16,D06,1,1,1
1845,-0.77,1645192460.6875,P16,D06,1,1,1
1846,-0.54,1645192460.703125,P16,D06,1,1,1
1847,-0.46,1645192460.71875,P16,D06,1,1,1
1848,-0.51,1645192460.734375,P16,D06,1,1,1
1849,-0.6,1645192460.75,P16,D06,1,1,1
1850,-0.59,1645192460.765625,P16,D06,1,1,1
1851,-0.38,1645192460.78125,P16,D06,1,1,1
1852,0.04,1645192460.796875,P16,D06,1,1,1
1853,0.58,1645192460.8125,P16,D06,1,1,1
1854,1.12,1645192460.828125,P16,D06,1,1,1
1855,1.5,1645192460.84375,P16,D06,1,1,1
1856,1.64,1645192460.859375,P16,D06,1,1,1
1857,1.51,1645192460.875,P16,D06,1,1,1
1858,1.16,1645192460.890625,P16,D06,1,1,1
1859,0.71,1645192460.90625,P16,D06,1,1,1
1860,0.28,1645192460.921875,P16,D06,1,1,1
1861,-0.02,1645192460.9375,P16,D06,1,1,1
1862,-0.16,1645192460.953125,P16,D06,1,1,1
1863,-0.18,1645192460.96875,P16,D06,1,1,1
1864,-0.16,1645192460.984375,P16,D06,1,1,1
1865,-0.14,1645192461.0,P16,D06,1,1,1
1866,-0.1,1645192461.015625,P16,D06,1,1,1
1867,0.02,1645192461.03125,P16,D06,1,1,1
1868,0.27,1645192461.046875,P16,D06,1,1,1
1869,0.63,1645192461.0625,P16,D06,1,1,1
1870,0.98,1645192461.078125,P16,D06,1,1,1
1871,1.14,1645192461.09375,P16,D06,1,1,1
1872,1.0,1645192461.109375,P16,D06,1,1,1
1873,0.56,1645192461.125,P16,D06,1,1,1
1874,-0.04,1645192461.140625,P16,D06,1,1,1
1875,-0.6,1645192461.15625,P16,D06,1,1,1
1876,-0.94,1645192461.171875,P16,D06,1,1,1
1877,-1.0,1645192461.1875,P16,D06,1,1,1
1878,-0.82,1645192461.203125,P16,D06,1,1,1
1879,-0.54,1645192461.21875,P16,D06,1,1,1
1880,-0.26,1645192461.234375,P16,D06,1,1,1
1881,0.0,1645192461.25,P16,D06,1,1,1
1882,0.3,1645192461.265625,P16,D06,1,1,1
1883,0.7,1645192461.28125,P16,D06,1,1,1
1884,1.22,1645192461.296875,P16,D06,1,1,1
1885,1.77,1645192461.3125,P16,D06,1,1,1
1886,2.18,1645192461.328125,P16,D06,1,1,1
1887,2.31,1645192461.34375,P16,D06,1,1,1
1888,2.09,1645192461.359375,P16,D06,1,1,1
1889,1.62,1645192461.375,P16,D06,1,1,1
1890,1.09,1645192461.390625,P16,D06,1,1,1
1891,0.73,1645192461.40625,P16,D06,1,1,1
1892,0.66,1645192461.421875,P16,D06,1,1,1
1893,0.89,1645192461.4375,P16,D06,1,1,1
1894,1.33,1645192461.453125,P16,D06,1,1,1
1895,1.78,1645192461.46875,P16,D06,1,1,1
1896,2.12,1645192461.484375,P16,D06,1,1,1
1897,2.24,1645192461.5,P16,D06,1,1,1
1898,2.13,1645192461.515625,P16,D06,1,1,1
1899,1.83,1645192461.53125,P16,D06,1,1,1
1900,1.42,1645192461.546875,P16,D06,1,1,1
1901,0.97,1645192461.5625,P16,D06,1,1,1
1902,0.59,1645192461.578125,P16,D06,1,1,1
1903,0.34,1645192461.59375,P16,D06,1,1,1
1904,0.28,1645192461.609375,P16,D06,1,1,1
1905,0.4,1645192461.625,P16,D06,1,1,1
1906,0.65,1645192461.640625,P16,D06,1,1,1
1907,0.92,1645192461.65625,P16,D06,1,1,1
1908,1.08,1645192461.671875,P16,D06,1,1,1
1909,1.03,1645192461.6875,P16,D06,1,1,1
1910,0.72,1645192461.703125,P16,D06,1,1,1
1911,0.2,1645192461.71875,P16,D06,1,1,1
1912,-0.4,1645192461.734375,P16,D06,1,1,1
1913,-0.94,1645192461.75,P16,D06,1,1,1
1914,-1.29,1645192461.765625,P16,D06,1,1,1
1915,-1.43,1645192461.78125,P16,D06,1,1,1
1916,-1.41,1645192461.796875,P16,D06,1,1,1
1917,-1.31,1645192461.8125,P16,D06,1,1,1
1918,-1.21,1645192461.828125,P16,D06,1,1,1
1919,-1.12,1645192461.84375,P16,D06,1,1,1
1920,-1.02,1645192461.859375,P16,D06,1,1,1
1921,-0.91,1645192461.875,P16,D06,1,1,1
1922,-0.82,1645192461.890625,P16,D06,1,1,1
1923,-0.81,1645192461.90625,P16,D06,1,1,1
1924,-0.94,1645192461.921875,P16,D06,1,1,1
1925,-1.22,1645192461.9375,P16,D06,1,1,1
1926,-1.56,1645192461.953125,P16,D06,1,1,1
1927,-1.88,1645192461.96875,P16,D06,1,1,1
1928,-2.05,1645192461.984375,P16,D06,1,1,1
1929,-2.04,1645192462.0,P16,D06,1,1,1
1930,-1.84,1645192462.015625,P16,D06,1,1,1
1931,-1.49,1645192462.03125,P16,D06,1,1,1
1932,-1.02,1645192462.046875,P16,D06,1,1,1
1933,-0.48,1645192462.0625,P16,D06,1,1,1
1934,0.07,1645192462.078125,P16,D06,1,1,1
1935,0.53,1645192462.09375,P16,D06,1,1,1
1936,0.82,1645192462.109375,P16,D06,1,1,1
1937,0.9,1645192462.125,P16,D06,1,1,1
1938,0.78,1645192462.140625,P16,D06,1,1,1
1939,0.54,1645192462.15625,P16,D06,1,1,1
1940,0.28,1645192462.171875,P16,D06,1,1,1
1941,0.06,1645192462.1875,P16,D06,1,1,1
1942,-0.1,1645192462.203125,P16,D06,1,1,1
1943,-0.25,1645192462.21875,P16,D06,1,1,1
1944,-0.39,1645192462.234375,P16,D06,1,1,1
1945,-0.51,1645192462.25,P16,D06,1,1,1
1946,-0.56,1645192462.265625,P16,D06,1,1,1
1947,-0.5,1645192462.28125,P16,D06,1,1,1
1948,-0.37,1645192462.296875,P16,D06,1,1,1
1949,-0.24,1645192462.3125,P16,D06,1,1,1
1950,-0.18,1645192462.328125,P16,D06,1,1,1
1951,-0.27,1645192462.34375,P16,D06,1,1,1
1952,-0.46,1645192462.359375,P16,D06,1,1,1
1953,-0.68,1645192462.375,P16,D06,1,1,1
1954,-0.85,1645192462.390625,P16,D06,1,1,1
1955,-0.9,1645192462.40625,P16,D06,1,1,1
1956,-0.83,1645192462.421875,P16,D06,1,1,1
1957,-0.71,1645192462.4375,P16,D06,1,1,1
1958,-0.6,1645192462.453125,P16,D06,1,1,1
1959,-0.58,1645192462.46875,P16,D06,1,1,1
1960,-0.64,1645192462.484375,P16,D06,1,1,1
1961,-0.76,1645192462.5,P16,D06,1,1,1
1962,-0.89,1645192462.515625,P16,D06,1,1,1
1963,-0.97,1645192462.53125,P16,D06,1,1,1
1964,-0.97,1645192462.546875,P16,D06,1,1,1
1965,-0.88,1645192462.5625,P16,D06,1,1,1
1966,-0.74,1645192462.578125,P16,D06,1,1,1
1967,-0.57,1645192462.59375,P16,D06,1,1,1
1968,-0.44,1645192462.609375,P16,D06,1,1,1
1969,-0.35,1645192462.625,P16,D06,1,1,1
1970,-0.31,1645192462.640625,P16,D06,1,1,1
1971,-0.26,1645192462.65625,P16,D06,1,1,1
1972,-0.17,1645192462.671875,P16,D06,1,1,1
1973,-0.04,1645192462.6875,P16,D06,1,1,1
1974,0.08,1645192462.703125,P16,D06,1,1,1
1975,0.11,1645192462.71875,P16,D06,1,1,1
1976,0.01,1645192462.734375,P16,D06,1,1,1
1977,-0.25,1645192462.75,P16,D06,1,1,1
1978,-0.58,1645192462.765625,P16,D06,1,1,1
1979,-0.85,1645192462.78125,P16,D06,1,1,1
1980,-0.94,1645192462.796875,P16,D06,1,1,1
1981,-0.79,1645192462.8125,P16,D06,1,1,1
1982,-0.45,1645192462.828125,P16,D06,1,1,1
1983,-0.1,1645192462.84375,P16,D06,1,1,1
1984,0.1,1645192462.859375,P16,D06,1,1,1
1985,0.05,1645192462.875,P16,D06,1,1,1
1986,-0.25,1645192462.890625,P16,D06,1,1,1
1987,-0.66,1645192462.90625,P16,D06,1,1,1
1988,-1.01,1645192462.921875,P16,D06,1,1,1
1989,-1.19,1645192462.9375,P16,D06,1,1,1
1990,-1.22,1645192462.953125,P16,D06,1,1,1
1991,-1.19,1645192462.96875,P16,D06,1,1,1
1992,-1.19,1645192462.984375,P16,D06,1,1,1
1993,-1.21,1645192463.0,P16,D06,1,1,1
1994,-1.17,1645192463.015625,P16,D06,1,1,1
1995,-0.98,1645192463.03125,P16,D06,1,1,1
1996,-0.58,1645192463.046875,P16,D06,1,1,1
1997,-0.07,1645192463.0625,P16,D06,1,1,1
1998,0.38,1645192463.078125,P16,D06,1,1,1
1999,0.61,1645192463.09375,P16,D06,1,1,1
2000,0.55,1645192463.109375,P16,D06,1,1,1
2001,0.28,1645192463.125,P16,D06,1,1,1
2002,-0.05,1645192463.140625,P16,D06,1,1,1
2003,-0.29,1645192463.15625,P16,D06,1,1,1
2004,-0.39,1645192463.171875,P16,D06,1,1,1
2005,-0.35,1645192463.1875,P16,D06,1,1,1
2006,-0.26,1645192463.203125,P16,D06,1,1,1
2007,-0.14,1645192463.21875,P16,D06,1,1,1
2008,0.03,1645192463.234375,P16,D06,1,1,1
2009,0.33,1645192463.25,P16,D06,1,1,1
2010,0.83,1645192463.265625,P16,D06,1,1,1
2011,1.56,1645192463.28125,P16,D06,1,1,1
2012,2.45,1645192463.296875,P16,D06,1,1,1
2013,3.34,1645192463.3125,P16,D06,1,1,1
2014,4.07,1645192463.328125,P16,D06,1,1,1
2015,4.53,1645192463.34375,P16,D06,1,1,1
2016,4.67,1645192463.359375,P16,D06,1,1,1
2017,4.57,1645192463.375,P16,D06,1,1,1
2018,4.3,1645192463.390625,P16,D06,1,1,1
2019,3.97,1645192463.40625,P16,D06,1,1,1
2020,3.62,1645192463.421875,P16,D06,1,1,1
2021,3.29,1645192463.4375,P16,D06,1,1,1
2022,2.97,1645192463.453125,P16,D06,1,1,1
2023,2.67,1645192463.46875,P16,D06,1,1,1
2024,2.42,1645192463.484375,P16,D06,1,1,1
2025,2.25,1645192463.5,P16,D06,1,1,1
2026,2.17,1645192463.515625,P16,D06,1,1,1
2027,2.15,1645192463.53125,P16,D06,1,1,1
2028,2.12,1645192463.546875,P16,D06,1,1,1
2029,1.98,1645192463.5625,P16,D06,1,1,1
2030,1.67,1645192463.578125,P16,D06,1,1,1
2031,1.17,1645192463.59375,P16,D06,1,1,1
2032,0.53,1645192463.609375,P16,D06,1,1,1
2033,-0.14,1645192463.625,P16,D06,1,1,1
2034,-0.71,1645192463.640625,P16,D06,1,1,1
2035,-1.11,1645192463.65625,P16,D06,1,1,1
2036,-1.29,1645192463.671875,P16,D06,1,1,1
2037,-1.28,1645192463.6875,P16,D06,1,1,1
2038,-1.11,1645192463.703125,P16,D06,1,1,1
2039,-0.82,1645192463.71875,P16,D06,1,1,1
2040,-0.48,1645192463.734375,P16,D06,1,1,1
2041,-0.13,1645192463.75,P16,D06,1,1,1
2042,0.12,1645192463.765625,P16,D06,1,1,1
2043,0.19,1645192463.78125,P16,D06,1,1,1
2044,0.02,1645192463.796875,P16,D06,1,1,1
2045,-0.35,1645192463.8125,P16,D06,1,1,1
2046,-0.81,1645192463.828125,P16,D06,1,1,1
2047,-1.17,1645192463.84375,P16,D06,1,1,1
2048,-1.31,1645192463.859375,P16,D06,1,1,1
2049,-1.19,1645192463.875,P16,D06,1,1,1
2050,-0.89,1645192463.890625,P16,D06,1,1,1
2051,-0.57,1645192463.90625,P16,D06,1,1,1
2052,-0.34,1645192463.921875,P16,D06,1,1,1
2053,-0.25,1645192463.9375,P16,D06,1,1,1
2054,-0.25,1645192463.953125,P16,D06,1,1,1
2055,-0.27,1645192463.96875,P16,D06,1,1,1
2056,-0.22,1645192463.984375,P16,D06,1,1,1
2057,-0.07,1645192464.0,P16,D06,1,1,1
2058,0.12,1645192464.015625,P16,D06,1,1,1
2059,0.3,1645192464.03125,P16,D06,1,1,1
2060,0.42,1645192464.046875,P16,D06,1,1,1
2061,0.48,1645192464.0625,P16,D06,1,1,1
2062,0.51,1645192464.078125,P16,D06,1,1,1
2063,0.56,1645192464.09375,P16,D06,1,1,1
2064,0.66,1645192464.109375,P16,D06,1,1,1
2065,0.83,1645192464.125,P16,D06,1,1,1
2066,1.04,1645192464.140625,P16,D06,1,1,1
2067,1.25,1645192464.15625,P16,D06,1,1,1
2068,1.37,1645192464.171875,P16,D06,1,1,1
2069,1.33,1645192464.1875,P16,D06,1,1,1
2070,1.08,1645192464.203125,P16,D06,1,1,1
2071,0.66,1645192464.21875,P16,D06,1,1,1
2072,0.18,1645192464.234375,P16,D06,1,1,1
2073,-0.23,1645192464.25,P16,D06,1,1,1
2074,-0.48,1645192464.265625,P16,D06,1,1,1
2075,-0.53,1645192464.28125,P16,D06,1,1,1
2076,-0.46,1645192464.296875,P16,D06,1,1,1
2077,-0.37,1645192464.3125,P16,D06,1,1,1
2078,-0.38,1645192464.328125,P16,D06,1,1,1
2079,-0.53,1645192464.34375,P16,D06,1,1,1
2080,-0.8,1645192464.359375,P16,D06,1,1,1
2081,-1.16,1645192464.375,P16,D06,1,1,1
2082,-1.54,1645192464.390625,P16,D06,1,1,1
2083,-1.93,1645192464.40625,P16,D06,1,1,1
2084,-2.31,1645192464.421875,P16,D06,1,1,1
2085,-2.68,1645192464.4375,P16,D06,1,1,1
2086,-3.02,1645192464.453125,P16,D06,1,1,1
2087,-3.29,1645192464.46875,P16,D06,1,1,1
2088,-3.46,1645192464.484375,P16,D06,1,1,1
2089,-3.5,1645192464.5,P16,D06,1,1,1
2090,-3.43,1645192464.515625,P16,D06,1,1,1
2091,-3.24,1645192464.53125,P16,D06,1,1,1
2092,-2.99,1645192464.546875,P16,D06,1,1,1
2093,-2.69,1645192464.5625,P16,D06,1,1,1
2094,-2.41,1645192464.578125,P16,D06,1,1,1
2095,-2.17,1645192464.59375,P16,D06,1,1,1
2096,-2.02,1645192464.609375,P16,D06,1,1,1
2097,-1.94,1645192464.625,P16,D06,1,1,1
2098,-1.9,1645192464.640625,P16,D06,1,1,1
2099,-1.85,1645192464.65625,P16,D06,1,1,1
2100,-1.76,1645192464.671875,P16,D06,1,1,1
2101,-1.59,1645192464.6875,P16,D06,1,1,1
2102,-1.35,1645192464.703125,P16,D06,1,1,1
2103,-1.09,1645192464.71875,P16,D06,1,1,1
2104,-0.85,1645192464.734375,P16,D06,1,1,1
2105,-0.69,1645192464.75,P16,D06,1,1,1
2106,-0.62,1645192464.765625,P16,D06,1,1,1
2107,-0.61,1645192464.78125,P16,D06,1,1,1
2108,-0.62,1645192464.796875,P16,D06,1,1,1
2109,-0.58,1645192464.8125,P16,D06,1,1,1
2110,-0.47,1645192464.828125,P16,D06,1,1,1
2111,-0.32,1645192464.84375,P16,D06,1,1,1
2112,-0.22,1645192464.859375,P16,D06,1,1,1
2113,-0.25,1645192464.875,P16,D06,1,1,1
2114,-0.44,1645192464.890625,P16,D06,1,1,1
2115,-0.74,1645192464.90625,P16,D06,1,1,1
2116,-1.02,1645192464.921875,P16,D06,1,1,1
2117,-1.13,1645192464.9375,P16,D06,1,1,1
2118,-0.99,1645192464.953125,P16,D06,1,1,1
2119,-0.61,1645192464.96875,P16,D06,1,1,1
2120,-0.11,1645192464.984375,P16,D06,1,1,1
2121,0.36,1645192465.0,P16,D06,1,1,1
2122,0.69,1645192465.015625,P16,D06,1,1,1
2123,0.87,1645192465.03125,P16,D06,1,1,1
2124,0.93,1645192465.046875,P16,D06,1,1,1
2125,0.99,1645192465.0625,P16,D06,1,1,1
2126,1.11,1645192465.078125,P16,D06,1,1,1
2127,1.32,1645192465.09375,P16,D06,1,1,1
2128,1.59,1645192465.109375,P16,D06,1,1,1
2129,1.83,1645192465.125,P16,D06,1,1,1
2130,1.97,1645192465.140625,P16,D06,1,1,1
2131,2.0,1645192465.15625,P16,D06,1,1,1
2132,1.96,1645192465.171875,P16,D06,1,1,1
2133,1.94,1645192465.1875,P16,D06,1,1,1
2134,1.99,1645192465.203125,P16,D06,1,1,1
2135,2.08,1645192465.21875,P16,D06,1,1,1
2136,2.12,1645192465.234375,P16,D06,1,1,1
2137,2.01,1645192465.25,P16,D06,1,1,1
2138,1.69,1645192465.265625,P16,D06,1,1,1
2139,1.22,1645192465.28125,P16,D06,1,1,1
2140,0.76,1645192465.296875,P16,D06,1,1,1
2141,0.5,1645192465.3125,P16,D06,1,1,1
2142,0.53,1645192465.328125,P16,D06,1,1,1
2143,0.85,1645192465.34375,P16,D06,1,1,1
2144,1.32,1645192465.359375,P16,D06,1,1,1
2145,1.77,1645192465.375,P16,D06,1,1,1
2146,2.08,1645192465.390625,P16,D06,1,1,1
2147,2.22,1645192465.40625,P16,D06,1,1,1
2148,2.2,1645192465.421875,P16,D06,1,1,1
2149,2.09,1645192465.4375,P16,D06,1,1,1
2150,1.95,1645192465.453125,P16,D06,1,1,1
2151,1.84,1645192465.46875,P16,D06,1,1,1
2152,1.79,1645192465.484375,P16,D06,1,1,1
2153,1.85,1645192465.5,P16,D06,1,1,1
2154,2.04,1645192465.515625,P16,D06,1,1,1
2155,2.34,1645192465.53125,P16,D06,1,1,1
2156,2.68,1645192465.546875,P16,D06,1,1,1
2157,2.95,1645192465.5625,P16,D06,1,1,1
2158,3.04,1645192465.578125,P16,D06,1,1,1
2159,2.9,1645192465.59375,P16,D06,1,1,1
2160,2.54,1645192465.609375,P16,D06,1,1,1
2161,2.03,1645192465.625,P16,D06,1,1,1
2162,1.46,1645192465.640625,P16,D06,1,1,1
2163,0.9,1645192465.65625,P16,D06,1,1,1
2164,0.4,1645192465.671875,P16,D06,1,1,1
2165,-0.05,1645192465.6875,P16,D06,1,1,1
2166,-0.45,1645192465.703125,P16,D06,1,1,1
2167,-0.8,1645192465.71875,P16,D06,1,1,1
2168,-1.1,1645192465.734375,P16,D06,1,1,1
2169,-1.34,1645192465.75,P16,D06,1,1,1
2170,-1.54,1645192465.765625,P16,D06,1,1,1
2171,-1.69,1645192465.78125,P16,D06,1,1,1
2172,-1.79,1645192465.796875,P16,D06,1,1,1
2173,-1.81,1645192465.8125,P16,D06,1,1,1
2174,-1.72,1645192465.828125,P16,D06,1,1,1
2175,-1.5,1645192465.84375,P16,D06,1,1,1
2176,-1.2,1645192465.859375,P16,D06,1,1,1
2177,-0.87,1645192465.875,P16,D06,1,1,1
2178,-0.59,1645192465.890625,P16,D06,1,1,1
2179,-0.41,1645192465.90625,P16,D06,1,1,1
2180,-0.33,1645192465.921875,P16,D06,1,1,1
2181,-0.31,1645192465.9375,P16,D06,1,1,1
2182,-0.32,1645192465.953125,P16,D06,1,1,1
2183,-0.38,1645192465.96875,P16,D06,1,1,1
2184,-0.5,1645192465.984375,P16,D06,1,1,1
2185,-0.75,1645192466.0,P16,D06,1,1,1
2186,-1.08,1645192466.015625,P16,D06,1,1,1
2187,-1.39,1645192466.03125,P16,D06,1,1,1
2188,-1.53,1645192466.046875,P16,D06,1,1,1
2189,-1.39,1645192466.0625,P16,D06,1,1,1
2190,-0.96,1645192466.078125,P16,D06,1,1,1
2191,-0.4,1645192466.09375,P16,D06,1,1,1
2192,0.06,1645192466.109375,P16,D06,1,1,1
2193,0.22,1645192466.125,P16,D06,1,1,1
2194,-0.01,1645192466.140625,P16,D06,1,1,1
2195,-0.55,1645192466.15625,P16,D06,1,1,1
2196,-1.22,1645192466.171875,P16,D06,1,1,1
2197,-1.83,1645192466.1875,P16,D06,1,1,1
2198,-2.24,1645192466.203125,P16,D06,1,1,1
2199,-2.46,1645192466.21875,P16,D06,1,1,1
2200,-2.55,1645192466.234375,P16,D06,1,1,1
2201,-2.58,1645192466.25,P16,D06,1,1,1
2202,-2.58,1645192466.265625,P16,D06,1,1,1
2203,-2.52,1645192466.28125,P16,D06,1,1,1
2204,-2.35,1645192466.296875,P16,D06,1,1,1
2205,-2.05,1645192466.3125,P16,D06,1,1,1
2206,-1.65,1645192466.328125,P16,D06,1,1,1
2207,-1.24,1645192466.34375,P16,D06,1,1,1
2208,-0.9,1645192466.359375,P16,D06,1,1,1
2209,-0.69,1645192466.375,P16,D06,1,1,1
2210,-0.59,1645192466.390625,P16,D06,1,1,1
2211,-0.59,1645192466.40625,P16,D06,1,1,1
2212,-0.65,1645192466.421875,P16,D06,1,1,1
2213,-0.77,1645192466.4375,P16,D06,1,1,1
2214,-0.95,1645192466.453125,P16,D06,1,1,1
2215,-1.2,1645192466.46875,P16,D06,1,1,1
2216,-1.46,1645192466.484375,P16,D06,1,1,1
2217,-1.68,1645192466.5,P16,D06,1,1,1
2218,-1.75,1645192466.515625,P16,D06,1,1,1
2219,-1.66,1645192466.53125,P16,D06,1,1,1
2220,-1.45,1645192466.546875,P16,D06,1,1,1
2221,-1.21,1645192466.5625,P16,D06,1,1,1
2222,-1.04,1645192466.578125,P16,D06,1,1,1
2223,-0.99,1645192466.59375,P16,D06,1,1,1
2224,-1.03,1645192466.609375,P16,D06,1,1,1
2225,-1.07,1645192466.625,P16,D06,1,1,1
2226,-1.02,1645192466.640625,P16,D06,1,1,1
2227,-0.87,1645192466.65625,P16,D06,1,1,1
2228,-0.65,1645192466.671875,P16,D06,1,1,1
2229,-0.42,1645192466.6875,P16,D06,1,1,1
2230,-0.22,1645192466.703125,P16,D06,1,1,1
2231,-0.07,1645192466.71875,P16,D06,1,1,1
2232,0.05,1645192466.734375,P16,D06,1,1,1
2233,0.16,1645192466.75,P16,D06,1,1,1
2234,0.24,1645192466.765625,P16,D06,1,1,1
2235,0.24,1645192466.78125,P16,D06,1,1,1
2236,0.11,1645192466.796875,P16,D06,1,1,1
2237,-0.15,1645192466.8125,P16,D06,1,1,1
2238,-0.46,1645192466.828125,P16,D06,1,1,1
2239,-0.74,1645192466.84375,P16,D06,1,1,1
2240,-0.83,1645192466.859375,P16,D06,1,1,1
2241,-0.68,1645192466.875,P16,D06,1,1,1
2242,-0.28,1645192466.890625,P16,D06,1,1,1
2243,0.29,1645192466.90625,P16,D06,1,1,1
2244,0.9,1645192466.921875,P16,D06,1,1,1
2245,1.43,1645192466.9375,P16,D06,1,1,1
2246,1.79,1645192466.953125,P16,D06,1,1,1
2247,1.95,1645192466.96875,P16,D06,1,1,1
2248,1.94,1645192466.984375,P16,D06,1,1,1
2249,1.79,1645192467.0,P16,D06,1,1,1
2250,1.59,1645192467.015625,P16,D06,1,1,1
2251,1.38,1645192467.03125,P16,D06,1,1,1
2252,1.23,1645192467.046875,P16,D06,1,1,1
2253,1.15,1645192467.0625,P16,D06,1,1,1
2254,1.15,1645192467.078125,P16,D06,1,1,1
2255,1.18,1645192467.09375,P16,D06,1,1,1
2256,1.17,1645192467.109375,P16,D06,1,1,1
2257,1.11,1645192467.125,P16,D06,1,1,1
2258,1.02,1645192467.140625,P16,D06,1,1,1
2259,1.0,1645192467.15625,P16,D06,1,1,1
2260,1.15,1645192467.171875,P16,D06,1,1,1
2261,1.51,1645192467.1875,P16,D06,1,1,1
2262,2.0,1645192467.203125,P16,D06,1,1,1
2263,2.46,1645192467.21875,P16,D06,1,1,1
2264,2.72,1645192467.234375,P16,D06,1,1,1
2265,2.68,1645192467.25,P16,D06,1,1,1
2266,2.35,1645192467.265625,P16,D06,1,1,1
2267,1.84,1645192467.28125,P16,D06,1,1,1
2268,1.29,1645192467.296875,P16,D06,1,1,1
2269,0.79,1645192467.3125,P16,D06,1,1,1
2270,0.36,1645192467.328125,P16,D06,1,1,1
2271,0.01,1645192467.34375,P16,D06,1,1,1
2272,-0.3,1645192467.359375,P16,D06,1,1,1
2273,-0.57,1645192467.375,P16,D06,1,1,1
2274,-0.78,1645192467.390625,P16,D06,1,1,1
2275,-0.93,1645192467.40625,P16,D06,1,1,1
2276,-1.02,1645192467.421875,P16,D06,1,1,1
2277,-1.1,1645192467.4375,P16,D06,1,1,1
2278,-1.18,1645192467.453125,P16,D06,1,1,1
2279,-1.24,1645192467.46875,P16,D06,1,1,1
2280,-1.26,1645192467.484375,P16,D06,1,1,1
2281,-1.17,1645192467.5,P16,D06,1,1,1
2282,-0.94,1645192467.515625,P16,D06,1,1,1
2283,-0.56,1645192467.53125,P16,D06,1,1,1
2284,-0.06,1645192467.546875,P16,D06,1,1,1
2285,0.53,1645192467.5625,P16,D06,1,1,1
2286,1.16,1645192467.578125,P16,D06,1,1,1
2287,1.83,1645192467.59375,P16,D06,1,1,1
2288,2.49,1645192467.609375,P16,D06,1,1,1
2289,3.07,1645192467.625,P16,D06,1,1,1
2290,3.47,1645192467.640625,P16,D06,1,1,1
2291,3.56,1645192467.65625,P16,D06,1,1,1
2292,3.31,1645192467.671875,P16,D06,1,1,1
2293,2.74,1645192467.6875,P16,D06,1,1,1
2294,1.98,1645192467.703125,P16,D06,1,1,1
2295,1.21,1645192467.71875,P16,D06,1,1,1
2296,0.6,1645192467.734375,P16,D06,1,1,1
2297,0.23,1645192467.75,P16,D06,1,1,1
2298,0.06,1645192467.765625,P16,D06,1,1,1
2299,0.01,1645192467.78125,P16,D06,1,1,1
2300,-0.03,1645192467.796875,P16,D06,1,1,1
2301,-0.11,1645192467.8125,P16,D06,1,1,1
2302,-0.22,1645192467.828125,P16,D06,1,1,1
2303,-0.33,1645192467.84375,P16,D06,1,1,1
2304,-0.4,1645192467.859375,P16,D06,1,1,1
2305,-0.42,1645192467.875,P16,D06,1,1,1
2306,-0.41,1645192467.890625,P16,D06,1,1,1
2307,-0.4,1645192467.90625,P16,D06,1,1,1
2308,-0.38,1645192467.921875,P16,D06,1,1,1
2309,-0.33,1645192467.9375,P16,D06,1,1,1
2310,-0.26,1645192467.953125,P16,D06,1,1,1
2311,-0.14,1645192467.96875,P16,D06,1,1,1
2312,-0.02,1645192467.984375,P16,D06,1,1,1
2313,0.09,1645192468.0,P16,D06,1,1,1
2314,0.18,1645192468.015625,P16,D06,1,1,1
2315,0.25,1645192468.03125,P16,D06,1,1,1
2316,0.31,1645192468.046875,P16,D06,1,1,1
2317,0.32,1645192468.0625,P16,D06,1,1,1
2318,0.26,1645192468.078125,P16,D06,1,1,1
2319,0.08,1645192468.09375,P16,D06,1,1,1
2320,-0.18,1645192468.109375,P16,D06,1,1,1
2321,-0.43,1645192468.125,P16,D06,1,1,1
2322,-0.55,1645192468.140625,P16,D06,1,1,1
2323,-0.46,1645192468.15625,P16,D06,1,1,1
2324,-0.13,1645192468.171875,P16,D06,1,1,1
2325,0.33,1645192468.1875,P16,D06,1,1,1
2326,0.78,1645192468.203125,P16,D06,1,1,1
2327,1.06,1645192468.21875,P16,D06,1,1,1
2328,1.09,1645192468.234375,P16,D06,1,1,1
2329,0.87,1645192468.25,P16,D06,1,1,1
2330,0.5,1645192468.265625,P16,D06,1,1,1
2331,0.08,1645192468.28125,P16,D06,1,1,1
2332,-0.28,1645192468.296875,P16,D06,1,1,1
2333,-0.54,1645192468.3125,P16,D06,1,1,1
2334,-0.7,1645192468.328125,P16,D06,1,1,1
2335,-0.82,1645192468.34375,P16,D06,1,1,1
2336,-0.93,1645192468.359375,P16,D06,1,1,1
2337,-1.04,1645192468.375,P16,D06,1,1,1
2338,-1.12,1645192468.390625,P16,D06,1,1,1
2339,-1.12,1645192468.40625,P16,D06,1,1,1
2340,-1.01,1645192468.421875,P16,D06,1,1,1
2341,-0.77,1645192468.4375,P16,D06,1,1,1
2342,-0.43,1645192468.453125,P16,D06,1,1,1
2343,-0.09,1645192468.46875,P16,D06,1,1,1
2344,0.14,1645192468.484375,P16,D06,1,1,1
2345,0.14,1645192468.5,P16,D06,1,1,1
2346,-0.1,1645192468.515625,P16,D06,1,1,1
2347,-0.55,1645192468.53125,P16,D06,1,1,1
2348,-1.09,1645192468.546875,P16,D06,1,1,1
2349,-1.56,1645192468.5625,P16,D06,1,1,1
2350,-1.87,1645192468.578125,P16,D06,1,1,1
2351,-2.02,1645192468.59375,P16,D06,1,1,1
2352,-2.06,1645192468.609375,P16,D06,1,1,1
2353,-2.08,1645192468.625,P16,D06,1,1,1
2354,-2.1,1645192468.640625,P16,D06,1,1,1
2355,-2.1,1645192468.65625,P16,D06,1,1,1
2356,-2.01,1645192468.671875,P16,D06,1,1,1
2357,-1.8,1645192468.6875,P16,D06,1,1,1
2358,-1.5,1645192468.703125,P16,D06,1,1,1
2359,-1.19,1645192468.71875,P16,D06,1,1,1
2360,-0.99,1645192468.734375,P16,D06,1,1,1
2361,-0.94,1645192468.75,P16,D06,1,1,1
2362,-1.01,1645192468.765625,P16,D06,1,1,1
2363,-1.14,1645192468.78125,P16,D06,1,1,1
2364,-1.28,1645192468.796875,P16,D06,1,1,1
2365,-1.42,1645192468.8125,P16,D06,1,1,1
2366,-1.58,1645192468.828125,P16,D06,1,1,1
2367,-1.77,1645192468.84375,P16,D06,1,1,1
2368,-1.94,1645192468.859375,P16,D06,1,1,1
2369,-1.96,1645192468.875,P16,D06,1,1,1
2370,-1.73,1645192468.890625,P16,D06,1,1,1
2371,-1.22,1645192468.90625,P16,D06,1,1,1
2372,-0.51,1645192468.921875,P16,D06,1,1,1
2373,0.2,1645192468.9375,P16,D06,1,1,1
2374,0.72,1645192468.953125,P16,D06,1,1,1
2375,0.94,1645192468.96875,P16,D06,1,1,1
2376,0.9,1645192468.984375,P16,D06,1,1,1
2377,0.74,1645192469.0,P16,D06,1,1,1
2378,0.61,1645192469.015625,P16,D06,1,1,1
2379,0.64,1645192469.03125,P16,D06,1,1,1
2380,0.84,1645192469.046875,P16,D06,1,1,1
2381,1.14,1645192469.0625,P16,D06,1,1,1
2382,1.45,1645192469.078125,P16,D06,1,1,1
2383,1.71,1645192469.09375,P16,D06,1,1,1
2384,1.86,1645192469.109375,P16,D06,1,1,1
2385,1.88,1645192469.125,P16,D06,1,1,1
2386,1.77,1645192469.140625,P16,D06,1,1,1
2387,1.51,1645192469.15625,P16,D06,1,1,1
2388,1.15,1645192469.171875,P16,D06,1,1,1
2389,0.75,1645192469.1875,P16,D06,1,1,1
2390,0.45,1645192469.203125,P16,D06,1,1,1
2391,0.35,1645192469.21875,P16,D06,1,1,1
2392,0.55,1645192469.234375,P16,D06,1,1,1
2393,1.0,1645192469.25,P16,D06,1,1,1
2394,1.57,1645192469.265625,P16,D06,1,1,1
2395,2.05,1645192469.28125,P16,D06,1,1,1
2396,2.27,1645192469.296875,P16,D06,1,1,1
2397,2.13,1645192469.3125,P16,D06,1,1,1
2398,1.72,1645192469.328125,P16,D06,1,1,1
2399,1.2,1645192469.34375,P16,D06,1,1,1
2400,0.8,1645192469.359375,P16,D06,1,1,1
2401,0.65,1645192469.375,P16,D06,1,1,1
2402,0.78,1645192469.390625,P16,D06,1,1,1
2403,1.07,1645192469.40625,P16,D06,1,1,1
2404,1.36,1645192469.421875,P16,D06,1,1,1
2405,1.52,1645192469.4375,P16,D06,1,1,1
2406,1.53,1645192469.453125,P16,D06,1,1,1
2407,1.41,1645192469.46875,P16,D06,1,1,1
2408,1.26,1645192469.484375,P16,D06,1,1,1
2409,1.11,1645192469.5,P16,D06,1,1,1
2410,0.97,1645192469.515625,P16,D06,1,1,1
2411,0.78,1645192469.53125,P16,D06,1,1,1
2412,0.52,1645192469.546875,P16,D06,1,1,1
2413,0.22,1645192469.5625,P16,D06,1,1,1
2414,-0.04,1645192469.578125,P16,D06,1,1,1
2415,-0.19,1645192469.59375,P16,D06,1,1,1
2416,-0.2,1645192469.609375,P16,D06,1,1,1
2417,-0.13,1645192469.625,P16,D06,1,1,1
2418,-0.09,1645192469.640625,P16,D06,1,1,1
2419,-0.18,1645192469.65625,P16,D06,1,1,1
2420,-0.41,1645192469.671875,P16,D06,1,1,1
2421,-0.71,1645192469.6875,P16,D06,1,1,1
2422,-0.94,1645192469.703125,P16,D06,1,1,1
2423,-0.99,1645192469.71875,P16,D06,1,1,1
2424,-0.81,1645192469.734375,P16,D06,1,1,1
2425,-0.45,1645192469.75,P16,D06,1,1,1
2426,-0.05,1645192469.765625,P16,D06,1,1,1
2427,0.22,1645192469.78125,P16,D06,1,1,1
2428,0.28,1645192469.796875,P16,D06,1,1,1
2429,0.1,1645192469.8125,P16,D06,1,1,1
2430,-0.22,1645192469.828125,P16,D06,1,1,1
2431,-0.56,1645192469.84375,P16,D06,1,1,1
2432,-0.81,1645192469.859375,P16,D06,1,1,1
2433,-0.95,1645192469.875,P16,D06,1,1,1
2434,-0.97,1645192469.890625,P16,D06,1,1,1
2435,-0.92,1645192469.90625,P16,D06,1,1,1
2436,-0.84,1645192469.921875,P16,D06,1,1,1
2437,-0.73,1645192469.9375,P16,D06,1,1,1
2438,-0.59,1645192469.953125,P16,D06,1,1,1
2439,-0.44,1645192469.96875,P16,D06,1,1,1
2440,-0.3,1645192469.984375,P16,D06,1,1,1
2441,-0.18,1645192470.0,P16,D06,1,1,1
2442,-0.1,1645192470.015625,P16,D06,1,1,1
2443,-0.06,1645192470.03125,P16,D06,1,1,1
2444,-0.02,1645192470.046875,P16,D06,1,1,1
2445,0.05,1645192470.0625,P16,D06,1,1,1
2446,0.15,1645192470.078125,P16,D06,1,1,1
2447,0.26,1645192470.09375,P16,D06,1,1,1
2448,0.34,1645192470.109375,P16,D06,1,1,1
2449,0.4,1645192470.125,P16,D06,1,1,1
2450,0.42,1645192470.140625,P16,D06,1,1,1
2451,0.44,1645192470.15625,P16,D06,1,1,1
2452,0.44,1645192470.171875,P16,D06,1,1,1
2453,0.41,1645192470.1875,P16,D06,1,1,1
2454,0.33,1645192470.203125,P16,D06,1,1,1
2455,0.17,1645192470.21875,P16,D06,1,1,1
2456,-0.06,1645192470.234375,P16,D06,1,1,1
2457,-0.34,1645192470.25,P16,D06,1,1,1
2458,-0.61,1645192470.265625,P16,D06,1,1,1
2459,-0.83,1645192470.28125,P16,D06,1,1,1
2460,-0.97,1645192470.296875,P16,D06,1,1,1
2461,-1.05,1645192470.3125,P16,D06,1,1,1
2462,-1.07,1645192470.328125,P16,D06,1,1,1
2463,-1.05,1645192470.34375,P16,D06,1,1,1
2464,-1.01,1645192470.359375,P16,D06,1,1,1
2465,-0.93,1645192470.375,P16,D06,1,1,1
2466,-0.82,1645192470.390625,P16,D06,1,1,1
2467,-0.7,1645192470.40625,P16,D06,1,1,1
2468,-0.61,1645192470.421875,P16,D06,1,1,1
2469,-0.57,1645192470.4375,P16,D06,1,1,1
2470,-0.59,1645192470.453125,P16,D06,1,1,1
2471,-0.67,1645192470.46875,P16,D06,1,1,1
2472,-0.78,1645192470.484375,P16,D06,1,1,1
2473,-0.89,1645192470.5,P16,D06,1,1,1
2474,-0.96,1645192470.515625,P16,D06,1,1,1
2475,-0.95,1645192470.53125,P16,D06,1,1,1
2476,-0.82,1645192470.546875,P16,D06,1,1,1
2477,-0.58,1645192470.5625,P16,D06,1,1,1
2478,-0.28,1645192470.578125,P16,D06,1,1,1
2479,-0.01,1645192470.59375,P16,D06,1,1,1
2480,0.15,1645192470.609375,P16,D06,1,1,1
2481,0.18,1645192470.625,P16,D06,1,1,1
2482,0.13,1645192470.640625,P16,D06,1,1,1
2483,0.12,1645192470.65625,P16,D06,1,1,1
2484,0.21,1645192470.671875,P16,D06,1,1,1
2485,0.41,1645192470.6875,P16,D06,1,1,1
2486,0.61,1645192470.703125,P16,D06,1,1,1
2487,0.69,1645192470.71875,P16,D06,1,1,1
2488,0.62,1645192470.734375,P16,D06,1,1,1
2489,0.46,1645192470.75,P16,D06,1,1,1
2490,0.33,1645192470.765625,P16,D06,1,1,1
2491,0.35,1645192470.78125,P16,D06,1,1,1
2492,0.56,1645192470.796875,P16,D06,1,1,1
2493,0.91,1645192470.8125,P16,D06,1,1,1
2494,1.29,1645192470.828125,P16,D06,1,1,1
2495,1.62,1645192470.84375,P16,D06,1,1,1
2496,1.84,1645192470.859375,P16,D06,1,1,1
2497,1.97,1645192470.875,P16,D06,1,1,1
2498,2.02,1645192470.890625,P16,D06,1,1,1
2499,1.96,1645192470.90625,P16,D06,1,1,1
2500,1.75,1645192470.921875,P16,D06,1,1,1
2501,1.36,1645192470.9375,P16,D06,1,1,1
2502,0.82,1645192470.953125,P16,D06,1,1,1
2503,0.26,1645192470.96875,P16,D06,1,1,1
2504,-0.18,1645192470.984375,P16,D06,1,1,1
2505,-0.33,1645192471.0,P16,D06,1,1,1
2506,-0.16,1645192471.015625,P16,D06,1,1,1
2507,0.25,1645192471.03125,P16,D06,1,1,1
2508,0.71,1645192471.046875,P16,D06,1,1,1
2509,0.98,1645192471.0625,P16,D06,1,1,1
2510,0.88,1645192471.078125,P16,D06,1,1,1
2511,0.4,1645192471.09375,P16,D06,1,1,1
2512,-0.34,1645192471.109375,P16,D06,1,1,1
2513,-1.11,1645192471.125,P16,D06,1,1,1
2514,-1.68,1645192471.140625,P16,D06,1,1,1
2515,-1.92,1645192471.15625,P16,D06,1,1,1
2516,-1.86,1645192471.171875,P16,D06,1,1,1
2517,-1.6,1645192471.1875,P16,D06,1,1,1
2518,-1.27,1645192471.203125,P16,D06,1,1,1
2519,-0.98,1645192471.21875,P16,D06,1,1,1
2520,-0.76,1645192471.234375,P16,D06,1,1,1
2521,-0.59,1645192471.25,P16,D06,1,1,1
2522,-0.47,1645192471.265625,P16,D06,1,1,1
2523,-0.4,1645192471.28125,P16,D06,1,1,1
2524,-0.4,1645192471.296875,P16,D06,1,1,1
2525,-0.46,1645192471.3125,P16,D06,1,1,1
2526,-0.56,1645192471.328125,P16,D06,1,1,1
2527,-0.61,1645192471.34375,P16,D06,1,1,1
2528,-0.56,1645192471.359375,P16,D06,1,1,1
2529,-0.4,1645192471.375,P16,D06,1,1,1
2530,-0.15,1645192471.390625,P16,D06,1,1,1
2531,0.12,1645192471.40625,P16,D06,1,1,1
2532,0.38,1645192471.421875,P16,D06,1,1,1
2533,0.58,1645192471.4375,P16,D06,1,1,1
2534,0.72,1645192471.453125,P16,D06,1,1,1
2535,0.81,1645192471.46875,P16,D06,1,1,1
2536,0.83,1645192471.484375,P16,D06,1,1,1
2537,0.79,1645192471.5,P16,D06,1,1,1
2538,0.72,1645192471.515625,P16,D06,1,1,1
2539,0.64,1645192471.53125,P16,D06,1,1,1
2540,0.59,1645192471.546875,P16,D06,1,1,1
2541,0.57,1645192471.5625,P16,D06,1,1,1
2542,0.62,1645192471.578125,P16,D06,1,1,1
2543,0.72,1645192471.59375,P16,D06,1,1,1
2544,0.88,1645192471.609375,P16,D06,1,1,1
2545,1.05,1645192471.625,P16,D06,1,1,1
2546,1.15,1645192471.640625,P16,D06,1,1,1
2547,1.08,1645192471.65625,P16,D06,1,1,1
2548,0.75,1645192471.671875,P16,D06,1,1,1
2549,0.18,1645192471.6875,P16,D06,1,1,1
2550,-0.52,1645192471.703125,P16,D06,1,1,1
2551,-1.18,1645192471.71875,P16,D06,1,1,1
2552,-1.61,1645192471.734375,P16,D06,1,1,1
2553,-1.75,1645192471.75,P16,D06,1,1,1
2554,-1.63,1645192471.765625,P16,D06,1,1,1
2555,-1.36,1645192471.78125,P16,D06,1,1,1
2556,-1.05,1645192471.796875,P16,D06,1,1,1
2557,-0.75,1645192471.8125,P16,D06,1,1,1
2558,-0.44,1645192471.828125,P16,D06,1,1,1
2559,-0.12,1645192471.84375,P16,D06,1,1,1
2560,0.22,1645192471.859375,P16,D06,1,1,1
2561,0.53,1645192471.875,P16,D06,1,1,1
2562,0.76,1645192471.890625,P16,D06,1,1,1
2563,0.83,1645192471.90625,P16,D06,1,1,1
2564,0.76,1645192471.921875,P16,D06,1,1,1
2565,0.55,1645192471.9375,P16,D06,1,1,1
2566,0.25,1645192471.953125,P16,D06,1,1,1
2567,-0.09,1645192471.96875,P16,D06,1,1,1
2568,-0.4,1645192471.984375,P16,D06,1,1,1
2569,-0.67,1645192472.0,P16,D06,1,1,1
2570,-0.89,1645192472.015625,P16,D06,1,1,1
2571,-1.05,1645192472.03125,P16,D06,1,1,1
2572,-1.16,1645192472.046875,P16,D06,1,1,1
2573,-1.2,1645192472.0625,P16,D06,1,1,1
2574,-1.17,1645192472.078125,P16,D06,1,1,1
2575,-1.04,1645192472.09375,P16,D06,1,1,1
2576,-0.83,1645192472.109375,P16,D06,1,1,1
2577,-0.58,1645192472.125,P16,D06,1,1,1
2578,-0.35,1645192472.140625,P16,D06,1,1,1
2579,-0.2,1645192472.15625,P16,D06,1,1,1
2580,-0.13,1645192472.171875,P16,D06,1,1,1
2581,-0.13,1645192472.1875,P16,D06,1,1,1
2582,-0.13,1645192472.203125,P16,D06,1,1,1
2583,-0.09,1645192472.21875,P16,D06,1,1,1
2584,0.01,1645192472.234375,P16,D06,1,1,1
2585,0.14,1645192472.25,P16,D06,1,1,1
2586,0.24,1645192472.265625,P16,D06,1,1,1
2587,0.25,1645192472.28125,P16,D06,1,1,1
2588,0.17,1645192472.296875,P16,D06,1,1,1
2589,0.03,1645192472.3125,P16,D06,1,1,1
2590,-0.09,1645192472.328125,P16,D06,1,1,1
2591,-0.1,1645192472.34375,P16,D06,1,1,1
2592,0.04,1645192472.359375,P16,D06,1,1,1
2593,0.29,1645192472.375,P16,D06,1,1,1
2594,0.54,1645192472.390625,P16,D06,1,1,1
2595,0.68,1645192472.40625,P16,D06,1,1,1
2596,0.63,1645192472.421875,P16,D06,1,1,1
2597,0.41,1645192472.4375,P16,D06,1,1,1
2598,0.13,1645192472.453125,P16,D06,1,1,1
2599,-0.08,1645192472.46875,P16,D06,1,1,1
2600,-0.11,1645192472.484375,P16,D06,1,1,1
2601,0.03,1645192472.5,P16,D06,1,1,1
2602,0.24,1645192472.515625,P16,D06,1,1,1
2603,0.39,1645192472.53125,P16,D06,1,1,1
2604,0.38,1645192472.546875,P16,D06,1,1,1
2605,0.21,1645192472.5625,P16,D06,1,1,1
2606,-0.0,1645192472.578125,P16,D06,1,1,1
2607,-0.11,1645192472.59375,P16,D06,1,1,1
2608,-0.03,1645192472.609375,P16,D06,1,1,1
2609,0.25,1645192472.625,P16,D06,1,1,1
2610,0.59,1645192472.640625,P16,D06,1,1,1
2611,0.81,1645192472.65625,P16,D06,1,1,1
2612,0.78,1645192472.671875,P16,D06,1,1,1
2613,0.47,1645192472.6875,P16,D06,1,1,1
2614,-0.03,1645192472.703125,P16,D06,1,1,1
2615,-0.57,1645192472.71875,P16,D06,1,1,1
2616,-1.01,1645192472.734375,P16,D06,1,1,1
2617,-1.33,1645192472.75,P16,D06,1,1,1
2618,-1.52,1645192472.765625,P16,D06,1,1,1
2619,-1.65,1645192472.78125,P16,D06,1,1,1
2620,-1.74,1645192472.796875,P16,D06,1,1,1
2621,-1.8,1645192472.8125,P16,D06,1,1,1
2622,-1.82,1645192472.828125,P16,D06,1,1,1
2623,-1.78,1645192472.84375,P16,D06,1,1,1
2624,-1.67,1645192472.859375,P16,D06,1,1,1
2625,-1.46,1645192472.875,P16,D06,1,1,1
2626,-1.14,1645192472.890625,P16,D06,1,1,1
2627,-0.69,1645192472.90625,P16,D06,1,1,1
2628,-0.12,1645192472.921875,P16,D06,1,1,1
2629,0.46,1645192472.9375,P16,D06,1,1,1
2630,0.95,1645192472.953125,P16,D06,1,1,1
2631,1.2,1645192472.96875,P16,D06,1,1,1
2632,1.14,1645192472.984375,P16,D06,1,1,1
2633,0.78,1645192473.0,P16,D06,1,1,1
2634,0.24,1645192473.015625,P16,D06,1,1,1
2635,-0.3,1645192473.03125,P16,D06,1,1,1
2636,-0.66,1645192473.046875,P16,D06,1,1,1
2637,-0.68,1645192473.0625,P16,D06,1,1,1
2638,-0.35,1645192473.078125,P16,D06,1,1,1
2639,0.23,1645192473.09375,P16,D06,1,1,1
2640,0.85,1645192473.109375,P16,D06,1,1,1
2641,1.31,1645192473.125,P16,D06,1,1,1
2642,1.48,1645192473.140625,P16,D06,1,1,1
2643,1.39,1645192473.15625,P16,D06,1,1,1
2644,1.17,1645192473.171875,P16,D06,1,1,1
2645,1.0,1645192473.1875,P16,D06,1,1,1
2646,0.97,1645192473.203125,P16,D06,1,1,1
2647,1.07,1645192473.21875,P16,D06,1,1,1
2648,1.21,1645192473.234375,P16,D06,1,1,1
2649,1.3,1645192473.25,P16,D06,1,1,1
2650,1.31,1645192473.265625,P16,D06,1,1,1
2651,1.26,1645192473.28125,P16,D06,1,1,1
2652,1.2,1645192473.296875,P16,D06,1,1,1
2653,1.13,1645192473.3125,P16,D06,1,1,1
2654,1.04,1645192473.328125,P16,D06,1,1,1
2655,0.87,1645192473.34375,P16,D06,1,1,1
2656,0.63,1645192473.359375,P16,D06,1,1,1
2657,0.31,1645192473.375,P16,D06,1,1,1
2658,-0.02,1645192473.390625,P16,D06,1,1,1
2659,-0.34,1645192473.40625,P16,D06,1,1,1
2660,-0.61,1645192473.421875,P16,D06,1,1,1
2661,-0.81,1645192473.4375,P16,D06,1,1,1
2662,-0.92,1645192473.453125,P16,D06,1,1,1
2663,-0.92,1645192473.46875,P16,D06,1,1,1
2664,-0.81,1645192473.484375,P16,D06,1,1,1
2665,-0.61,1645192473.5,P16,D06,1,1,1
2666,-0.39,1645192473.515625,P16,D06,1,1,1
2667,-0.23,1645192473.53125,P16,D06,1,1,1
2668,-0.18,1645192473.546875,P16,D06,1,1,1
2669,-0.23,1645192473.5625,P16,D06,1,1,1
2670,-0.34,1645192473.578125,P16,D06,1,1,1
2671,-0.4,1645192473.59375,P16,D06,1,1,1
2672,-0.38,1645192473.609375,P16,D06,1,1,1
2673,-0.27,1645192473.625,P16,D06,1,1,1
2674,-0.12,1645192473.640625,P16,D06,1,1,1
2675,-0.01,1645192473.65625,P16,D06,1,1,1
2676,0.03,1645192473.671875,P16,D06,1,1,1
2677,-0.01,1645192473.6875,P16,D06,1,1,1
2678,-0.1,1645192473.703125,P16,D06,1,1,1
2679,-0.19,1645192473.71875,P16,D06,1,1,1
2680,-0.3,1645192473.734375,P16,D06,1,1,1
2681,-0.43,1645192473.75,P16,D06,1,1,1
2682,-0.59,1645192473.765625,P16,D06,1,1,1
2683,-0.73,1645192473.78125,P16,D06,1,1,1
2684,-0.78,1645192473.796875,P16,D06,1,1,1
2685,-0.7,1645192473.8125,P16,D06,1,1,1
2686,-0.49,1645192473.828125,P16,D06,1,1,1
2687,-0.22,1645192473.84375,P16,D06,1,1,1
2688,0.0,1645192473.859375,P16,D06,1,1,1
2689,0.09,1645192473.875,P16,D06,1,1,1
2690,0.07,1645192473.890625,P16,D06,1,1,1
2691,0.01,1645192473.90625,P16,D06,1,1,1
2692,-0.02,1645192473.921875,P16,D06,1,1,1
2693,0.02,1645192473.9375,P16,D06,1,1,1
2694,0.09,1645192473.953125,P16,D06,1,1,1
2695,0.16,1645192473.96875,P16,D06,1,1,1
2696,0.18,1645192473.984375,P16,D06,1,1,1
2697,0.18,1645192474.0,P16,D06,1,1,1
2698,0.16,1645192474.015625,P16,D06,1,1,1
2699,0.15,1645192474.03125,P16,D06,1,1,1
2700,0.13,1645192474.046875,P16,D06,1,1,1
2701,0.05,1645192474.0625,P16,D06,1,1,1
2702,-0.1,1645192474.078125,P16,D06,1,1,1
2703,-0.29,1645192474.09375,P16,D06,1,1,1
2704,-0.49,1645192474.109375,P16,D06,1,1,1
2705,-0.63,1645192474.125,P16,D06,1,1,1
2706,-0.68,1645192474.140625,P16,D06,1,1,1
2707,-0.66,1645192474.15625,P16,D06,1,1,1
2708,-0.59,1645192474.171875,P16,D06,1,1,1
2709,-0.46,1645192474.1875,P16,D06,1,1,1
2710,-0.29,1645192474.203125,P16,D06,1,1,1
2711,-0.07,1645192474.21875,P16,D06,1,1,1
2712,0.14,1645192474.234375,P16,D06,1,1,1
2713,0.28,1645192474.25,P16,D06,1,1,1
2714,0.3,1645192474.265625,P16,D06,1,1,1
2715,0.18,1645192474.28125,P16,D06,1,1,1
2716,-0.05,1645192474.296875,P16,D06,1,1,1
2717,-0.33,1645192474.3125,P16,D06,1,1,1
2718,-0.59,1645192474.328125,P16,D06,1,1,1
2719,-0.78,1645192474.34375,P16,D06,1,1,1
2720,-0.9,1645192474.359375,P16,D06,1,1,1
2721,-0.95,1645192474.375,P16,D06,1,1,1
2722,-0.94,1645192474.390625,P16,D06,1,1,1
2723,-0.87,1645192474.40625,P16,D06,1,1,1
2724,-0.76,1645192474.421875,P16,D06,1,1,1
2725,-0.57,1645192474.4375,P16,D06,1,1,1
2726,-0.32,1645192474.453125,P16,D06,1,1,1
2727,-0.0,1645192474.46875,P16,D06,1,1,1
2728,0.31,1645192474.484375,P16,D06,1,1,1
2729,0.52,1645192474.5,P16,D06,1,1,1
2730,0.55,1645192474.515625,P16,D06,1,1,1
2731,0.36,1645192474.53125,P16,D06,1,1,1
2732,-0.01,1645192474.546875,P16,D06,1,1,1
2733,-0.44,1645192474.5625,P16,D06,1,1,1
2734,-0.78,1645192474.578125,P16,D06,1,1,1
2735,-0.9,1645192474.59375,P16,D06,1,1,1
2736,-0.76,1645192474.609375,P16,D06,1,1,1
2737,-0.41,1645192474.625,P16,D06,1,1,1
2738,0.04,1645192474.640625,P16,D06,1,1,1
2739,0.45,1645192474.65625,P16,D06,1,1,1
2740,0.73,1645192474.671875,P16,D06,1,1,1
2741,0.84,1645192474.6875,P16,D06,1,1,1
2742,0.79,1645192474.703125,P16,D06,1,1,1
2743,0.66,1645192474.71875,P16,D06,1,1,1
2744,0.55,1645192474.734375,P16,D06,1,1,1
2745,0.54,1645192474.75,P16,D06,1,1,1
2746,0.68,1645192474.765625,P16,D06,1,1,1
2747,0.97,1645192474.78125,P16,D06,1,1,1
2748,1.34,1645192474.796875,P16,D06,1,1,1
2749,1.7,1645192474.8125,P16,D06,1,1,1
2750,2.0,1645192474.828125,P16,D06,1,1,1
2751,2.18,1645192474.84375,P16,D06,1,1,1
2752,2.23,1645192474.859375,P16,D06,1,1,1
2753,2.18,1645192474.875,P16,D06,1,1,1
2754,2.03,1645192474.890625,P16,D06,1,1,1
2755,1.8,1645192474.90625,P16,D06,1,1,1
2756,1.48,1645192474.921875,P16,D06,1,1,1
2757,1.09,1645192474.9375,P16,D06,1,1,1
2758,0.65,1645192474.953125,P16,D06,1,1,1
2759,0.21,1645192474.96875,P16,D06,1,1,1
2760,-0.2,1645192474.984375,P16,D06,1,1,1
2761,-0.52,1645192475.0,P16,D06,1,1,1
2762,-0.74,1645192475.015625,P16,D06,1,1,1
2763,-0.88,1645192475.03125,P16,D06,1,1,1
2764,-0.97,1645192475.046875,P16,D06,1,1,1
2765,-1.05,1645192475.0625,P16,D06,1,1,1
2766,-1.15,1645192475.078125,P16,D06,1,1,1
2767,-1.26,1645192475.09375,P16,D06,1,1,1
2768,-1.3,1645192475.109375,P16,D06,1,1,1
2769,-1.22,1645192475.125,P16,D06,1,1,1
2770,-1.01,1645192475.140625,P16,D06,1,1,1
2771,-0.72,1645192475.15625,P16,D06,1,1,1
2772,-0.46,1645192475.171875,P16,D06,1,1,1
2773,-0.33,1645192475.1875,P16,D06,1,1,1
2774,-0.37,1645192475.203125,P16,D06,1,1,1
2775,-0.53,1645192475.21875,P16,D06,1,1,1
2776,-0.71,1645192475.234375,P16,D06,1,1,1
2777,-0.8,1645192475.25,P16,D06,1,1,1
2778,-0.75,1645192475.265625,P16,D06,1,1,1
2779,-0.6,1645192475.28125,P16,D06,1,1,1
2780,-0.41,1645192475.296875,P16,D06,1,1,1
2781,-0.25,1645192475.3125,P16,D06,1,1,1
2782,-0.15,1645192475.328125,P16,D06,1,1,1
2783,-0.11,1645192475.34375,P16,D06,1,1,1
2784,-0.1,1645192475.359375,P16,D06,1,1,1
2785,-0.07,1645192475.375,P16,D06,1,1,1
2786,0.0,1645192475.390625,P16,D06,1,1,1
2787,0.16,1645192475.40625,P16,D06,1,1,1
2788,0.42,1645192475.421875,P16,D06,1,1,1
2789,0.73,1645192475.4375,P16,D06,1,1,1
2790,1.02,1645192475.453125,P16,D06,1,1,1
2791,1.19,1645192475.46875,P16,D06,1,1,1
2792,1.2,1645192475.484375,P16,D06,1,1,1
2793,1.06,1645192475.5,P16,D06,1,1,1
2794,0.88,1645192475.515625,P16,D06,1,1,1
2795,0.77,1645192475.53125,P16,D06,1,1,1
2796,0.81,1645192475.546875,P16,D06,1,1,1
2797,0.97,1645192475.5625,P16,D06,1,1,1
2798,1.19,1645192475.578125,P16,D06,1,1,1
2799,1.37,1645192475.59375,P16,D06,1,1,1
2800,1.45,1645192475.609375,P16,D06,1,1,1
2801,1.45,1645192475.625,P16,D06,1,1,1
2802,1.39,1645192475.640625,P16,D06,1,1,1
2803,1.3,1645192475.65625,P16,D06,1,1,1
2804,1.17,1645192475.671875,P16,D06,1,1,1
2805,0.98,1645192475.6875,P16,D06,1,1,1
2806,0.75,1645192475.703125,P16,D06,1,1,1
2807,0.57,1645192475.71875,P16,D06,1,1,1
2808,0.56,1645192475.734375,P16,D06,1,1,1
2809,0.81,1645192475.75,P16,D06,1,1,1
2810,1.31,1645192475.765625,P16,D06,1,1,1
2811,1.89,1645192475.78125,P16,D06,1,1,1
2812,2.34,1645192475.796875,P16,D06,1,1,1
2813,2.43,1645192475.8125,P16,D06,1,1,1
2814,2.08,1645192475.828125,P16,D06,1,1,1
2815,1.37,1645192475.84375,P16,D06,1,1,1
2816,0.47,1645192475.859375,P16,D06,1,1,1
2817,-0.4,1645192475.875,P16,D06,1,1,1
2818,-1.1,1645192475.890625,P16,D06,1,1,1
2819,-1.58,1645192475.90625,P16,D06,1,1,1
2820,-1.91,1645192475.921875,P16,D06,1,1,1
2821,-2.18,1645192475.9375,P16,D06,1,1,1
2822,-2.42,1645192475.953125,P16,D06,1,1,1
2823,-2.61,1645192475.96875,P16,D06,1,1,1
2824,-2.69,1645192475.984375,P16,D06,1,1,1
2825,-2.58,1645192476.0,P16,D06,1,1,1
2826,-2.24,1645192476.015625,P16,D06,1,1,1
2827,-1.71,1645192476.03125,P16,D06,1,1,1
2828,-1.03,1645192476.046875,P16,D06,1,1,1
2829,-0.27,1645192476.0625,P16,D06,1,1,1
2830,0.5,1645192476.078125,P16,D06,1,1,1
2831,1.26,1645192476.09375,P16,D06,1,1,1
2832,1.97,1645192476.109375,P16,D06,1,1,1
2833,2.61,1645192476.125,P16,D06,1,1,1
2834,3.13,1645192476.140625,P16,D06,1,1,1
2835,3.43,1645192476.15625,P16,D06,1,1,1
2836,3.41,1645192476.171875,P16,D06,1,1,1
2837,2.99,1645192476.1875,P16,D06,1,1,1
2838,2.14,1645192476.203125,P16,D06,1,1,1
2839,0.94,1645192476.21875,P16,D06,1,1,1
2840,-0.44,1645192476.234375,P16,D06,1,1,1
2841,-1.73,1645192476.25,P16,D06,1,1,1
2842,-2.68,1645192476.265625,P16,D06,1,1,1
2843,-3.12,1645192476.28125,P16,D06,1,1,1
2844,-3.01,1645192476.296875,P16,D06,1,1,1
2845,-2.48,1645192476.3125,P16,D06,1,1,1
2846,-1.75,1645192476.328125,P16,D06,1,1,1
2847,-1.03,1645192476.34375,P16,D06,1,1,1
2848,-0.51,1645192476.359375,P16,D06,1,1,1
2849,-0.28,1645192476.375,P16,D06,1,1,1
2850,-0.3,1645192476.390625,P16,D06,1,1,1
2851,-0.49,1645192476.40625,P16,D06,1,1,1
2852,-0.7,1645192476.421875,P16,D06,1,1,1
2853,-0.8,1645192476.4375,P16,D06,1,1,1
2854,-0.71,1645192476.453125,P16,D06,1,1,1
2855,-0.42,1645192476.46875,P16,D06,1,1,1
2856,0.01,1645192476.484375,P16,D06,1,1,1
2857,0.46,1645192476.5,P16,D06,1,1,1
2858,0.83,1645192476.515625,P16,D06,1,1,1
2859,1.06,1645192476.53125,P16,D06,1,1,1
2860,1.12,1645192476.546875,P16,D06,1,1,1
2861,1.04,1645192476.5625,P16,D06,1,1,1
2862,0.87,1645192476.578125,P16,D06,1,1,1
2863,0.65,1645192476.59375,P16,D06,1,1,1
2864,0.46,1645192476.609375,P16,D06,1,1,1
2865,0.36,1645192476.625,P16,D06,1,1,1
2866,0.39,1645192476.640625,P16,D06,1,1,1
2867,0.53,1645192476.65625,P16,D06,1,1,1
2868,0.71,1645192476.671875,P16,D06,1,1,1
2869,0.82,1645192476.6875,P16,D06,1,1,1
2870,0.77,1645192476.703125,P16,D06,1,1,1
2871,0.58,1645192476.71875,P16,D06,1,1,1
2872,0.31,1645192476.734375,P16,D06,1,1,1
2873,0.06,1645192476.75,P16,D06,1,1,1
2874,-0.12,1645192476.765625,P16,D06,1,1,1
2875,-0.25,1645192476.78125,P16,D06,1,1,1
2876,-0.39,1645192476.796875,P16,D06,1,1,1
2877,-0.61,1645192476.8125,P16,D06,1,1,1
2878,-0.88,1645192476.828125,P16,D06,1,1,1
2879,-1.14,1645192476.84375,P16,D06,1,1,1
2880,-1.29,1645192476.859375,P16,D06,1,1,1
2881,-1.26,1645192476.875,P16,D06,1,1,1
2882,-1.07,1645192476.890625,P16,D06,1,1,1
2883,-0.82,1645192476.90625,P16,D06,1,1,1
2884,-0.6,1645192476.921875,P16,D06,1,1,1
2885,-0.49,1645192476.9375,P16,D06,1,1,1
2886,-0.49,1645192476.953125,P16,D06,1,1,1
2887,-0.56,1645192476.96875,P16,D06,1,1,1
2888,-0.64,1645192476.984375,P16,D06,1,1,1
2889,-0.69,1645192477.0,P16,D06,1,1,1
2890,-0.73,1645192477.015625,P16,D06,1,1,1
2891,-0.8,1645192477.03125,P16,D06,1,1,1
2892,-0.95,1645192477.046875,P16,D06,1,1,1
2893,-1.18,1645192477.0625,P16,D06,1,1,1
2894,-1.47,1645192477.078125,P16,D06,1,1,1
2895,-1.78,1645192477.09375,P16,D06,1,1,1
2896,-2.01,1645192477.109375,P16,D06,1,1,1
2897,-2.11,1645192477.125,P16,D06,1,1,1
2898,-2.05,1645192477.140625,P16,D06,1,1,1
2899,-1.85,1645192477.15625,P16,D06,1,1,1
2900,-1.6,1645192477.171875,P16,D06,1,1,1
2901,-1.37,1645192477.1875,P16,D06,1,1,1
2902,-1.23,1645192477.203125,P16,D06,1,1,1
2903,-1.18,1645192477.21875,P16,D06,1,1,1
2904,-1.17,1645192477.234375,P16,D06,1,1,1
2905,-1.09,1645192477.25,P16,D06,1,1,1
2906,-0.85,1645192477.265625,P16,D06,1,1,1
2907,-0.41,1645192477.28125,P16,D06,1,1,1
2908,0.16,1645192477.296875,P16,D06,1,1,1
2909,0.69,1645192477.3125,P16,D06,1,1,1
2910,1.06,1645192477.328125,P16,D06,1,1,1
2911,1.18,1645192477.34375,P16,D06,1,1,1
2912,1.09,1645192477.359375,P16,D06,1,1,1
2913,0.91,1645192477.375,P16,D06,1,1,1
