,data,timestamp,participant,document,val,arou,eng
0,-1.12,1645192816.28125,P16,D08,1,1,1
1,-0.69,1645192816.296875,P16,D08,1,1,1
2,-0.19,1645192816.3125,P16,D08,1,1,1
3,0.25,1645192816.328125,P16,D08,1,1,1
4,0.56,1645192816.34375,P16,D08,1,1,1
5,0.68,1645192816.359375,P16,D08,1,1,1
6,0.62,1645192816.375,P16,D08,1,1,1
7,0.38,1645192816.390625,P16,D08,1,1,1
8,0.05,1645192816.40625,P16,D08,1,1,1
9,-0.29,1645192816.421875,P16,D08,1,1,1
10,-0.49,1645192816.4375,P16,D08,1,1,1
11,-0.45,1645192816.453125,P16,D08,1,1,1
12,-0.12,1645192816.46875,P16,D08,1,1,1
13,0.44,1645192816.484375,P16,D08,1,1,1
14,1.07,1645192816.5,P16,D08,1,1,1
15,1.61,1645192816.515625,P16,D08,1,1,1
16,1.9,1645192816.53125,P16,D08,1,1,1
17,1.91,1645192816.546875,P16,D08,1,1,1
18,1.65,1645192816.5625,P16,D08,1,1,1
19,1.25,1645192816.578125,P16,D08,1,1,1
20,0.82,1645192816.59375,P16,D08,1,1,1
21,0.48,1645192816.609375,P16,D08,1,1,1
22,0.29,1645192816.625,P16,D08,1,1,1
23,0.27,1645192816.640625,P16,D08,1,1,1
24,0.39,1645192816.65625,P16,D08,1,1,1
25,0.59,1645192816.671875,P16,D08,1,1,1
26,0.81,1645192816.6875,P16,D08,1,1,1
27,0.96,1645192816.703125,P16,D08,1,1,1
28,0.96,1645192816.71875,P16,D08,1,1,1
29,0.77,1645192816.734375,P16,D08,1,1,1
30,0.4,1645192816.75,P16,D08,1,1,1
31,-0.11,1645192816.765625,P16,D08,1,1,1
32,-0.63,1645192816.78125,P16,D08,1,1,1
33,-1.02,1645192816.796875,P16,D08,1,1,1
34,-1.18,1645192816.8125,P16,D08,1,1,1
35,-1.1,1645192816.828125,P16,D08,1,1,1
36,-0.88,1645192816.84375,P16,D08,1,1,1
37,-0.63,1645192816.859375,P16,D08,1,1,1
38,-0.49,1645192816.875,P16,D08,1,1,1
39,-0.49,1645192816.890625,P16,D08,1,1,1
40,-0.57,1645192816.90625,P16,D08,1,1,1
41,-0.67,1645192816.921875,P16,D08,1,1,1
42,-0.72,1645192816.9375,P16,D08,1,1,1
43,-0.72,1645192816.953125,P16,D08,1,1,1
44,-0.72,1645192816.96875,P16,D08,1,1,1
45,-0.75,1645192816.984375,P16,D08,1,1,1
46,-0.81,1645192817.0,P16,D08,1,1,1
47,-0.85,1645192817.015625,P16,D08,1,1,1
48,-0.81,1645192817.03125,P16,D08,1,1,1
49,-0.68,1645192817.046875,P16,D08,1,1,1
50,-0.49,1645192817.0625,P16,D08,1,1,1
51,-0.33,1645192817.078125,P16,D08,1,1,1
52,-0.26,1645192817.09375,P16,D08,1,1,1
53,-0.3,1645192817.109375,P16,D08,1,1,1
54,-0.38,1645192817.125,P16,D08,1,1,1
55,-0.4,1645192817.140625,P16,D08,1,1,1
56,-0.29,1645192817.15625,P16,D08,1,1,1
57,-0.03,1645192817.171875,P16,D08,1,1,1
58,0.3,1645192817.1875,P16,D08,1,1,1
59,0.57,1645192817.203125,P16,D08,1,1,1
60,0.7,1645192817.21875,P16,D08,1,1,1
61,0.66,1645192817.234375,P16,D08,1,1,1
62,0.53,1645192817.25,P16,D08,1,1,1
63,0.41,1645192817.265625,P16,D08,1,1,1
64,0.36,1645192817.28125,P16,D08,1,1,1
65,0.37,1645192817.296875,P16,D08,1,1,1
66,0.35,1645192817.3125,P16,D08,1,1,1
67,0.23,1645192817.328125,P16,D08,1,1,1
68,-0.01,1645192817.34375,P16,D08,1,1,1
69,-0.3,1645192817.359375,P16,D08,1,1,1
70,-0.53,1645192817.375,P16,D08,1,1,1
71,-0.61,1645192817.390625,P16,D08,1,1,1
72,-0.49,1645192817.40625,P16,D08,1,1,1
73,-0.21,1645192817.421875,P16,D08,1,1,1
74,0.16,1645192817.4375,P16,D08,1,1,1
75,0.54,1645192817.453125,P16,D08,1,1,1
76,0.86,1645192817.46875,P16,D08,1,1,1
77,1.09,1645192817.484375,P16,D08,1,1,1
78,1.2,1645192817.5,P16,D08,1,1,1
79,1.19,1645192817.515625,P16,D08,1,1,1
80,1.07,1645192817.53125,P16,D08,1,1,1
81,0.86,1645192817.546875,P16,D08,1,1,1
82,0.66,1645192817.5625,P16,D08,1,1,1
83,0.49,1645192817.578125,P16,D08,1,1,1
84,0.42,1645192817.59375,P16,D08,1,1,1
85,0.41,1645192817.609375,P16,D08,1,1,1
86,0.45,1645192817.625,P16,D08,1,1,1
87,0.5,1645192817.640625,P16,D08,1,1,1
88,0.56,1645192817.65625,P16,D08,1,1,1
89,0.65,1645192817.671875,P16,D08,1,1,1
90,0.76,1645192817.6875,P16,D08,1,1,1
91,0.85,1645192817.703125,P16,D08,1,1,1
92,0.85,1645192817.71875,P16,D08,1,1,1
93,0.72,1645192817.734375,P16,D08,1,1,1
94,0.47,1645192817.75,P16,D08,1,1,1
95,0.2,1645192817.765625,P16,D08,1,1,1
96,-0.02,1645192817.78125,P16,D08,1,1,1
97,-0.11,1645192817.796875,P16,D08,1,1,1
98,-0.09,1645192817.8125,P16,D08,1,1,1
99,-0.03,1645192817.828125,P16,D08,1,1,1
100,0.0,1645192817.84375,P16,D08,1,1,1
101,-0.04,1645192817.859375,P16,D08,1,1,1
102,-0.16,1645192817.875,P16,D08,1,1,1
103,-0.33,1645192817.890625,P16,D08,1,1,1
104,-0.51,1645192817.90625,P16,D08,1,1,1
105,-0.68,1645192817.921875,P16,D08,1,1,1
106,-0.85,1645192817.9375,P16,D08,1,1,1
107,-1.01,1645192817.953125,P16,D08,1,1,1
108,-1.17,1645192817.96875,P16,D08,1,1,1
109,-1.32,1645192817.984375,P16,D08,1,1,1
110,-1.43,1645192818.0,P16,D08,1,1,1
111,-1.46,1645192818.015625,P16,D08,1,1,1
112,-1.38,1645192818.03125,P16,D08,1,1,1
113,-1.2,1645192818.046875,P16,D08,1,1,1
114,-0.97,1645192818.0625,P16,D08,1,1,1
115,-0.77,1645192818.078125,P16,D08,1,1,1
116,-0.64,1645192818.09375,P16,D08,1,1,1
117,-0.6,1645192818.109375,P16,D08,1,1,1
118,-0.59,1645192818.125,P16,D08,1,1,1
119,-0.54,1645192818.140625,P16,D08,1,1,1
120,-0.41,1645192818.15625,P16,D08,1,1,1
121,-0.23,1645192818.171875,P16,D08,1,1,1
122,-0.07,1645192818.1875,P16,D08,1,1,1
123,-0.01,1645192818.203125,P16,D08,1,1,1
124,-0.08,1645192818.21875,P16,D08,1,1,1
125,-0.25,1645192818.234375,P16,D08,1,1,1
126,-0.46,1645192818.25,P16,D08,1,1,1
127,-0.63,1645192818.265625,P16,D08,1,1,1
128,-0.77,1645192818.28125,P16,D08,1,1,1
129,-0.82,1645192818.296875,P16,D08,1,1,1
130,-0.75,1645192818.3125,P16,D08,1,1,1
131,-0.49,1645192818.328125,P16,D08,1,1,1
132,-0.02,1645192818.34375,P16,D08,1,1,1
133,0.62,1645192818.359375,P16,D08,1,1,1
134,1.24,1645192818.375,P16,D08,1,1,1
135,1.64,1645192818.390625,P16,D08,1,1,1
136,1.66,1645192818.40625,P16,D08,1,1,1
137,1.31,1645192818.421875,P16,D08,1,1,1
138,0.73,1645192818.4375,P16,D08,1,1,1
139,0.18,1645192818.453125,P16,D08,1,1,1
140,-0.16,1645192818.46875,P16,D08,1,1,1
141,-0.19,1645192818.484375,P16,D08,1,1,1
142,0.01,1645192818.5,P16,D08,1,1,1
143,0.3,1645192818.515625,P16,D08,1,1,1
144,0.53,1645192818.53125,P16,D08,1,1,1
145,0.61,1645192818.546875,P16,D08,1,1,1
146,0.58,1645192818.5625,P16,D08,1,1,1
147,0.51,1645192818.578125,P16,D08,1,1,1
148,0.47,1645192818.59375,P16,D08,1,1,1
149,0.48,1645192818.609375,P16,D08,1,1,1
150,0.52,1645192818.625,P16,D08,1,1,1
151,0.54,1645192818.640625,P16,D08,1,1,1
152,0.51,1645192818.65625,P16,D08,1,1,1
153,0.43,1645192818.671875,P16,D08,1,1,1
154,0.38,1645192818.6875,P16,D08,1,1,1
155,0.42,1645192818.703125,P16,D08,1,1,1
156,0.61,1645192818.71875,P16,D08,1,1,1
157,0.89,1645192818.734375,P16,D08,1,1,1
158,1.15,1645192818.75,P16,D08,1,1,1
159,1.25,1645192818.765625,P16,D08,1,1,1
160,1.09,1645192818.78125,P16,D08,1,1,1
161,0.71,1645192818.796875,P16,D08,1,1,1
162,0.23,1645192818.8125,P16,D08,1,1,1
163,-0.17,1645192818.828125,P16,D08,1,1,1
164,-0.38,1645192818.84375,P16,D08,1,1,1
165,-0.38,1645192818.859375,P16,D08,1,1,1
166,-0.27,1645192818.875,P16,D08,1,1,1
167,-0.18,1645192818.890625,P16,D08,1,1,1
168,-0.18,1645192818.90625,P16,D08,1,1,1
169,-0.29,1645192818.921875,P16,D08,1,1,1
170,-0.44,1645192818.9375,P16,D08,1,1,1
171,-0.54,1645192818.953125,P16,D08,1,1,1
172,-0.56,1645192818.96875,P16,D08,1,1,1
173,-0.49,1645192818.984375,P16,D08,1,1,1
174,-0.36,1645192819.0,P16,D08,1,1,1
175,-0.22,1645192819.015625,P16,D08,1,1,1
176,-0.09,1645192819.03125,P16,D08,1,1,1
177,0.01,1645192819.046875,P16,D08,1,1,1
178,0.05,1645192819.0625,P16,D08,1,1,1
179,0.04,1645192819.078125,P16,D08,1,1,1
180,-0.04,1645192819.09375,P16,D08,1,1,1
181,-0.14,1645192819.109375,P16,D08,1,1,1
182,-0.22,1645192819.125,P16,D08,1,1,1
183,-0.26,1645192819.140625,P16,D08,1,1,1
184,-0.26,1645192819.15625,P16,D08,1,1,1
185,-0.26,1645192819.171875,P16,D08,1,1,1
186,-0.29,1645192819.1875,P16,D08,1,1,1
187,-0.36,1645192819.203125,P16,D08,1,1,1
188,-0.44,1645192819.21875,P16,D08,1,1,1
189,-0.46,1645192819.234375,P16,D08,1,1,1
190,-0.41,1645192819.25,P16,D08,1,1,1
191,-0.31,1645192819.265625,P16,D08,1,1,1
192,-0.22,1645192819.28125,P16,D08,1,1,1
193,-0.22,1645192819.296875,P16,D08,1,1,1
194,-0.35,1645192819.3125,P16,D08,1,1,1
195,-0.57,1645192819.328125,P16,D08,1,1,1
196,-0.78,1645192819.34375,P16,D08,1,1,1
197,-0.87,1645192819.359375,P16,D08,1,1,1
198,-0.75,1645192819.375,P16,D08,1,1,1
199,-0.43,1645192819.390625,P16,D08,1,1,1
200,-0.01,1645192819.40625,P16,D08,1,1,1
201,0.38,1645192819.421875,P16,D08,1,1,1
202,0.6,1645192819.4375,P16,D08,1,1,1
203,0.62,1645192819.453125,P16,D08,1,1,1
204,0.45,1645192819.46875,P16,D08,1,1,1
205,0.21,1645192819.484375,P16,D08,1,1,1
206,-0.04,1645192819.5,P16,D08,1,1,1
207,-0.22,1645192819.515625,P16,D08,1,1,1
208,-0.32,1645192819.53125,P16,D08,1,1,1
209,-0.36,1645192819.546875,P16,D08,1,1,1
210,-0.35,1645192819.5625,P16,D08,1,1,1
211,-0.29,1645192819.578125,P16,D08,1,1,1
212,-0.21,1645192819.59375,P16,D08,1,1,1
213,-0.14,1645192819.609375,P16,D08,1,1,1
214,-0.14,1645192819.625,P16,D08,1,1,1
215,-0.25,1645192819.640625,P16,D08,1,1,1
216,-0.45,1645192819.65625,P16,D08,1,1,1
217,-0.67,1645192819.671875,P16,D08,1,1,1
218,-0.81,1645192819.6875,P16,D08,1,1,1
219,-0.79,1645192819.703125,P16,D08,1,1,1
220,-0.63,1645192819.71875,P16,D08,1,1,1
221,-0.39,1645192819.734375,P16,D08,1,1,1
222,-0.17,1645192819.75,P16,D08,1,1,1
223,-0.02,1645192819.765625,P16,D08,1,1,1
224,0.04,1645192819.78125,P16,D08,1,1,1
225,0.02,1645192819.796875,P16,D08,1,1,1
226,-0.04,1645192819.8125,P16,D08,1,1,1
227,-0.13,1645192819.828125,P16,D08,1,1,1
228,-0.23,1645192819.84375,P16,D08,1,1,1
229,-0.31,1645192819.859375,P16,D08,1,1,1
230,-0.35,1645192819.875,P16,D08,1,1,1
231,-0.33,1645192819.890625,P16,D08,1,1,1
232,-0.28,1645192819.90625,P16,D08,1,1,1
233,-0.27,1645192819.921875,P16,D08,1,1,1
234,-0.37,1645192819.9375,P16,D08,1,1,1
235,-0.61,1645192819.953125,P16,D08,1,1,1
236,-0.94,1645192819.96875,P16,D08,1,1,1
237,-1.28,1645192819.984375,P16,D08,1,1,1
238,-1.54,1645192820.0,P16,D08,1,1,1
239,-1.66,1645192820.015625,P16,D08,1,1,1
240,-1.65,1645192820.03125,P16,D08,1,1,1
241,-1.57,1645192820.046875,P16,D08,1,1,1
242,-1.49,1645192820.0625,P16,D08,1,1,1
243,-1.43,1645192820.078125,P16,D08,1,1,1
244,-1.39,1645192820.09375,P16,D08,1,1,1
245,-1.33,1645192820.109375,P16,D08,1,1,1
246,-1.17,1645192820.125,P16,D08,1,1,1
247,-0.9,1645192820.140625,P16,D08,1,1,1
248,-0.51,1645192820.15625,P16,D08,1,1,1
249,-0.1,1645192820.171875,P16,D08,1,1,1
250,0.24,1645192820.1875,P16,D08,1,1,1
251,0.39,1645192820.203125,P16,D08,1,1,1
252,0.33,1645192820.21875,P16,D08,1,1,1
253,0.14,1645192820.234375,P16,D08,1,1,1
254,-0.04,1645192820.25,P16,D08,1,1,1
255,-0.1,1645192820.265625,P16,D08,1,1,1
256,0.0,1645192820.28125,P16,D08,1,1,1
257,0.16,1645192820.296875,P16,D08,1,1,1
258,0.21,1645192820.3125,P16,D08,1,1,1
259,0.02,1645192820.328125,P16,D08,1,1,1
260,-0.46,1645192820.34375,P16,D08,1,1,1
261,-1.12,1645192820.359375,P16,D08,1,1,1
262,-1.76,1645192820.375,P16,D08,1,1,1
263,-2.19,1645192820.390625,P16,D08,1,1,1
264,-2.3,1645192820.40625,P16,D08,1,1,1
265,-2.12,1645192820.421875,P16,D08,1,1,1
266,-1.78,1645192820.4375,P16,D08,1,1,1
267,-1.48,1645192820.453125,P16,D08,1,1,1
268,-1.35,1645192820.46875,P16,D08,1,1,1
269,-1.45,1645192820.484375,P16,D08,1,1,1
270,-1.78,1645192820.5,P16,D08,1,1,1
271,-2.28,1645192820.515625,P16,D08,1,1,1
272,-2.9,1645192820.53125,P16,D08,1,1,1
273,-3.57,1645192820.546875,P16,D08,1,1,1
274,-4.09,1645192820.5625,P16,D08,1,1,1
275,-4.23,1645192820.578125,P16,D08,1,1,1
276,-3.66,1645192820.59375,P16,D08,1,1,1
277,-2.19,1645192820.609375,P16,D08,1,1,1
278,0.16,1645192820.625,P16,D08,1,1,1
279,3.05,1645192820.640625,P16,D08,1,1,1
280,5.94,1645192820.65625,P16,D08,1,1,1
281,8.26,1645192820.671875,P16,D08,1,1,1
282,9.62,1645192820.6875,P16,D08,1,1,1
283,9.98,1645192820.703125,P16,D08,1,1,1
284,9.56,1645192820.71875,P16,D08,1,1,1
285,8.79,1645192820.734375,P16,D08,1,1,1
286,8.05,1645192820.75,P16,D08,1,1,1
287,7.6,1645192820.765625,P16,D08,1,1,1
288,7.52,1645192820.78125,P16,D08,1,1,1
289,7.72,1645192820.796875,P16,D08,1,1,1
290,8.05,1645192820.8125,P16,D08,1,1,1
291,8.31,1645192820.828125,P16,D08,1,1,1
292,8.37,1645192820.84375,P16,D08,1,1,1
293,8.16,1645192820.859375,P16,D08,1,1,1
294,7.71,1645192820.875,P16,D08,1,1,1
295,7.14,1645192820.890625,P16,D08,1,1,1
296,6.55,1645192820.90625,P16,D08,1,1,1
297,6.04,1645192820.921875,P16,D08,1,1,1
298,5.58,1645192820.9375,P16,D08,1,1,1
299,5.11,1645192820.953125,P16,D08,1,1,1
300,4.5,1645192820.96875,P16,D08,1,1,1
301,3.65,1645192820.984375,P16,D08,1,1,1
302,2.53,1645192821.0,P16,D08,1,1,1
303,1.17,1645192821.015625,P16,D08,1,1,1
304,-0.31,1645192821.03125,P16,D08,1,1,1
305,-1.77,1645192821.046875,P16,D08,1,1,1
306,-3.06,1645192821.0625,P16,D08,1,1,1
307,-4.06,1645192821.078125,P16,D08,1,1,1
308,-4.72,1645192821.09375,P16,D08,1,1,1
309,-5.06,1645192821.109375,P16,D08,1,1,1
310,-5.12,1645192821.125,P16,D08,1,1,1
311,-5.0,1645192821.140625,P16,D08,1,1,1
312,-4.76,1645192821.15625,P16,D08,1,1,1
313,-4.44,1645192821.171875,P16,D08,1,1,1
314,-4.13,1645192821.1875,P16,D08,1,1,1
315,-3.88,1645192821.203125,P16,D08,1,1,1
316,-3.78,1645192821.21875,P16,D08,1,1,1
317,-3.81,1645192821.234375,P16,D08,1,1,1
318,-3.92,1645192821.25,P16,D08,1,1,1
319,-3.95,1645192821.265625,P16,D08,1,1,1
320,-3.8,1645192821.28125,P16,D08,1,1,1
321,-3.39,1645192821.296875,P16,D08,1,1,1
322,-2.8,1645192821.3125,P16,D08,1,1,1
323,-2.23,1645192821.328125,P16,D08,1,1,1
324,-1.88,1645192821.34375,P16,D08,1,1,1
325,-1.87,1645192821.359375,P16,D08,1,1,1
326,-2.17,1645192821.375,P16,D08,1,1,1
327,-2.59,1645192821.390625,P16,D08,1,1,1
328,-2.87,1645192821.40625,P16,D08,1,1,1
329,-2.85,1645192821.421875,P16,D08,1,1,1
330,-2.49,1645192821.4375,P16,D08,1,1,1
331,-1.92,1645192821.453125,P16,D08,1,1,1
332,-1.31,1645192821.46875,P16,D08,1,1,1
333,-0.83,1645192821.484375,P16,D08,1,1,1
334,-0.54,1645192821.5,P16,D08,1,1,1
335,-0.44,1645192821.515625,P16,D08,1,1,1
336,-0.49,1645192821.53125,P16,D08,1,1,1
337,-0.61,1645192821.546875,P16,D08,1,1,1
338,-0.74,1645192821.5625,P16,D08,1,1,1
339,-0.84,1645192821.578125,P16,D08,1,1,1
340,-0.84,1645192821.59375,P16,D08,1,1,1
341,-0.73,1645192821.609375,P16,D08,1,1,1
342,-0.53,1645192821.625,P16,D08,1,1,1
343,-0.32,1645192821.640625,P16,D08,1,1,1
344,-0.18,1645192821.65625,P16,D08,1,1,1
345,-0.15,1645192821.671875,P16,D08,1,1,1
346,-0.2,1645192821.6875,P16,D08,1,1,1
347,-0.26,1645192821.703125,P16,D08,1,1,1
348,-0.27,1645192821.71875,P16,D08,1,1,1
349,-0.21,1645192821.734375,P16,D08,1,1,1
350,-0.15,1645192821.75,P16,D08,1,1,1
351,-0.16,1645192821.765625,P16,D08,1,1,1
352,-0.29,1645192821.78125,P16,D08,1,1,1
353,-0.52,1645192821.796875,P16,D08,1,1,1
354,-0.76,1645192821.8125,P16,D08,1,1,1
355,-0.92,1645192821.828125,P16,D08,1,1,1
356,-0.96,1645192821.84375,P16,D08,1,1,1
357,-0.87,1645192821.859375,P16,D08,1,1,1
358,-0.71,1645192821.875,P16,D08,1,1,1
359,-0.52,1645192821.890625,P16,D08,1,1,1
360,-0.32,1645192821.90625,P16,D08,1,1,1
361,-0.14,1645192821.921875,P16,D08,1,1,1
362,0.03,1645192821.9375,P16,D08,1,1,1
363,0.16,1645192821.953125,P16,D08,1,1,1
364,0.24,1645192821.96875,P16,D08,1,1,1
365,0.28,1645192821.984375,P16,D08,1,1,1
366,0.29,1645192822.0,P16,D08,1,1,1
367,0.25,1645192822.015625,P16,D08,1,1,1
368,0.12,1645192822.03125,P16,D08,1,1,1
369,-0.12,1645192822.046875,P16,D08,1,1,1
370,-0.48,1645192822.0625,P16,D08,1,1,1
371,-0.89,1645192822.078125,P16,D08,1,1,1
372,-1.21,1645192822.09375,P16,D08,1,1,1
373,-1.32,1645192822.109375,P16,D08,1,1,1
374,-1.14,1645192822.125,P16,D08,1,1,1
375,-0.74,1645192822.140625,P16,D08,1,1,1
376,-0.25,1645192822.15625,P16,D08,1,1,1
377,0.14,1645192822.171875,P16,D08,1,1,1
378,0.31,1645192822.1875,P16,D08,1,1,1
379,0.23,1645192822.203125,P16,D08,1,1,1
380,-0.02,1645192822.21875,P16,D08,1,1,1
381,-0.29,1645192822.234375,P16,D08,1,1,1
382,-0.45,1645192822.25,P16,D08,1,1,1
383,-0.44,1645192822.265625,P16,D08,1,1,1
384,-0.27,1645192822.28125,P16,D08,1,1,1
385,-0.01,1645192822.296875,P16,D08,1,1,1
386,0.24,1645192822.3125,P16,D08,1,1,1
387,0.41,1645192822.328125,P16,D08,1,1,1
388,0.45,1645192822.34375,P16,D08,1,1,1
389,0.38,1645192822.359375,P16,D08,1,1,1
390,0.25,1645192822.375,P16,D08,1,1,1
391,0.11,1645192822.390625,P16,D08,1,1,1
392,0.0,1645192822.40625,P16,D08,1,1,1
393,-0.08,1645192822.421875,P16,D08,1,1,1
394,-0.16,1645192822.4375,P16,D08,1,1,1
395,-0.28,1645192822.453125,P16,D08,1,1,1
396,-0.45,1645192822.46875,P16,D08,1,1,1
397,-0.65,1645192822.484375,P16,D08,1,1,1
398,-0.89,1645192822.5,P16,D08,1,1,1
399,-1.14,1645192822.515625,P16,D08,1,1,1
400,-1.43,1645192822.53125,P16,D08,1,1,1
401,-1.79,1645192822.546875,P16,D08,1,1,1
402,-2.25,1645192822.5625,P16,D08,1,1,1
403,-2.77,1645192822.578125,P16,D08,1,1,1
404,-3.29,1645192822.59375,P16,D08,1,1,1
405,-3.73,1645192822.609375,P16,D08,1,1,1
406,-4.02,1645192822.625,P16,D08,1,1,1
407,-4.17,1645192822.640625,P16,D08,1,1,1
408,-4.2,1645192822.65625,P16,D08,1,1,1
409,-4.21,1645192822.671875,P16,D08,1,1,1
410,-4.22,1645192822.6875,P16,D08,1,1,1
411,-4.27,1645192822.703125,P16,D08,1,1,1
412,-4.34,1645192822.71875,P16,D08,1,1,1
413,-4.43,1645192822.734375,P16,D08,1,1,1
414,-4.56,1645192822.75,P16,D08,1,1,1
415,-4.74,1645192822.765625,P16,D08,1,1,1
416,-4.94,1645192822.78125,P16,D08,1,1,1
417,-5.1,1645192822.796875,P16,D08,1,1,1
418,-5.07,1645192822.8125,P16,D08,1,1,1
419,-4.8,1645192822.828125,P16,D08,1,1,1
420,-4.29,1645192822.84375,P16,D08,1,1,1
421,-3.66,1645192822.859375,P16,D08,1,1,1
422,-3.1,1645192822.875,P16,D08,1,1,1
423,-2.74,1645192822.890625,P16,D08,1,1,1
424,-2.59,1645192822.90625,P16,D08,1,1,1
425,-2.51,1645192822.921875,P16,D08,1,1,1
426,-2.26,1645192822.9375,P16,D08,1,1,1
427,-1.62,1645192822.953125,P16,D08,1,1,1
428,-0.52,1645192822.96875,P16,D08,1,1,1
429,1.01,1645192822.984375,P16,D08,1,1,1
430,2.75,1645192823.0,P16,D08,1,1,1
431,4.49,1645192823.015625,P16,D08,1,1,1
432,6.04,1645192823.03125,P16,D08,1,1,1
433,7.26,1645192823.046875,P16,D08,1,1,1
434,8.11,1645192823.0625,P16,D08,1,1,1
435,8.57,1645192823.078125,P16,D08,1,1,1
436,8.68,1645192823.09375,P16,D08,1,1,1
437,8.5,1645192823.109375,P16,D08,1,1,1
438,8.11,1645192823.125,P16,D08,1,1,1
439,7.61,1645192823.140625,P16,D08,1,1,1
440,7.07,1645192823.15625,P16,D08,1,1,1
441,6.57,1645192823.171875,P16,D08,1,1,1
442,6.1,1645192823.1875,P16,D08,1,1,1
443,5.69,1645192823.203125,P16,D08,1,1,1
444,5.37,1645192823.21875,P16,D08,1,1,1
445,5.13,1645192823.234375,P16,D08,1,1,1
446,4.99,1645192823.25,P16,D08,1,1,1
447,4.85,1645192823.265625,P16,D08,1,1,1
448,4.63,1645192823.28125,P16,D08,1,1,1
449,4.21,1645192823.296875,P16,D08,1,1,1
450,3.58,1645192823.3125,P16,D08,1,1,1
451,2.82,1645192823.328125,P16,D08,1,1,1
452,2.05,1645192823.34375,P16,D08,1,1,1
453,1.37,1645192823.359375,P16,D08,1,1,1
454,0.82,1645192823.375,P16,D08,1,1,1
455,0.34,1645192823.390625,P16,D08,1,1,1
456,-0.18,1645192823.40625,P16,D08,1,1,1
457,-0.75,1645192823.421875,P16,D08,1,1,1
458,-1.34,1645192823.4375,P16,D08,1,1,1
459,-1.82,1645192823.453125,P16,D08,1,1,1
460,-2.08,1645192823.46875,P16,D08,1,1,1
461,-2.07,1645192823.484375,P16,D08,1,1,1
462,-1.81,1645192823.5,P16,D08,1,1,1
463,-1.41,1645192823.515625,P16,D08,1,1,1
464,-0.98,1645192823.53125,P16,D08,1,1,1
465,-0.62,1645192823.546875,P16,D08,1,1,1
466,-0.39,1645192823.5625,P16,D08,1,1,1
467,-0.35,1645192823.578125,P16,D08,1,1,1
468,-0.44,1645192823.59375,P16,D08,1,1,1
469,-0.6,1645192823.609375,P16,D08,1,1,1
470,-0.66,1645192823.625,P16,D08,1,1,1
471,-0.47,1645192823.640625,P16,D08,1,1,1
472,0.08,1645192823.65625,P16,D08,1,1,1
473,1.0,1645192823.671875,P16,D08,1,1,1
474,2.19,1645192823.6875,P16,D08,1,1,1
475,3.46,1645192823.703125,P16,D08,1,1,1
476,4.63,1645192823.71875,P16,D08,1,1,1
477,5.51,1645192823.734375,P16,D08,1,1,1
478,5.99,1645192823.75,P16,D08,1,1,1
479,6.01,1645192823.765625,P16,D08,1,1,1
480,5.53,1645192823.78125,P16,D08,1,1,1
481,4.62,1645192823.796875,P16,D08,1,1,1
482,3.38,1645192823.8125,P16,D08,1,1,1
483,2.03,1645192823.828125,P16,D08,1,1,1
484,0.79,1645192823.84375,P16,D08,1,1,1
485,-0.11,1645192823.859375,P16,D08,1,1,1
486,-0.58,1645192823.875,P16,D08,1,1,1
487,-0.64,1645192823.890625,P16,D08,1,1,1
488,-0.42,1645192823.90625,P16,D08,1,1,1
489,-0.1,1645192823.921875,P16,D08,1,1,1
490,0.17,1645192823.9375,P16,D08,1,1,1
491,0.31,1645192823.953125,P16,D08,1,1,1
492,0.36,1645192823.96875,P16,D08,1,1,1
493,0.4,1645192823.984375,P16,D08,1,1,1
494,0.52,1645192824.0,P16,D08,1,1,1
495,0.71,1645192824.015625,P16,D08,1,1,1
496,0.9,1645192824.03125,P16,D08,1,1,1
497,0.99,1645192824.046875,P16,D08,1,1,1
498,0.89,1645192824.0625,P16,D08,1,1,1
499,0.63,1645192824.078125,P16,D08,1,1,1
500,0.28,1645192824.09375,P16,D08,1,1,1
501,0.02,1645192824.109375,P16,D08,1,1,1
502,-0.06,1645192824.125,P16,D08,1,1,1
503,0.06,1645192824.140625,P16,D08,1,1,1
504,0.29,1645192824.15625,P16,D08,1,1,1
505,0.47,1645192824.171875,P16,D08,1,1,1
506,0.44,1645192824.1875,P16,D08,1,1,1
507,0.14,1645192824.203125,P16,D08,1,1,1
508,-0.37,1645192824.21875,P16,D08,1,1,1
509,-0.98,1645192824.234375,P16,D08,1,1,1
510,-1.54,1645192824.25,P16,D08,1,1,1
511,-1.94,1645192824.265625,P16,D08,1,1,1
512,-2.16,1645192824.28125,P16,D08,1,1,1
513,-2.24,1645192824.296875,P16,D08,1,1,1
514,-2.28,1645192824.3125,P16,D08,1,1,1
515,-2.37,1645192824.328125,P16,D08,1,1,1
516,-2.52,1645192824.34375,P16,D08,1,1,1
517,-2.65,1645192824.359375,P16,D08,1,1,1
518,-2.65,1645192824.375,P16,D08,1,1,1
519,-2.43,1645192824.390625,P16,D08,1,1,1
520,-2.02,1645192824.40625,P16,D08,1,1,1
521,-1.53,1645192824.421875,P16,D08,1,1,1
522,-1.12,1645192824.4375,P16,D08,1,1,1
523,-0.94,1645192824.453125,P16,D08,1,1,1
524,-1.0,1645192824.46875,P16,D08,1,1,1
525,-1.25,1645192824.484375,P16,D08,1,1,1
526,-1.57,1645192824.5,P16,D08,1,1,1
527,-1.85,1645192824.515625,P16,D08,1,1,1
528,-2.04,1645192824.53125,P16,D08,1,1,1
529,-2.14,1645192824.546875,P16,D08,1,1,1
530,-2.11,1645192824.5625,P16,D08,1,1,1
531,-1.96,1645192824.578125,P16,D08,1,1,1
532,-1.68,1645192824.59375,P16,D08,1,1,1
533,-1.33,1645192824.609375,P16,D08,1,1,1
534,-0.98,1645192824.625,P16,D08,1,1,1
535,-0.73,1645192824.640625,P16,D08,1,1,1
536,-0.63,1645192824.65625,P16,D08,1,1,1
537,-0.61,1645192824.671875,P16,D08,1,1,1
538,-0.58,1645192824.6875,P16,D08,1,1,1
539,-0.45,1645192824.703125,P16,D08,1,1,1
540,-0.22,1645192824.71875,P16,D08,1,1,1
541,0.0,1645192824.734375,P16,D08,1,1,1
542,0.11,1645192824.75,P16,D08,1,1,1
543,0.02,1645192824.765625,P16,D08,1,1,1
544,-0.21,1645192824.78125,P16,D08,1,1,1
545,-0.49,1645192824.796875,P16,D08,1,1,1
546,-0.68,1645192824.8125,P16,D08,1,1,1
547,-0.7,1645192824.828125,P16,D08,1,1,1
548,-0.52,1645192824.84375,P16,D08,1,1,1
549,-0.21,1645192824.859375,P16,D08,1,1,1
550,0.15,1645192824.875,P16,D08,1,1,1
551,0.44,1645192824.890625,P16,D08,1,1,1
552,0.56,1645192824.90625,P16,D08,1,1,1
553,0.46,1645192824.921875,P16,D08,1,1,1
554,0.15,1645192824.9375,P16,D08,1,1,1
555,-0.32,1645192824.953125,P16,D08,1,1,1
556,-0.82,1645192824.96875,P16,D08,1,1,1
557,-1.25,1645192824.984375,P16,D08,1,1,1
558,-1.51,1645192825.0,P16,D08,1,1,1
559,-1.57,1645192825.015625,P16,D08,1,1,1
560,-1.45,1645192825.03125,P16,D08,1,1,1
561,-1.23,1645192825.046875,P16,D08,1,1,1
562,-0.97,1645192825.0625,P16,D08,1,1,1
563,-0.76,1645192825.078125,P16,D08,1,1,1
564,-0.63,1645192825.09375,P16,D08,1,1,1
565,-0.63,1645192825.109375,P16,D08,1,1,1
566,-0.73,1645192825.125,P16,D08,1,1,1
567,-0.89,1645192825.140625,P16,D08,1,1,1
568,-1.02,1645192825.15625,P16,D08,1,1,1
569,-1.07,1645192825.171875,P16,D08,1,1,1
570,-1.04,1645192825.1875,P16,D08,1,1,1
571,-0.96,1645192825.203125,P16,D08,1,1,1
572,-0.87,1645192825.21875,P16,D08,1,1,1
573,-0.79,1645192825.234375,P16,D08,1,1,1
574,-0.69,1645192825.25,P16,D08,1,1,1
575,-0.51,1645192825.265625,P16,D08,1,1,1
576,-0.22,1645192825.28125,P16,D08,1,1,1
577,0.14,1645192825.296875,P16,D08,1,1,1
578,0.46,1645192825.3125,P16,D08,1,1,1
579,0.62,1645192825.328125,P16,D08,1,1,1
580,0.56,1645192825.34375,P16,D08,1,1,1
581,0.38,1645192825.359375,P16,D08,1,1,1
582,0.25,1645192825.375,P16,D08,1,1,1
583,0.35,1645192825.390625,P16,D08,1,1,1
584,0.75,1645192825.40625,P16,D08,1,1,1
585,1.36,1645192825.421875,P16,D08,1,1,1
586,1.92,1645192825.4375,P16,D08,1,1,1
587,2.16,1645192825.453125,P16,D08,1,1,1
588,1.95,1645192825.46875,P16,D08,1,1,1
589,1.36,1645192825.484375,P16,D08,1,1,1
590,0.61,1645192825.5,P16,D08,1,1,1
591,-0.01,1645192825.515625,P16,D08,1,1,1
592,-0.31,1645192825.53125,P16,D08,1,1,1
593,-0.24,1645192825.546875,P16,D08,1,1,1
594,0.12,1645192825.5625,P16,D08,1,1,1
595,0.65,1645192825.578125,P16,D08,1,1,1
596,1.2,1645192825.59375,P16,D08,1,1,1
597,1.64,1645192825.609375,P16,D08,1,1,1
598,1.85,1645192825.625,P16,D08,1,1,1
599,1.75,1645192825.640625,P16,D08,1,1,1
600,1.34,1645192825.65625,P16,D08,1,1,1
601,0.68,1645192825.671875,P16,D08,1,1,1
602,-0.06,1645192825.6875,P16,D08,1,1,1
603,-0.66,1645192825.703125,P16,D08,1,1,1
604,-0.97,1645192825.71875,P16,D08,1,1,1
605,-0.97,1645192825.734375,P16,D08,1,1,1
606,-0.73,1645192825.75,P16,D08,1,1,1
607,-0.4,1645192825.765625,P16,D08,1,1,1
608,-0.11,1645192825.78125,P16,D08,1,1,1
609,0.07,1645192825.796875,P16,D08,1,1,1
610,0.12,1645192825.8125,P16,D08,1,1,1
611,0.05,1645192825.828125,P16,D08,1,1,1
612,-0.11,1645192825.84375,P16,D08,1,1,1
613,-0.3,1645192825.859375,P16,D08,1,1,1
614,-0.43,1645192825.875,P16,D08,1,1,1
615,-0.42,1645192825.890625,P16,D08,1,1,1
616,-0.22,1645192825.90625,P16,D08,1,1,1
617,0.16,1645192825.921875,P16,D08,1,1,1
618,0.62,1645192825.9375,P16,D08,1,1,1
619,0.98,1645192825.953125,P16,D08,1,1,1
620,1.11,1645192825.96875,P16,D08,1,1,1
621,0.94,1645192825.984375,P16,D08,1,1,1
622,0.51,1645192826.0,P16,D08,1,1,1
623,-0.07,1645192826.015625,P16,D08,1,1,1
624,-0.62,1645192826.03125,P16,D08,1,1,1
625,-1.04,1645192826.046875,P16,D08,1,1,1
626,-1.24,1645192826.0625,P16,D08,1,1,1
627,-1.24,1645192826.078125,P16,D08,1,1,1
628,-1.09,1645192826.09375,P16,D08,1,1,1
629,-0.82,1645192826.109375,P16,D08,1,1,1
630,-0.48,1645192826.125,P16,D08,1,1,1
631,-0.07,1645192826.140625,P16,D08,1,1,1
632,0.35,1645192826.15625,P16,D08,1,1,1
633,0.74,1645192826.171875,P16,D08,1,1,1
634,1.01,1645192826.1875,P16,D08,1,1,1
635,1.1,1645192826.203125,P16,D08,1,1,1
636,0.99,1645192826.21875,P16,D08,1,1,1
637,0.76,1645192826.234375,P16,D08,1,1,1
638,0.51,1645192826.25,P16,D08,1,1,1
639,0.36,1645192826.265625,P16,D08,1,1,1
640,0.37,1645192826.28125,P16,D08,1,1,1
641,0.52,1645192826.296875,P16,D08,1,1,1
642,0.73,1645192826.3125,P16,D08,1,1,1
643,0.89,1645192826.328125,P16,D08,1,1,1
644,0.9,1645192826.34375,P16,D08,1,1,1
645,0.75,1645192826.359375,P16,D08,1,1,1
646,0.49,1645192826.375,P16,D08,1,1,1
647,0.21,1645192826.390625,P16,D08,1,1,1
648,-0.0,1645192826.40625,P16,D08,1,1,1
649,-0.12,1645192826.421875,P16,D08,1,1,1
650,-0.16,1645192826.4375,P16,D08,1,1,1
651,-0.2,1645192826.453125,P16,D08,1,1,1
652,-0.26,1645192826.46875,P16,D08,1,1,1
653,-0.34,1645192826.484375,P16,D08,1,1,1
654,-0.42,1645192826.5,P16,D08,1,1,1
655,-0.42,1645192826.515625,P16,D08,1,1,1
656,-0.34,1645192826.53125,P16,D08,1,1,1
657,-0.23,1645192826.546875,P16,D08,1,1,1
658,-0.16,1645192826.5625,P16,D08,1,1,1
659,-0.22,1645192826.578125,P16,D08,1,1,1
660,-0.42,1645192826.59375,P16,D08,1,1,1
661,-0.72,1645192826.609375,P16,D08,1,1,1
662,-1.06,1645192826.625,P16,D08,1,1,1
663,-1.39,1645192826.640625,P16,D08,1,1,1
664,-1.68,1645192826.65625,P16,D08,1,1,1
665,-1.96,1645192826.671875,P16,D08,1,1,1
666,-2.25,1645192826.6875,P16,D08,1,1,1
667,-2.55,1645192826.703125,P16,D08,1,1,1
668,-2.81,1645192826.71875,P16,D08,1,1,1
669,-2.98,1645192826.734375,P16,D08,1,1,1
670,-2.98,1645192826.75,P16,D08,1,1,1
671,-2.79,1645192826.765625,P16,D08,1,1,1
672,-2.43,1645192826.78125,P16,D08,1,1,1
673,-1.99,1645192826.796875,P16,D08,1,1,1
674,-1.59,1645192826.8125,P16,D08,1,1,1
675,-1.34,1645192826.828125,P16,D08,1,1,1
676,-1.27,1645192826.84375,P16,D08,1,1,1
677,-1.37,1645192826.859375,P16,D08,1,1,1
678,-1.5,1645192826.875,P16,D08,1,1,1
679,-1.52,1645192826.890625,P16,D08,1,1,1
680,-1.35,1645192826.90625,P16,D08,1,1,1
681,-0.97,1645192826.921875,P16,D08,1,1,1
682,-0.48,1645192826.9375,P16,D08,1,1,1
683,-0.01,1645192826.953125,P16,D08,1,1,1
684,0.33,1645192826.96875,P16,D08,1,1,1
685,0.48,1645192826.984375,P16,D08,1,1,1
686,0.44,1645192827.0,P16,D08,1,1,1
687,0.23,1645192827.015625,P16,D08,1,1,1
688,-0.12,1645192827.03125,P16,D08,1,1,1
689,-0.55,1645192827.046875,P16,D08,1,1,1
690,-0.95,1645192827.0625,P16,D08,1,1,1
691,-1.16,1645192827.078125,P16,D08,1,1,1
692,-1.05,1645192827.09375,P16,D08,1,1,1
693,-0.54,1645192827.109375,P16,D08,1,1,1
694,0.3,1645192827.125,P16,D08,1,1,1
695,1.27,1645192827.140625,P16,D08,1,1,1
696,2.11,1645192827.15625,P16,D08,1,1,1
697,2.62,1645192827.171875,P16,D08,1,1,1
698,2.73,1645192827.1875,P16,D08,1,1,1
699,2.56,1645192827.203125,P16,D08,1,1,1
700,2.28,1645192827.21875,P16,D08,1,1,1
701,2.05,1645192827.234375,P16,D08,1,1,1
702,1.92,1645192827.25,P16,D08,1,1,1
703,1.84,1645192827.265625,P16,D08,1,1,1
704,1.67,1645192827.28125,P16,D08,1,1,1
705,1.35,1645192827.296875,P16,D08,1,1,1
706,0.89,1645192827.3125,P16,D08,1,1,1
707,0.43,1645192827.328125,P16,D08,1,1,1
708,0.14,1645192827.34375,P16,D08,1,1,1
709,0.17,1645192827.359375,P16,D08,1,1,1
710,0.53,1645192827.375,P16,D08,1,1,1
711,1.13,1645192827.390625,P16,D08,1,1,1
712,1.76,1645192827.40625,P16,D08,1,1,1
713,2.22,1645192827.421875,P16,D08,1,1,1
714,2.39,1645192827.4375,P16,D08,1,1,1
715,2.28,1645192827.453125,P16,D08,1,1,1
716,2.0,1645192827.46875,P16,D08,1,1,1
717,1.68,1645192827.484375,P16,D08,1,1,1
718,1.45,1645192827.5,P16,D08,1,1,1
719,1.33,1645192827.515625,P16,D08,1,1,1
720,1.32,1645192827.53125,P16,D08,1,1,1
721,1.39,1645192827.546875,P16,D08,1,1,1
722,1.51,1645192827.5625,P16,D08,1,1,1
723,1.66,1645192827.578125,P16,D08,1,1,1
724,1.81,1645192827.59375,P16,D08,1,1,1
725,1.89,1645192827.609375,P16,D08,1,1,1
726,1.84,1645192827.625,P16,D08,1,1,1
727,1.59,1645192827.640625,P16,D08,1,1,1
728,1.12,1645192827.65625,P16,D08,1,1,1
729,0.49,1645192827.671875,P16,D08,1,1,1
730,-0.21,1645192827.6875,P16,D08,1,1,1
731,-0.8,1645192827.703125,P16,D08,1,1,1
732,-1.16,1645192827.71875,P16,D08,1,1,1
733,-1.2,1645192827.734375,P16,D08,1,1,1
734,-0.94,1645192827.75,P16,D08,1,1,1
735,-0.49,1645192827.765625,P16,D08,1,1,1
736,-0.04,1645192827.78125,P16,D08,1,1,1
737,0.25,1645192827.796875,P16,D08,1,1,1
738,0.28,1645192827.8125,P16,D08,1,1,1
739,0.09,1645192827.828125,P16,D08,1,1,1
740,-0.21,1645192827.84375,P16,D08,1,1,1
741,-0.48,1645192827.859375,P16,D08,1,1,1
742,-0.63,1645192827.875,P16,D08,1,1,1
743,-0.69,1645192827.890625,P16,D08,1,1,1
744,-0.76,1645192827.90625,P16,D08,1,1,1
745,-0.91,1645192827.921875,P16,D08,1,1,1
746,-1.18,1645192827.9375,P16,D08,1,1,1
747,-1.5,1645192827.953125,P16,D08,1,1,1
748,-1.75,1645192827.96875,P16,D08,1,1,1
749,-1.85,1645192827.984375,P16,D08,1,1,1
750,-1.78,1645192828.0,P16,D08,1,1,1
751,-1.58,1645192828.015625,P16,D08,1,1,1
752,-1.33,1645192828.03125,P16,D08,1,1,1
753,-1.1,1645192828.046875,P16,D08,1,1,1
754,-0.9,1645192828.0625,P16,D08,1,1,1
755,-0.7,1645192828.078125,P16,D08,1,1,1
756,-0.46,1645192828.09375,P16,D08,1,1,1
757,-0.2,1645192828.109375,P16,D08,1,1,1
758,0.01,1645192828.125,P16,D08,1,1,1
759,0.09,1645192828.140625,P16,D08,1,1,1
760,-0.0,1645192828.15625,P16,D08,1,1,1
761,-0.24,1645192828.171875,P16,D08,1,1,1
762,-0.52,1645192828.1875,P16,D08,1,1,1
763,-0.7,1645192828.203125,P16,D08,1,1,1
764,-0.66,1645192828.21875,P16,D08,1,1,1
765,-0.4,1645192828.234375,P16,D08,1,1,1
766,0.02,1645192828.25,P16,D08,1,1,1
767,0.46,1645192828.265625,P16,D08,1,1,1
768,0.78,1645192828.28125,P16,D08,1,1,1
769,0.9,1645192828.296875,P16,D08,1,1,1
770,0.82,1645192828.3125,P16,D08,1,1,1
771,0.62,1645192828.328125,P16,D08,1,1,1
772,0.43,1645192828.34375,P16,D08,1,1,1
773,0.35,1645192828.359375,P16,D08,1,1,1
774,0.43,1645192828.375,P16,D08,1,1,1
775,0.65,1645192828.390625,P16,D08,1,1,1
776,0.93,1645192828.40625,P16,D08,1,1,1
777,1.18,1645192828.421875,P16,D08,1,1,1
778,1.35,1645192828.4375,P16,D08,1,1,1
779,1.4,1645192828.453125,P16,D08,1,1,1
780,1.35,1645192828.46875,P16,D08,1,1,1
781,1.23,1645192828.484375,P16,D08,1,1,1
782,1.05,1645192828.5,P16,D08,1,1,1
783,0.79,1645192828.515625,P16,D08,1,1,1
784,0.46,1645192828.53125,P16,D08,1,1,1
785,0.08,1645192828.546875,P16,D08,1,1,1
786,-0.35,1645192828.5625,P16,D08,1,1,1
787,-0.78,1645192828.578125,P16,D08,1,1,1
788,-1.14,1645192828.59375,P16,D08,1,1,1
789,-1.37,1645192828.609375,P16,D08,1,1,1
790,-1.41,1645192828.625,P16,D08,1,1,1
791,-1.28,1645192828.640625,P16,D08,1,1,1
792,-1.0,1645192828.65625,P16,D08,1,1,1
793,-0.71,1645192828.671875,P16,D08,1,1,1
794,-0.49,1645192828.6875,P16,D08,1,1,1
795,-0.44,1645192828.703125,P16,D08,1,1,1
796,-0.53,1645192828.71875,P16,D08,1,1,1
797,-0.68,1645192828.734375,P16,D08,1,1,1
798,-0.82,1645192828.75,P16,D08,1,1,1
799,-0.87,1645192828.765625,P16,D08,1,1,1
800,-0.88,1645192828.78125,P16,D08,1,1,1
801,-0.93,1645192828.796875,P16,D08,1,1,1
802,-1.08,1645192828.8125,P16,D08,1,1,1
803,-1.35,1645192828.828125,P16,D08,1,1,1
804,-1.65,1645192828.84375,P16,D08,1,1,1
805,-1.9,1645192828.859375,P16,D08,1,1,1
806,-2.0,1645192828.875,P16,D08,1,1,1
807,-1.93,1645192828.890625,P16,D08,1,1,1
808,-1.71,1645192828.90625,P16,D08,1,1,1
809,-1.37,1645192828.921875,P16,D08,1,1,1
810,-0.96,1645192828.9375,P16,D08,1,1,1
811,-0.55,1645192828.953125,P16,D08,1,1,1
812,-0.18,1645192828.96875,P16,D08,1,1,1
813,0.08,1645192828.984375,P16,D08,1,1,1
814,0.17,1645192829.0,P16,D08,1,1,1
815,0.04,1645192829.015625,P16,D08,1,1,1
816,-0.28,1645192829.03125,P16,D08,1,1,1
817,-0.68,1645192829.046875,P16,D08,1,1,1
818,-1.05,1645192829.0625,P16,D08,1,1,1
819,-1.26,1645192829.078125,P16,D08,1,1,1
820,-1.29,1645192829.09375,P16,D08,1,1,1
821,-1.15,1645192829.109375,P16,D08,1,1,1
822,-0.95,1645192829.125,P16,D08,1,1,1
823,-0.75,1645192829.140625,P16,D08,1,1,1
824,-0.6,1645192829.15625,P16,D08,1,1,1
825,-0.49,1645192829.171875,P16,D08,1,1,1
826,-0.38,1645192829.1875,P16,D08,1,1,1
827,-0.24,1645192829.203125,P16,D08,1,1,1
828,-0.06,1645192829.21875,P16,D08,1,1,1
829,0.15,1645192829.234375,P16,D08,1,1,1
830,0.39,1645192829.25,P16,D08,1,1,1
831,0.68,1645192829.265625,P16,D08,1,1,1
832,1.01,1645192829.28125,P16,D08,1,1,1
833,1.32,1645192829.296875,P16,D08,1,1,1
834,1.52,1645192829.3125,P16,D08,1,1,1
835,1.49,1645192829.328125,P16,D08,1,1,1
836,1.19,1645192829.34375,P16,D08,1,1,1
837,0.68,1645192829.359375,P16,D08,1,1,1
838,0.12,1645192829.375,P16,D08,1,1,1
839,-0.3,1645192829.390625,P16,D08,1,1,1
840,-0.45,1645192829.40625,P16,D08,1,1,1
841,-0.28,1645192829.421875,P16,D08,1,1,1
842,0.11,1645192829.4375,P16,D08,1,1,1
843,0.58,1645192829.453125,P16,D08,1,1,1
844,1.0,1645192829.46875,P16,D08,1,1,1
845,1.29,1645192829.484375,P16,D08,1,1,1
846,1.45,1645192829.5,P16,D08,1,1,1
847,1.52,1645192829.515625,P16,D08,1,1,1
848,1.55,1645192829.53125,P16,D08,1,1,1
849,1.52,1645192829.546875,P16,D08,1,1,1
850,1.37,1645192829.5625,P16,D08,1,1,1
851,1.01,1645192829.578125,P16,D08,1,1,1
852,0.41,1645192829.59375,P16,D08,1,1,1
853,-0.37,1645192829.609375,P16,D08,1,1,1
854,-1.16,1645192829.625,P16,D08,1,1,1
855,-1.74,1645192829.640625,P16,D08,1,1,1
856,-1.96,1645192829.65625,P16,D08,1,1,1
857,-1.8,1645192829.671875,P16,D08,1,1,1
858,-1.4,1645192829.6875,P16,D08,1,1,1
859,-1.0,1645192829.703125,P16,D08,1,1,1
860,-0.78,1645192829.71875,P16,D08,1,1,1
861,-0.79,1645192829.734375,P16,D08,1,1,1
862,-0.96,1645192829.75,P16,D08,1,1,1
863,-1.14,1645192829.765625,P16,D08,1,1,1
864,-1.21,1645192829.78125,P16,D08,1,1,1
865,-1.16,1645192829.796875,P16,D08,1,1,1
866,-1.04,1645192829.8125,P16,D08,1,1,1
867,-0.92,1645192829.828125,P16,D08,1,1,1
868,-0.81,1645192829.84375,P16,D08,1,1,1
869,-0.64,1645192829.859375,P16,D08,1,1,1
870,-0.35,1645192829.875,P16,D08,1,1,1
871,0.12,1645192829.890625,P16,D08,1,1,1
872,0.7,1645192829.90625,P16,D08,1,1,1
873,1.27,1645192829.921875,P16,D08,1,1,1
874,1.72,1645192829.9375,P16,D08,1,1,1
875,1.97,1645192829.953125,P16,D08,1,1,1
876,2.04,1645192829.96875,P16,D08,1,1,1
877,2.0,1645192829.984375,P16,D08,1,1,1
878,1.93,1645192830.0,P16,D08,1,1,1
879,1.86,1645192830.015625,P16,D08,1,1,1
880,1.79,1645192830.03125,P16,D08,1,1,1
881,1.72,1645192830.046875,P16,D08,1,1,1
882,1.63,1645192830.0625,P16,D08,1,1,1
883,1.57,1645192830.078125,P16,D08,1,1,1
884,1.55,1645192830.09375,P16,D08,1,1,1
885,1.58,1645192830.109375,P16,D08,1,1,1
886,1.61,1645192830.125,P16,D08,1,1,1
887,1.58,1645192830.140625,P16,D08,1,1,1
888,1.48,1645192830.15625,P16,D08,1,1,1
889,1.32,1645192830.171875,P16,D08,1,1,1
890,1.16,1645192830.1875,P16,D08,1,1,1
891,1.08,1645192830.203125,P16,D08,1,1,1
892,1.1,1645192830.21875,P16,D08,1,1,1
893,1.18,1645192830.234375,P16,D08,1,1,1
894,1.21,1645192830.25,P16,D08,1,1,1
895,1.12,1645192830.265625,P16,D08,1,1,1
896,0.86,1645192830.28125,P16,D08,1,1,1
897,0.47,1645192830.296875,P16,D08,1,1,1
898,0.03,1645192830.3125,P16,D08,1,1,1
899,-0.39,1645192830.328125,P16,D08,1,1,1
900,-0.73,1645192830.34375,P16,D08,1,1,1
901,-0.98,1645192830.359375,P16,D08,1,1,1
902,-1.16,1645192830.375,P16,D08,1,1,1
903,-1.31,1645192830.390625,P16,D08,1,1,1
904,-1.44,1645192830.40625,P16,D08,1,1,1
905,-1.58,1645192830.421875,P16,D08,1,1,1
906,-1.72,1645192830.4375,P16,D08,1,1,1
907,-1.9,1645192830.453125,P16,D08,1,1,1
908,-2.17,1645192830.46875,P16,D08,1,1,1
909,-2.53,1645192830.484375,P16,D08,1,1,1
910,-2.96,1645192830.5,P16,D08,1,1,1
911,-3.3,1645192830.515625,P16,D08,1,1,1
912,-3.41,1645192830.53125,P16,D08,1,1,1
913,-3.16,1645192830.546875,P16,D08,1,1,1
914,-2.54,1645192830.5625,P16,D08,1,1,1
915,-1.68,1645192830.578125,P16,D08,1,1,1
916,-0.8,1645192830.59375,P16,D08,1,1,1
917,-0.07,1645192830.609375,P16,D08,1,1,1
918,0.39,1645192830.625,P16,D08,1,1,1
919,0.61,1645192830.640625,P16,D08,1,1,1
920,0.67,1645192830.65625,P16,D08,1,1,1
921,0.67,1645192830.671875,P16,D08,1,1,1
922,0.66,1645192830.6875,P16,D08,1,1,1
923,0.63,1645192830.703125,P16,D08,1,1,1
924,0.53,1645192830.71875,P16,D08,1,1,1
925,0.33,1645192830.734375,P16,D08,1,1,1
926,0.04,1645192830.75,P16,D08,1,1,1
927,-0.3,1645192830.765625,P16,D08,1,1,1
928,-0.62,1645192830.78125,P16,D08,1,1,1
929,-0.81,1645192830.796875,P16,D08,1,1,1
930,-0.81,1645192830.8125,P16,D08,1,1,1
931,-0.56,1645192830.828125,P16,D08,1,1,1
932,-0.11,1645192830.84375,P16,D08,1,1,1
933,0.45,1645192830.859375,P16,D08,1,1,1
934,0.99,1645192830.875,P16,D08,1,1,1
935,1.37,1645192830.890625,P16,D08,1,1,1
936,1.54,1645192830.90625,P16,D08,1,1,1
937,1.52,1645192830.921875,P16,D08,1,1,1
938,1.34,1645192830.9375,P16,D08,1,1,1
939,1.08,1645192830.953125,P16,D08,1,1,1
940,0.79,1645192830.96875,P16,D08,1,1,1
941,0.51,1645192830.984375,P16,D08,1,1,1
942,0.27,1645192831.0,P16,D08,1,1,1
943,0.14,1645192831.015625,P16,D08,1,1,1
944,0.16,1645192831.03125,P16,D08,1,1,1
945,0.36,1645192831.046875,P16,D08,1,1,1
946,0.67,1645192831.0625,P16,D08,1,1,1
947,1.0,1645192831.078125,P16,D08,1,1,1
948,1.23,1645192831.09375,P16,D08,1,1,1
949,1.28,1645192831.109375,P16,D08,1,1,1
950,1.18,1645192831.125,P16,D08,1,1,1
951,1.0,1645192831.140625,P16,D08,1,1,1
952,0.82,1645192831.15625,P16,D08,1,1,1
953,0.71,1645192831.171875,P16,D08,1,1,1
954,0.69,1645192831.1875,P16,D08,1,1,1
955,0.74,1645192831.203125,P16,D08,1,1,1
956,0.83,1645192831.21875,P16,D08,1,1,1
957,0.96,1645192831.234375,P16,D08,1,1,1
958,1.13,1645192831.25,P16,D08,1,1,1
959,1.31,1645192831.265625,P16,D08,1,1,1
960,1.49,1645192831.28125,P16,D08,1,1,1
961,1.59,1645192831.296875,P16,D08,1,1,1
962,1.59,1645192831.3125,P16,D08,1,1,1
963,1.46,1645192831.328125,P16,D08,1,1,1
964,1.24,1645192831.34375,P16,D08,1,1,1
965,0.97,1645192831.359375,P16,D08,1,1,1
966,0.71,1645192831.375,P16,D08,1,1,1
967,0.49,1645192831.390625,P16,D08,1,1,1
968,0.35,1645192831.40625,P16,D08,1,1,1
969,0.29,1645192831.421875,P16,D08,1,1,1
970,0.29,1645192831.4375,P16,D08,1,1,1
971,0.28,1645192831.453125,P16,D08,1,1,1
972,0.16,1645192831.46875,P16,D08,1,1,1
973,-0.1,1645192831.484375,P16,D08,1,1,1
974,-0.47,1645192831.5,P16,D08,1,1,1
975,-0.8,1645192831.515625,P16,D08,1,1,1
976,-0.91,1645192831.53125,P16,D08,1,1,1
977,-0.68,1645192831.546875,P16,D08,1,1,1
978,-0.13,1645192831.5625,P16,D08,1,1,1
979,0.54,1645192831.578125,P16,D08,1,1,1
980,1.06,1645192831.59375,P16,D08,1,1,1
981,1.22,1645192831.609375,P16,D08,1,1,1
982,1.0,1645192831.625,P16,D08,1,1,1
983,0.53,1645192831.640625,P16,D08,1,1,1
984,0.07,1645192831.65625,P16,D08,1,1,1
985,-0.19,1645192831.671875,P16,D08,1,1,1
986,-0.17,1645192831.6875,P16,D08,1,1,1
987,0.04,1645192831.703125,P16,D08,1,1,1
988,0.29,1645192831.71875,P16,D08,1,1,1
989,0.46,1645192831.734375,P16,D08,1,1,1
990,0.51,1645192831.75,P16,D08,1,1,1
991,0.5,1645192831.765625,P16,D08,1,1,1
992,0.48,1645192831.78125,P16,D08,1,1,1
993,0.49,1645192831.796875,P16,D08,1,1,1
994,0.49,1645192831.8125,P16,D08,1,1,1
995,0.42,1645192831.828125,P16,D08,1,1,1
996,0.25,1645192831.84375,P16,D08,1,1,1
997,0.02,1645192831.859375,P16,D08,1,1,1
998,-0.18,1645192831.875,P16,D08,1,1,1
999,-0.28,1645192831.890625,P16,D08,1,1,1
1000,-0.23,1645192831.90625,P16,D08,1,1,1
1001,-0.11,1645192831.921875,P16,D08,1,1,1
1002,-0.0,1645192831.9375,P16,D08,1,1,1
1003,0.03,1645192831.953125,P16,D08,1,1,1
1004,-0.01,1645192831.96875,P16,D08,1,1,1
1005,-0.1,1645192831.984375,P16,D08,1,1,1
1006,-0.17,1645192832.0,P16,D08,1,1,1
1007,-0.21,1645192832.015625,P16,D08,1,1,1
1008,-0.25,1645192832.03125,P16,D08,1,1,1
1009,-0.32,1645192832.046875,P16,D08,1,1,1
1010,-0.46,1645192832.0625,P16,D08,1,1,1
1011,-0.66,1645192832.078125,P16,D08,1,1,1
1012,-0.86,1645192832.09375,P16,D08,1,1,1
1013,-1.01,1645192832.109375,P16,D08,1,1,1
1014,-1.11,1645192832.125,P16,D08,1,1,1
1015,-1.17,1645192832.140625,P16,D08,1,1,1
1016,-1.21,1645192832.15625,P16,D08,1,1,1
1017,-1.26,1645192832.171875,P16,D08,1,1,1
1018,-1.33,1645192832.1875,P16,D08,1,1,1
1019,-1.4,1645192832.203125,P16,D08,1,1,1
1020,-1.43,1645192832.21875,P16,D08,1,1,1
1021,-1.38,1645192832.234375,P16,D08,1,1,1
1022,-1.22,1645192832.25,P16,D08,1,1,1
1023,-0.96,1645192832.265625,P16,D08,1,1,1
1024,-0.63,1645192832.28125,P16,D08,1,1,1
1025,-0.33,1645192832.296875,P16,D08,1,1,1
1026,-0.13,1645192832.3125,P16,D08,1,1,1
1027,-0.1,1645192832.328125,P16,D08,1,1,1
1028,-0.21,1645192832.34375,P16,D08,1,1,1
1029,-0.43,1645192832.359375,P16,D08,1,1,1
1030,-0.65,1645192832.375,P16,D08,1,1,1
1031,-0.8,1645192832.390625,P16,D08,1,1,1
1032,-0.85,1645192832.40625,P16,D08,1,1,1
1033,-0.8,1645192832.421875,P16,D08,1,1,1
1034,-0.68,1645192832.4375,P16,D08,1,1,1
1035,-0.55,1645192832.453125,P16,D08,1,1,1
1036,-0.43,1645192832.46875,P16,D08,1,1,1
1037,-0.35,1645192832.484375,P16,D08,1,1,1
1038,-0.27,1645192832.5,P16,D08,1,1,1
1039,-0.15,1645192832.515625,P16,D08,1,1,1
1040,0.06,1645192832.53125,P16,D08,1,1,1
1041,0.37,1645192832.546875,P16,D08,1,1,1
1042,0.7,1645192832.5625,P16,D08,1,1,1
1043,0.94,1645192832.578125,P16,D08,1,1,1
1044,0.99,1645192832.59375,P16,D08,1,1,1
1045,0.86,1645192832.609375,P16,D08,1,1,1
1046,0.61,1645192832.625,P16,D08,1,1,1
1047,0.38,1645192832.640625,P16,D08,1,1,1
1048,0.22,1645192832.65625,P16,D08,1,1,1
1049,0.13,1645192832.671875,P16,D08,1,1,1
1050,0.03,1645192832.6875,P16,D08,1,1,1
1051,-0.17,1645192832.703125,P16,D08,1,1,1
1052,-0.45,1645192832.71875,P16,D08,1,1,1
1053,-0.74,1645192832.734375,P16,D08,1,1,1
1054,-0.94,1645192832.75,P16,D08,1,1,1
1055,-0.96,1645192832.765625,P16,D08,1,1,1
1056,-0.79,1645192832.78125,P16,D08,1,1,1
1057,-0.48,1645192832.796875,P16,D08,1,1,1
1058,-0.14,1645192832.8125,P16,D08,1,1,1
1059,0.18,1645192832.828125,P16,D08,1,1,1
1060,0.41,1645192832.84375,P16,D08,1,1,1
1061,0.55,1645192832.859375,P16,D08,1,1,1
1062,0.6,1645192832.875,P16,D08,1,1,1
1063,0.58,1645192832.890625,P16,D08,1,1,1
1064,0.57,1645192832.90625,P16,D08,1,1,1
1065,0.58,1645192832.921875,P16,D08,1,1,1
1066,0.63,1645192832.9375,P16,D08,1,1,1
1067,0.67,1645192832.953125,P16,D08,1,1,1
1068,0.65,1645192832.96875,P16,D08,1,1,1
1069,0.56,1645192832.984375,P16,D08,1,1,1
1070,0.45,1645192833.0,P16,D08,1,1,1
1071,0.4,1645192833.015625,P16,D08,1,1,1
1072,0.49,1645192833.03125,P16,D08,1,1,1
1073,0.74,1645192833.046875,P16,D08,1,1,1
1074,1.09,1645192833.0625,P16,D08,1,1,1
1075,1.41,1645192833.078125,P16,D08,1,1,1
1076,1.59,1645192833.09375,P16,D08,1,1,1
1077,1.6,1645192833.109375,P16,D08,1,1,1
1078,1.47,1645192833.125,P16,D08,1,1,1
1079,1.29,1645192833.140625,P16,D08,1,1,1
1080,1.12,1645192833.15625,P16,D08,1,1,1
1081,0.99,1645192833.171875,P16,D08,1,1,1
1082,0.85,1645192833.1875,P16,D08,1,1,1
1083,0.66,1645192833.203125,P16,D08,1,1,1
1084,0.43,1645192833.21875,P16,D08,1,1,1
1085,0.2,1645192833.234375,P16,D08,1,1,1
1086,0.04,1645192833.25,P16,D08,1,1,1
1087,0.02,1645192833.265625,P16,D08,1,1,1
1088,0.15,1645192833.28125,P16,D08,1,1,1
1089,0.34,1645192833.296875,P16,D08,1,1,1
1090,0.43,1645192833.3125,P16,D08,1,1,1
1091,0.28,1645192833.328125,P16,D08,1,1,1
1092,-0.17,1645192833.34375,P16,D08,1,1,1
1093,-0.82,1645192833.359375,P16,D08,1,1,1
1094,-1.46,1645192833.375,P16,D08,1,1,1
1095,-1.86,1645192833.390625,P16,D08,1,1,1
1096,-1.9,1645192833.40625,P16,D08,1,1,1
1097,-1.62,1645192833.421875,P16,D08,1,1,1
1098,-1.2,1645192833.4375,P16,D08,1,1,1
1099,-0.87,1645192833.453125,P16,D08,1,1,1
1100,-0.75,1645192833.46875,P16,D08,1,1,1
1101,-0.84,1645192833.484375,P16,D08,1,1,1
1102,-1.01,1645192833.5,P16,D08,1,1,1
1103,-1.1,1645192833.515625,P16,D08,1,1,1
1104,-1.0,1645192833.53125,P16,D08,1,1,1
1105,-0.71,1645192833.546875,P16,D08,1,1,1
1106,-0.34,1645192833.5625,P16,D08,1,1,1
1107,-0.02,1645192833.578125,P16,D08,1,1,1
1108,0.12,1645192833.59375,P16,D08,1,1,1
1109,0.05,1645192833.609375,P16,D08,1,1,1
1110,-0.18,1645192833.625,P16,D08,1,1,1
1111,-0.45,1645192833.640625,P16,D08,1,1,1
1112,-0.63,1645192833.65625,P16,D08,1,1,1
1113,-0.64,1645192833.671875,P16,D08,1,1,1
1114,-0.49,1645192833.6875,P16,D08,1,1,1
1115,-0.24,1645192833.703125,P16,D08,1,1,1
1116,-0.01,1645192833.71875,P16,D08,1,1,1
1117,0.14,1645192833.734375,P16,D08,1,1,1
1118,0.18,1645192833.75,P16,D08,1,1,1
1119,0.16,1645192833.765625,P16,D08,1,1,1
1120,0.13,1645192833.78125,P16,D08,1,1,1
1121,0.12,1645192833.796875,P16,D08,1,1,1
1122,0.15,1645192833.8125,P16,D08,1,1,1
1123,0.21,1645192833.828125,P16,D08,1,1,1
1124,0.32,1645192833.84375,P16,D08,1,1,1
1125,0.46,1645192833.859375,P16,D08,1,1,1
1126,0.62,1645192833.875,P16,D08,1,1,1
1127,0.71,1645192833.890625,P16,D08,1,1,1
1128,0.64,1645192833.90625,P16,D08,1,1,1
1129,0.37,1645192833.921875,P16,D08,1,1,1
1130,-0.04,1645192833.9375,P16,D08,1,1,1
1131,-0.44,1645192833.953125,P16,D08,1,1,1
1132,-0.67,1645192833.96875,P16,D08,1,1,1
1133,-0.62,1645192833.984375,P16,D08,1,1,1
1134,-0.32,1645192834.0,P16,D08,1,1,1
1135,0.06,1645192834.015625,P16,D08,1,1,1
1136,0.34,1645192834.03125,P16,D08,1,1,1
1137,0.38,1645192834.046875,P16,D08,1,1,1
1138,0.16,1645192834.0625,P16,D08,1,1,1
1139,-0.23,1645192834.078125,P16,D08,1,1,1
1140,-0.63,1645192834.09375,P16,D08,1,1,1
1141,-0.92,1645192834.109375,P16,D08,1,1,1
1142,-1.05,1645192834.125,P16,D08,1,1,1
1143,-1.03,1645192834.140625,P16,D08,1,1,1
1144,-0.93,1645192834.15625,P16,D08,1,1,1
1145,-0.83,1645192834.171875,P16,D08,1,1,1
1146,-0.79,1645192834.1875,P16,D08,1,1,1
1147,-0.81,1645192834.203125,P16,D08,1,1,1
1148,-0.82,1645192834.21875,P16,D08,1,1,1
1149,-0.75,1645192834.234375,P16,D08,1,1,1
1150,-0.55,1645192834.25,P16,D08,1,1,1
1151,-0.21,1645192834.265625,P16,D08,1,1,1
1152,0.18,1645192834.28125,P16,D08,1,1,1
1153,0.49,1645192834.296875,P16,D08,1,1,1
1154,0.6,1645192834.3125,P16,D08,1,1,1
1155,0.49,1645192834.328125,P16,D08,1,1,1
1156,0.19,1645192834.34375,P16,D08,1,1,1
1157,-0.17,1645192834.359375,P16,D08,1,1,1
1158,-0.48,1645192834.375,P16,D08,1,1,1
1159,-0.68,1645192834.390625,P16,D08,1,1,1
1160,-0.76,1645192834.40625,P16,D08,1,1,1
1161,-0.76,1645192834.421875,P16,D08,1,1,1
1162,-0.72,1645192834.4375,P16,D08,1,1,1
1163,-0.64,1645192834.453125,P16,D08,1,1,1
1164,-0.54,1645192834.46875,P16,D08,1,1,1
1165,-0.4,1645192834.484375,P16,D08,1,1,1
1166,-0.28,1645192834.5,P16,D08,1,1,1
1167,-0.19,1645192834.515625,P16,D08,1,1,1
1168,-0.15,1645192834.53125,P16,D08,1,1,1
1169,-0.13,1645192834.546875,P16,D08,1,1,1
1170,-0.05,1645192834.5625,P16,D08,1,1,1
1171,0.14,1645192834.578125,P16,D08,1,1,1
1172,0.46,1645192834.59375,P16,D08,1,1,1
1173,0.83,1645192834.609375,P16,D08,1,1,1
1174,1.14,1645192834.625,P16,D08,1,1,1
1175,1.26,1645192834.640625,P16,D08,1,1,1
1176,1.15,1645192834.65625,P16,D08,1,1,1
1177,0.87,1645192834.671875,P16,D08,1,1,1
1178,0.54,1645192834.6875,P16,D08,1,1,1
1179,0.32,1645192834.703125,P16,D08,1,1,1
1180,0.28,1645192834.71875,P16,D08,1,1,1
1181,0.43,1645192834.734375,P16,D08,1,1,1
1182,0.65,1645192834.75,P16,D08,1,1,1
1183,0.85,1645192834.765625,P16,D08,1,1,1
1184,0.93,1645192834.78125,P16,D08,1,1,1
1185,0.86,1645192834.796875,P16,D08,1,1,1
1186,0.67,1645192834.8125,P16,D08,1,1,1
1187,0.43,1645192834.828125,P16,D08,1,1,1
1188,0.24,1645192834.84375,P16,D08,1,1,1
1189,0.15,1645192834.859375,P16,D08,1,1,1
1190,0.22,1645192834.875,P16,D08,1,1,1
1191,0.43,1645192834.890625,P16,D08,1,1,1
1192,0.74,1645192834.90625,P16,D08,1,1,1
1193,1.0,1645192834.921875,P16,D08,1,1,1
1194,1.1,1645192834.9375,P16,D08,1,1,1
1195,0.95,1645192834.953125,P16,D08,1,1,1
1196,0.55,1645192834.96875,P16,D08,1,1,1
1197,0.01,1645192834.984375,P16,D08,1,1,1
1198,-0.5,1645192835.0,P16,D08,1,1,1
1199,-0.82,1645192835.015625,P16,D08,1,1,1
1200,-0.87,1645192835.03125,P16,D08,1,1,1
1201,-0.71,1645192835.046875,P16,D08,1,1,1
1202,-0.44,1645192835.0625,P16,D08,1,1,1
1203,-0.22,1645192835.078125,P16,D08,1,1,1
1204,-0.14,1645192835.09375,P16,D08,1,1,1
1205,-0.2,1645192835.109375,P16,D08,1,1,1
1206,-0.37,1645192835.125,P16,D08,1,1,1
1207,-0.58,1645192835.140625,P16,D08,1,1,1
1208,-0.78,1645192835.15625,P16,D08,1,1,1
1209,-0.92,1645192835.171875,P16,D08,1,1,1
1210,-0.97,1645192835.1875,P16,D08,1,1,1
1211,-0.93,1645192835.203125,P16,D08,1,1,1
1212,-0.78,1645192835.21875,P16,D08,1,1,1
1213,-0.53,1645192835.234375,P16,D08,1,1,1
1214,-0.21,1645192835.25,P16,D08,1,1,1
1215,0.11,1645192835.265625,P16,D08,1,1,1
1216,0.34,1645192835.28125,P16,D08,1,1,1
1217,0.4,1645192835.296875,P16,D08,1,1,1
1218,0.26,1645192835.3125,P16,D08,1,1,1
1219,-0.05,1645192835.328125,P16,D08,1,1,1
1220,-0.45,1645192835.34375,P16,D08,1,1,1
1221,-0.81,1645192835.359375,P16,D08,1,1,1
1222,-1.06,1645192835.375,P16,D08,1,1,1
1223,-1.12,1645192835.390625,P16,D08,1,1,1
1224,-1.03,1645192835.40625,P16,D08,1,1,1
1225,-0.83,1645192835.421875,P16,D08,1,1,1
1226,-0.59,1645192835.4375,P16,D08,1,1,1
1227,-0.37,1645192835.453125,P16,D08,1,1,1
1228,-0.19,1645192835.46875,P16,D08,1,1,1
1229,-0.04,1645192835.484375,P16,D08,1,1,1
1230,0.11,1645192835.5,P16,D08,1,1,1
1231,0.29,1645192835.515625,P16,D08,1,1,1
1232,0.53,1645192835.53125,P16,D08,1,1,1
1233,0.83,1645192835.546875,P16,D08,1,1,1
1234,1.18,1645192835.5625,P16,D08,1,1,1
1235,1.53,1645192835.578125,P16,D08,1,1,1
1236,1.82,1645192835.59375,P16,D08,1,1,1
1237,1.99,1645192835.609375,P16,D08,1,1,1
1238,2.0,1645192835.625,P16,D08,1,1,1
1239,1.87,1645192835.640625,P16,D08,1,1,1
1240,1.63,1645192835.65625,P16,D08,1,1,1
1241,1.35,1645192835.671875,P16,D08,1,1,1
1242,1.09,1645192835.6875,P16,D08,1,1,1
1243,0.89,1645192835.703125,P16,D08,1,1,1
1244,0.76,1645192835.71875,P16,D08,1,1,1
1245,0.66,1645192835.734375,P16,D08,1,1,1
1246,0.53,1645192835.75,P16,D08,1,1,1
1247,0.32,1645192835.765625,P16,D08,1,1,1
1248,0.05,1645192835.78125,P16,D08,1,1,1
1249,-0.25,1645192835.796875,P16,D08,1,1,1
1250,-0.49,1645192835.8125,P16,D08,1,1,1
1251,-0.6,1645192835.828125,P16,D08,1,1,1
1252,-0.51,1645192835.84375,P16,D08,1,1,1
1253,-0.25,1645192835.859375,P16,D08,1,1,1
1254,0.08,1645192835.875,P16,D08,1,1,1
1255,0.35,1645192835.890625,P16,D08,1,1,1
1256,0.45,1645192835.90625,P16,D08,1,1,1
1257,0.3,1645192835.921875,P16,D08,1,1,1
1258,-0.05,1645192835.9375,P16,D08,1,1,1
1259,-0.54,1645192835.953125,P16,D08,1,1,1
1260,-1.05,1645192835.96875,P16,D08,1,1,1
1261,-1.48,1645192835.984375,P16,D08,1,1,1
1262,-1.73,1645192836.0,P16,D08,1,1,1
1263,-1.76,1645192836.015625,P16,D08,1,1,1
1264,-1.56,1645192836.03125,P16,D08,1,1,1
1265,-1.16,1645192836.046875,P16,D08,1,1,1
1266,-0.66,1645192836.0625,P16,D08,1,1,1
1267,-0.19,1645192836.078125,P16,D08,1,1,1
1268,0.14,1645192836.09375,P16,D08,1,1,1
1269,0.28,1645192836.109375,P16,D08,1,1,1
1270,0.25,1645192836.125,P16,D08,1,1,1
1271,0.12,1645192836.140625,P16,D08,1,1,1
1272,-0.02,1645192836.15625,P16,D08,1,1,1
1273,-0.09,1645192836.171875,P16,D08,1,1,1
1274,-0.05,1645192836.1875,P16,D08,1,1,1
1275,0.09,1645192836.203125,P16,D08,1,1,1
1276,0.28,1645192836.21875,P16,D08,1,1,1
1277,0.45,1645192836.234375,P16,D08,1,1,1
1278,0.56,1645192836.25,P16,D08,1,1,1
1279,0.59,1645192836.265625,P16,D08,1,1,1
1280,0.58,1645192836.28125,P16,D08,1,1,1
1281,0.58,1645192836.296875,P16,D08,1,1,1
1282,0.62,1645192836.3125,P16,D08,1,1,1
1283,0.67,1645192836.328125,P16,D08,1,1,1
1284,0.66,1645192836.34375,P16,D08,1,1,1
1285,0.49,1645192836.359375,P16,D08,1,1,1
1286,0.14,1645192836.375,P16,D08,1,1,1
1287,-0.3,1645192836.390625,P16,D08,1,1,1
1288,-0.71,1645192836.40625,P16,D08,1,1,1
1289,-0.94,1645192836.421875,P16,D08,1,1,1
1290,-0.98,1645192836.4375,P16,D08,1,1,1
1291,-0.9,1645192836.453125,P16,D08,1,1,1
1292,-0.79,1645192836.46875,P16,D08,1,1,1
1293,-0.75,1645192836.484375,P16,D08,1,1,1
1294,-0.74,1645192836.5,P16,D08,1,1,1
1295,-0.7,1645192836.515625,P16,D08,1,1,1
1296,-0.53,1645192836.53125,P16,D08,1,1,1
1297,-0.25,1645192836.546875,P16,D08,1,1,1
1298,0.09,1645192836.5625,P16,D08,1,1,1
1299,0.36,1645192836.578125,P16,D08,1,1,1
1300,0.52,1645192836.59375,P16,D08,1,1,1
1301,0.58,1645192836.609375,P16,D08,1,1,1
1302,0.6,1645192836.625,P16,D08,1,1,1
1303,0.64,1645192836.640625,P16,D08,1,1,1
1304,0.71,1645192836.65625,P16,D08,1,1,1
1305,0.77,1645192836.671875,P16,D08,1,1,1
1306,0.79,1645192836.6875,P16,D08,1,1,1
1307,0.74,1645192836.703125,P16,D08,1,1,1
1308,0.63,1645192836.71875,P16,D08,1,1,1
1309,0.48,1645192836.734375,P16,D08,1,1,1
1310,0.31,1645192836.75,P16,D08,1,1,1
1311,0.1,1645192836.765625,P16,D08,1,1,1
1312,-0.12,1645192836.78125,P16,D08,1,1,1
1313,-0.32,1645192836.796875,P16,D08,1,1,1
1314,-0.42,1645192836.8125,P16,D08,1,1,1
1315,-0.38,1645192836.828125,P16,D08,1,1,1
1316,-0.2,1645192836.84375,P16,D08,1,1,1
1317,0.01,1645192836.859375,P16,D08,1,1,1
1318,0.12,1645192836.875,P16,D08,1,1,1
1319,0.08,1645192836.890625,P16,D08,1,1,1
1320,-0.07,1645192836.90625,P16,D08,1,1,1
1321,-0.22,1645192836.921875,P16,D08,1,1,1
1322,-0.23,1645192836.9375,P16,D08,1,1,1
1323,-0.05,1645192836.953125,P16,D08,1,1,1
1324,0.26,1645192836.96875,P16,D08,1,1,1
1325,0.59,1645192836.984375,P16,D08,1,1,1
1326,0.82,1645192837.0,P16,D08,1,1,1
1327,0.94,1645192837.015625,P16,D08,1,1,1
1328,0.92,1645192837.03125,P16,D08,1,1,1
1329,0.82,1645192837.046875,P16,D08,1,1,1
1330,0.63,1645192837.0625,P16,D08,1,1,1
1331,0.35,1645192837.078125,P16,D08,1,1,1
1332,0.01,1645192837.09375,P16,D08,1,1,1
1333,-0.35,1645192837.109375,P16,D08,1,1,1
1334,-0.64,1645192837.125,P16,D08,1,1,1
1335,-0.76,1645192837.140625,P16,D08,1,1,1
1336,-0.68,1645192837.15625,P16,D08,1,1,1
1337,-0.42,1645192837.171875,P16,D08,1,1,1
1338,-0.09,1645192837.1875,P16,D08,1,1,1
1339,0.23,1645192837.203125,P16,D08,1,1,1
1340,0.45,1645192837.21875,P16,D08,1,1,1
1341,0.55,1645192837.234375,P16,D08,1,1,1
1342,0.52,1645192837.25,P16,D08,1,1,1
1343,0.42,1645192837.265625,P16,D08,1,1,1
1344,0.27,1645192837.28125,P16,D08,1,1,1
1345,0.13,1645192837.296875,P16,D08,1,1,1
1346,0.06,1645192837.3125,P16,D08,1,1,1
1347,0.07,1645192837.328125,P16,D08,1,1,1
1348,0.13,1645192837.34375,P16,D08,1,1,1
1349,0.17,1645192837.359375,P16,D08,1,1,1
1350,0.12,1645192837.375,P16,D08,1,1,1
1351,-0.07,1645192837.390625,P16,D08,1,1,1
1352,-0.39,1645192837.40625,P16,D08,1,1,1
1353,-0.72,1645192837.421875,P16,D08,1,1,1
1354,-0.94,1645192837.4375,P16,D08,1,1,1
1355,-1.01,1645192837.453125,P16,D08,1,1,1
1356,-0.97,1645192837.46875,P16,D08,1,1,1
1357,-0.92,1645192837.484375,P16,D08,1,1,1
1358,-0.98,1645192837.5,P16,D08,1,1,1
1359,-1.14,1645192837.515625,P16,D08,1,1,1
1360,-1.31,1645192837.53125,P16,D08,1,1,1
1361,-1.34,1645192837.546875,P16,D08,1,1,1
1362,-1.15,1645192837.5625,P16,D08,1,1,1
1363,-0.8,1645192837.578125,P16,D08,1,1,1
1364,-0.44,1645192837.59375,P16,D08,1,1,1
1365,-0.25,1645192837.609375,P16,D08,1,1,1
1366,-0.29,1645192837.625,P16,D08,1,1,1
1367,-0.48,1645192837.640625,P16,D08,1,1,1
1368,-0.68,1645192837.65625,P16,D08,1,1,1
1369,-0.75,1645192837.671875,P16,D08,1,1,1
1370,-0.66,1645192837.6875,P16,D08,1,1,1
1371,-0.45,1645192837.703125,P16,D08,1,1,1
1372,-0.21,1645192837.71875,P16,D08,1,1,1
1373,0.02,1645192837.734375,P16,D08,1,1,1
1374,0.21,1645192837.75,P16,D08,1,1,1
1375,0.4,1645192837.765625,P16,D08,1,1,1
1376,0.58,1645192837.78125,P16,D08,1,1,1
1377,0.75,1645192837.796875,P16,D08,1,1,1
1378,0.88,1645192837.8125,P16,D08,1,1,1
1379,0.95,1645192837.828125,P16,D08,1,1,1
1380,0.97,1645192837.84375,P16,D08,1,1,1
1381,0.94,1645192837.859375,P16,D08,1,1,1
1382,0.82,1645192837.875,P16,D08,1,1,1
1383,0.62,1645192837.890625,P16,D08,1,1,1
1384,0.33,1645192837.90625,P16,D08,1,1,1
1385,-0.04,1645192837.921875,P16,D08,1,1,1
1386,-0.45,1645192837.9375,P16,D08,1,1,1
1387,-0.87,1645192837.953125,P16,D08,1,1,1
1388,-1.23,1645192837.96875,P16,D08,1,1,1
1389,-1.46,1645192837.984375,P16,D08,1,1,1
1390,-1.5,1645192838.0,P16,D08,1,1,1
1391,-1.29,1645192838.015625,P16,D08,1,1,1
1392,-0.83,1645192838.03125,P16,D08,1,1,1
1393,-0.21,1645192838.046875,P16,D08,1,1,1
1394,0.42,1645192838.0625,P16,D08,1,1,1
1395,0.9,1645192838.078125,P16,D08,1,1,1
1396,1.14,1645192838.09375,P16,D08,1,1,1
1397,1.15,1645192838.109375,P16,D08,1,1,1
1398,1.0,1645192838.125,P16,D08,1,1,1
1399,0.78,1645192838.140625,P16,D08,1,1,1
1400,0.52,1645192838.15625,P16,D08,1,1,1
1401,0.23,1645192838.171875,P16,D08,1,1,1
1402,-0.05,1645192838.1875,P16,D08,1,1,1
1403,-0.27,1645192838.203125,P16,D08,1,1,1
1404,-0.33,1645192838.21875,P16,D08,1,1,1
1405,-0.18,1645192838.234375,P16,D08,1,1,1
1406,0.14,1645192838.25,P16,D08,1,1,1
1407,0.53,1645192838.265625,P16,D08,1,1,1
1408,0.83,1645192838.28125,P16,D08,1,1,1
1409,0.93,1645192838.296875,P16,D08,1,1,1
1410,0.83,1645192838.3125,P16,D08,1,1,1
1411,0.57,1645192838.328125,P16,D08,1,1,1
1412,0.27,1645192838.34375,P16,D08,1,1,1
1413,0.01,1645192838.359375,P16,D08,1,1,1
1414,-0.19,1645192838.375,P16,D08,1,1,1
1415,-0.34,1645192838.390625,P16,D08,1,1,1
1416,-0.47,1645192838.40625,P16,D08,1,1,1
1417,-0.6,1645192838.421875,P16,D08,1,1,1
1418,-0.72,1645192838.4375,P16,D08,1,1,1
1419,-0.81,1645192838.453125,P16,D08,1,1,1
1420,-0.83,1645192838.46875,P16,D08,1,1,1
1421,-0.78,1645192838.484375,P16,D08,1,1,1
1422,-0.65,1645192838.5,P16,D08,1,1,1
1423,-0.45,1645192838.515625,P16,D08,1,1,1
1424,-0.23,1645192838.53125,P16,D08,1,1,1
1425,-0.01,1645192838.546875,P16,D08,1,1,1
1426,0.2,1645192838.5625,P16,D08,1,1,1
1427,0.37,1645192838.578125,P16,D08,1,1,1
1428,0.51,1645192838.59375,P16,D08,1,1,1
1429,0.61,1645192838.609375,P16,D08,1,1,1
1430,0.64,1645192838.625,P16,D08,1,1,1
1431,0.56,1645192838.640625,P16,D08,1,1,1
1432,0.38,1645192838.65625,P16,D08,1,1,1
1433,0.18,1645192838.671875,P16,D08,1,1,1
1434,0.05,1645192838.6875,P16,D08,1,1,1
1435,0.1,1645192838.703125,P16,D08,1,1,1
1436,0.32,1645192838.71875,P16,D08,1,1,1
1437,0.61,1645192838.734375,P16,D08,1,1,1
1438,0.8,1645192838.75,P16,D08,1,1,1
1439,0.76,1645192838.765625,P16,D08,1,1,1
1440,0.45,1645192838.78125,P16,D08,1,1,1
1441,-0.01,1645192838.796875,P16,D08,1,1,1
1442,-0.46,1645192838.8125,P16,D08,1,1,1
1443,-0.74,1645192838.828125,P16,D08,1,1,1
1444,-0.76,1645192838.84375,P16,D08,1,1,1
1445,-0.57,1645192838.859375,P16,D08,1,1,1
1446,-0.28,1645192838.875,P16,D08,1,1,1
1447,-0.01,1645192838.890625,P16,D08,1,1,1
1448,0.2,1645192838.90625,P16,D08,1,1,1
1449,0.33,1645192838.921875,P16,D08,1,1,1
1450,0.37,1645192838.9375,P16,D08,1,1,1
1451,0.33,1645192838.953125,P16,D08,1,1,1
1452,0.19,1645192838.96875,P16,D08,1,1,1
1453,-0.05,1645192838.984375,P16,D08,1,1,1
1454,-0.32,1645192839.0,P16,D08,1,1,1
1455,-0.52,1645192839.015625,P16,D08,1,1,1
1456,-0.56,1645192839.03125,P16,D08,1,1,1
1457,-0.38,1645192839.046875,P16,D08,1,1,1
1458,0.01,1645192839.0625,P16,D08,1,1,1
1459,0.48,1645192839.078125,P16,D08,1,1,1
1460,0.9,1645192839.09375,P16,D08,1,1,1
1461,1.15,1645192839.109375,P16,D08,1,1,1
1462,1.16,1645192839.125,P16,D08,1,1,1
1463,0.93,1645192839.140625,P16,D08,1,1,1
1464,0.55,1645192839.15625,P16,D08,1,1,1
1465,0.13,1645192839.171875,P16,D08,1,1,1
1466,-0.24,1645192839.1875,P16,D08,1,1,1
1467,-0.48,1645192839.203125,P16,D08,1,1,1
1468,-0.55,1645192839.21875,P16,D08,1,1,1
1469,-0.47,1645192839.234375,P16,D08,1,1,1
1470,-0.29,1645192839.25,P16,D08,1,1,1
1471,-0.06,1645192839.265625,P16,D08,1,1,1
1472,0.15,1645192839.28125,P16,D08,1,1,1
1473,0.31,1645192839.296875,P16,D08,1,1,1
1474,0.39,1645192839.3125,P16,D08,1,1,1
1475,0.33,1645192839.328125,P16,D08,1,1,1
1476,0.14,1645192839.34375,P16,D08,1,1,1
1477,-0.16,1645192839.359375,P16,D08,1,1,1
1478,-0.48,1645192839.375,P16,D08,1,1,1
1479,-0.7,1645192839.390625,P16,D08,1,1,1
1480,-0.69,1645192839.40625,P16,D08,1,1,1
1481,-0.45,1645192839.421875,P16,D08,1,1,1
1482,-0.06,1645192839.4375,P16,D08,1,1,1
1483,0.33,1645192839.453125,P16,D08,1,1,1
1484,0.58,1645192839.46875,P16,D08,1,1,1
1485,0.63,1645192839.484375,P16,D08,1,1,1
1486,0.53,1645192839.5,P16,D08,1,1,1
1487,0.35,1645192839.515625,P16,D08,1,1,1
1488,0.16,1645192839.53125,P16,D08,1,1,1
1489,-0.04,1645192839.546875,P16,D08,1,1,1
1490,-0.27,1645192839.5625,P16,D08,1,1,1
1491,-0.51,1645192839.578125,P16,D08,1,1,1
1492,-0.73,1645192839.59375,P16,D08,1,1,1
1493,-0.83,1645192839.609375,P16,D08,1,1,1
1494,-0.75,1645192839.625,P16,D08,1,1,1
1495,-0.51,1645192839.640625,P16,D08,1,1,1
1496,-0.22,1645192839.65625,P16,D08,1,1,1
1497,0.02,1645192839.671875,P16,D08,1,1,1
1498,0.09,1645192839.6875,P16,D08,1,1,1
1499,0.01,1645192839.703125,P16,D08,1,1,1
1500,-0.15,1645192839.71875,P16,D08,1,1,1
1501,-0.27,1645192839.734375,P16,D08,1,1,1
1502,-0.29,1645192839.75,P16,D08,1,1,1
1503,-0.21,1645192839.765625,P16,D08,1,1,1
1504,-0.11,1645192839.78125,P16,D08,1,1,1
1505,-0.05,1645192839.796875,P16,D08,1,1,1
1506,-0.06,1645192839.8125,P16,D08,1,1,1
1507,-0.1,1645192839.828125,P16,D08,1,1,1
1508,-0.09,1645192839.84375,P16,D08,1,1,1
1509,0.02,1645192839.859375,P16,D08,1,1,1
1510,0.21,1645192839.875,P16,D08,1,1,1
1511,0.4,1645192839.890625,P16,D08,1,1,1
1512,0.49,1645192839.90625,P16,D08,1,1,1
1513,0.42,1645192839.921875,P16,D08,1,1,1
1514,0.28,1645192839.9375,P16,D08,1,1,1
1515,0.16,1645192839.953125,P16,D08,1,1,1
1516,0.18,1645192839.96875,P16,D08,1,1,1
1517,0.34,1645192839.984375,P16,D08,1,1,1
1518,0.56,1645192840.0,P16,D08,1,1,1
1519,0.72,1645192840.015625,P16,D08,1,1,1
1520,0.73,1645192840.03125,P16,D08,1,1,1
1521,0.55,1645192840.046875,P16,D08,1,1,1
1522,0.25,1645192840.0625,P16,D08,1,1,1
1523,-0.09,1645192840.078125,P16,D08,1,1,1
1524,-0.42,1645192840.09375,P16,D08,1,1,1
1525,-0.66,1645192840.109375,P16,D08,1,1,1
1526,-0.79,1645192840.125,P16,D08,1,1,1
1527,-0.76,1645192840.140625,P16,D08,1,1,1
1528,-0.5,1645192840.15625,P16,D08,1,1,1
1529,-0.02,1645192840.171875,P16,D08,1,1,1
1530,0.6,1645192840.1875,P16,D08,1,1,1
1531,1.19,1645192840.203125,P16,D08,1,1,1
1532,1.58,1645192840.21875,P16,D08,1,1,1
1533,1.65,1645192840.234375,P16,D08,1,1,1
1534,1.39,1645192840.25,P16,D08,1,1,1
1535,0.91,1645192840.265625,P16,D08,1,1,1
1536,0.39,1645192840.28125,P16,D08,1,1,1
1537,0.01,1645192840.296875,P16,D08,1,1,1
1538,-0.13,1645192840.3125,P16,D08,1,1,1
1539,-0.03,1645192840.328125,P16,D08,1,1,1
1540,0.23,1645192840.34375,P16,D08,1,1,1
1541,0.53,1645192840.359375,P16,D08,1,1,1
1542,0.75,1645192840.375,P16,D08,1,1,1
1543,0.8,1645192840.390625,P16,D08,1,1,1
1544,0.68,1645192840.40625,P16,D08,1,1,1
1545,0.42,1645192840.421875,P16,D08,1,1,1
1546,0.16,1645192840.4375,P16,D08,1,1,1
1547,0.0,1645192840.453125,P16,D08,1,1,1
1548,0.02,1645192840.46875,P16,D08,1,1,1
1549,0.22,1645192840.484375,P16,D08,1,1,1
1550,0.5,1645192840.5,P16,D08,1,1,1
1551,0.69,1645192840.515625,P16,D08,1,1,1
1552,0.66,1645192840.53125,P16,D08,1,1,1
1553,0.37,1645192840.546875,P16,D08,1,1,1
1554,-0.13,1645192840.5625,P16,D08,1,1,1
1555,-0.67,1645192840.578125,P16,D08,1,1,1
1556,-1.1,1645192840.59375,P16,D08,1,1,1
1557,-1.32,1645192840.609375,P16,D08,1,1,1
1558,-1.33,1645192840.625,P16,D08,1,1,1
1559,-1.22,1645192840.640625,P16,D08,1,1,1
1560,-1.1,1645192840.65625,P16,D08,1,1,1
1561,-1.04,1645192840.671875,P16,D08,1,1,1
1562,-1.05,1645192840.6875,P16,D08,1,1,1
1563,-1.08,1645192840.703125,P16,D08,1,1,1
1564,-1.1,1645192840.71875,P16,D08,1,1,1
1565,-1.07,1645192840.734375,P16,D08,1,1,1
1566,-0.98,1645192840.75,P16,D08,1,1,1
1567,-0.86,1645192840.765625,P16,D08,1,1,1
1568,-0.72,1645192840.78125,P16,D08,1,1,1
1569,-0.54,1645192840.796875,P16,D08,1,1,1
1570,-0.35,1645192840.8125,P16,D08,1,1,1
1571,-0.17,1645192840.828125,P16,D08,1,1,1
1572,-0.03,1645192840.84375,P16,D08,1,1,1
1573,0.02,1645192840.859375,P16,D08,1,1,1
1574,-0.03,1645192840.875,P16,D08,1,1,1
1575,-0.17,1645192840.890625,P16,D08,1,1,1
1576,-0.35,1645192840.90625,P16,D08,1,1,1
1577,-0.51,1645192840.921875,P16,D08,1,1,1
1578,-0.61,1645192840.9375,P16,D08,1,1,1
1579,-0.62,1645192840.953125,P16,D08,1,1,1
1580,-0.5,1645192840.96875,P16,D08,1,1,1
1581,-0.26,1645192840.984375,P16,D08,1,1,1
1582,0.08,1645192841.0,P16,D08,1,1,1
1583,0.44,1645192841.015625,P16,D08,1,1,1
1584,0.73,1645192841.03125,P16,D08,1,1,1
1585,0.85,1645192841.046875,P16,D08,1,1,1
1586,0.76,1645192841.0625,P16,D08,1,1,1
1587,0.46,1645192841.078125,P16,D08,1,1,1
1588,0.04,1645192841.09375,P16,D08,1,1,1
1589,-0.4,1645192841.109375,P16,D08,1,1,1
1590,-0.76,1645192841.125,P16,D08,1,1,1
1591,-0.99,1645192841.140625,P16,D08,1,1,1
1592,-1.07,1645192841.15625,P16,D08,1,1,1
1593,-1.03,1645192841.171875,P16,D08,1,1,1
1594,-0.85,1645192841.1875,P16,D08,1,1,1
1595,-0.54,1645192841.203125,P16,D08,1,1,1
1596,-0.11,1645192841.21875,P16,D08,1,1,1
1597,0.41,1645192841.234375,P16,D08,1,1,1
1598,0.91,1645192841.25,P16,D08,1,1,1
1599,1.27,1645192841.265625,P16,D08,1,1,1
1600,1.39,1645192841.28125,P16,D08,1,1,1
1601,1.25,1645192841.296875,P16,D08,1,1,1
1602,0.9,1645192841.3125,P16,D08,1,1,1
1603,0.48,1645192841.328125,P16,D08,1,1,1
1604,0.14,1645192841.34375,P16,D08,1,1,1
1605,-0.04,1645192841.359375,P16,D08,1,1,1
1606,-0.05,1645192841.375,P16,D08,1,1,1
1607,0.04,1645192841.390625,P16,D08,1,1,1
1608,0.16,1645192841.40625,P16,D08,1,1,1
1609,0.24,1645192841.421875,P16,D08,1,1,1
1610,0.29,1645192841.4375,P16,D08,1,1,1
1611,0.34,1645192841.453125,P16,D08,1,1,1
1612,0.42,1645192841.46875,P16,D08,1,1,1
1613,0.53,1645192841.484375,P16,D08,1,1,1
1614,0.64,1645192841.5,P16,D08,1,1,1
1615,0.7,1645192841.515625,P16,D08,1,1,1
1616,0.68,1645192841.53125,P16,D08,1,1,1
1617,0.62,1645192841.546875,P16,D08,1,1,1
1618,0.63,1645192841.5625,P16,D08,1,1,1
1619,0.76,1645192841.578125,P16,D08,1,1,1
1620,1.03,1645192841.59375,P16,D08,1,1,1
1621,1.34,1645192841.609375,P16,D08,1,1,1
1622,1.52,1645192841.625,P16,D08,1,1,1
1623,1.38,1645192841.640625,P16,D08,1,1,1
1624,0.87,1645192841.65625,P16,D08,1,1,1
1625,0.07,1645192841.671875,P16,D08,1,1,1
1626,-0.81,1645192841.6875,P16,D08,1,1,1
1627,-1.52,1645192841.703125,P16,D08,1,1,1
1628,-1.91,1645192841.71875,P16,D08,1,1,1
1629,-1.94,1645192841.734375,P16,D08,1,1,1
1630,-1.69,1645192841.75,P16,D08,1,1,1
1631,-1.34,1645192841.765625,P16,D08,1,1,1
1632,-0.99,1645192841.78125,P16,D08,1,1,1
1633,-0.74,1645192841.796875,P16,D08,1,1,1
1634,-0.59,1645192841.8125,P16,D08,1,1,1
1635,-0.51,1645192841.828125,P16,D08,1,1,1
1636,-0.49,1645192841.84375,P16,D08,1,1,1
1637,-0.48,1645192841.859375,P16,D08,1,1,1
1638,-0.45,1645192841.875,P16,D08,1,1,1
1639,-0.37,1645192841.890625,P16,D08,1,1,1
1640,-0.22,1645192841.90625,P16,D08,1,1,1
1641,0.01,1645192841.921875,P16,D08,1,1,1
1642,0.3,1645192841.9375,P16,D08,1,1,1
1643,0.62,1645192841.953125,P16,D08,1,1,1
1644,0.9,1645192841.96875,P16,D08,1,1,1
1645,1.1,1645192841.984375,P16,D08,1,1,1
1646,1.19,1645192842.0,P16,D08,1,1,1
1647,1.15,1645192842.015625,P16,D08,1,1,1
1648,0.97,1645192842.03125,P16,D08,1,1,1
1649,0.68,1645192842.046875,P16,D08,1,1,1
1650,0.29,1645192842.0625,P16,D08,1,1,1
1651,-0.17,1645192842.078125,P16,D08,1,1,1
1652,-0.6,1645192842.09375,P16,D08,1,1,1
1653,-0.9,1645192842.109375,P16,D08,1,1,1
1654,-0.95,1645192842.125,P16,D08,1,1,1
1655,-0.71,1645192842.140625,P16,D08,1,1,1
1656,-0.24,1645192842.15625,P16,D08,1,1,1
1657,0.29,1645192842.171875,P16,D08,1,1,1
1658,0.67,1645192842.1875,P16,D08,1,1,1
1659,0.77,1645192842.203125,P16,D08,1,1,1
1660,0.58,1645192842.21875,P16,D08,1,1,1
1661,0.24,1645192842.234375,P16,D08,1,1,1
1662,-0.06,1645192842.25,P16,D08,1,1,1
1663,-0.18,1645192842.265625,P16,D08,1,1,1
1664,-0.05,1645192842.28125,P16,D08,1,1,1
1665,0.26,1645192842.296875,P16,D08,1,1,1
1666,0.63,1645192842.3125,P16,D08,1,1,1
1667,0.95,1645192842.328125,P16,D08,1,1,1
1668,1.14,1645192842.34375,P16,D08,1,1,1
1669,1.17,1645192842.359375,P16,D08,1,1,1
1670,1.03,1645192842.375,P16,D08,1,1,1
1671,0.74,1645192842.390625,P16,D08,1,1,1
1672,0.35,1645192842.40625,P16,D08,1,1,1
1673,-0.08,1645192842.421875,P16,D08,1,1,1
1674,-0.51,1645192842.4375,P16,D08,1,1,1
1675,-0.87,1645192842.453125,P16,D08,1,1,1
1676,-1.12,1645192842.46875,P16,D08,1,1,1
1677,-1.23,1645192842.484375,P16,D08,1,1,1
1678,-1.2,1645192842.5,P16,D08,1,1,1
1679,-1.08,1645192842.515625,P16,D08,1,1,1
1680,-0.92,1645192842.53125,P16,D08,1,1,1
1681,-0.79,1645192842.546875,P16,D08,1,1,1
1682,-0.74,1645192842.5625,P16,D08,1,1,1
1683,-0.72,1645192842.578125,P16,D08,1,1,1
1684,-0.63,1645192842.59375,P16,D08,1,1,1
1685,-0.38,1645192842.609375,P16,D08,1,1,1
1686,0.07,1645192842.625,P16,D08,1,1,1
1687,0.63,1645192842.640625,P16,D08,1,1,1
1688,1.14,1645192842.65625,P16,D08,1,1,1
1689,1.43,1645192842.671875,P16,D08,1,1,1
1690,1.46,1645192842.6875,P16,D08,1,1,1
1691,1.28,1645192842.703125,P16,D08,1,1,1
1692,1.03,1645192842.71875,P16,D08,1,1,1
1693,0.83,1645192842.734375,P16,D08,1,1,1
1694,0.75,1645192842.75,P16,D08,1,1,1
1695,0.73,1645192842.765625,P16,D08,1,1,1
1696,0.72,1645192842.78125,P16,D08,1,1,1
1697,0.66,1645192842.796875,P16,D08,1,1,1
1698,0.53,1645192842.8125,P16,D08,1,1,1
1699,0.39,1645192842.828125,P16,D08,1,1,1
1700,0.24,1645192842.84375,P16,D08,1,1,1
1701,0.11,1645192842.859375,P16,D08,1,1,1
1702,-0.01,1645192842.875,P16,D08,1,1,1
1703,-0.12,1645192842.890625,P16,D08,1,1,1
1704,-0.23,1645192842.90625,P16,D08,1,1,1
1705,-0.3,1645192842.921875,P16,D08,1,1,1
1706,-0.31,1645192842.9375,P16,D08,1,1,1
1707,-0.24,1645192842.953125,P16,D08,1,1,1
1708,-0.12,1645192842.96875,P16,D08,1,1,1
1709,0.02,1645192842.984375,P16,D08,1,1,1
1710,0.16,1645192843.0,P16,D08,1,1,1
1711,0.31,1645192843.015625,P16,D08,1,1,1
1712,0.5,1645192843.03125,P16,D08,1,1,1
1713,0.71,1645192843.046875,P16,D08,1,1,1
1714,0.93,1645192843.0625,P16,D08,1,1,1
1715,1.1,1645192843.078125,P16,D08,1,1,1
1716,1.17,1645192843.09375,P16,D08,1,1,1
1717,1.11,1645192843.109375,P16,D08,1,1,1
1718,0.95,1645192843.125,P16,D08,1,1,1
1719,0.74,1645192843.140625,P16,D08,1,1,1
1720,0.52,1645192843.15625,P16,D08,1,1,1
1721,0.32,1645192843.171875,P16,D08,1,1,1
1722,0.11,1645192843.1875,P16,D08,1,1,1
1723,-0.13,1645192843.203125,P16,D08,1,1,1
1724,-0.43,1645192843.21875,P16,D08,1,1,1
1725,-0.74,1645192843.234375,P16,D08,1,1,1
1726,-0.98,1645192843.25,P16,D08,1,1,1
1727,-1.1,1645192843.265625,P16,D08,1,1,1
1728,-1.07,1645192843.28125,P16,D08,1,1,1
1729,-0.92,1645192843.296875,P16,D08,1,1,1
1730,-0.73,1645192843.3125,P16,D08,1,1,1
1731,-0.61,1645192843.328125,P16,D08,1,1,1
1732,-0.62,1645192843.34375,P16,D08,1,1,1
1733,-0.77,1645192843.359375,P16,D08,1,1,1
1734,-1.0,1645192843.375,P16,D08,1,1,1
1735,-1.24,1645192843.390625,P16,D08,1,1,1
1736,-1.41,1645192843.40625,P16,D08,1,1,1
1737,-1.46,1645192843.421875,P16,D08,1,1,1
1738,-1.42,1645192843.4375,P16,D08,1,1,1
1739,-1.31,1645192843.453125,P16,D08,1,1,1
1740,-1.17,1645192843.46875,P16,D08,1,1,1
1741,-1.02,1645192843.484375,P16,D08,1,1,1
1742,-0.8,1645192843.5,P16,D08,1,1,1
1743,-0.5,1645192843.515625,P16,D08,1,1,1
1744,-0.11,1645192843.53125,P16,D08,1,1,1
1745,0.3,1645192843.546875,P16,D08,1,1,1
1746,0.58,1645192843.5625,P16,D08,1,1,1
1747,0.6,1645192843.578125,P16,D08,1,1,1
1748,0.32,1645192843.59375,P16,D08,1,1,1
1749,-0.18,1645192843.609375,P16,D08,1,1,1
1750,-0.7,1645192843.625,P16,D08,1,1,1
1751,-1.02,1645192843.640625,P16,D08,1,1,1
1752,-1.01,1645192843.65625,P16,D08,1,1,1
1753,-0.69,1645192843.671875,P16,D08,1,1,1
1754,-0.24,1645192843.6875,P16,D08,1,1,1
1755,0.11,1645192843.703125,P16,D08,1,1,1
1756,0.23,1645192843.71875,P16,D08,1,1,1
1757,0.13,1645192843.734375,P16,D08,1,1,1
1758,-0.05,1645192843.75,P16,D08,1,1,1
1759,-0.12,1645192843.765625,P16,D08,1,1,1
1760,-0.01,1645192843.78125,P16,D08,1,1,1
1761,0.25,1645192843.796875,P16,D08,1,1,1
1762,0.5,1645192843.8125,P16,D08,1,1,1
1763,0.62,1645192843.828125,P16,D08,1,1,1
1764,0.56,1645192843.84375,P16,D08,1,1,1
1765,0.39,1645192843.859375,P16,D08,1,1,1
1766,0.23,1645192843.875,P16,D08,1,1,1
1767,0.18,1645192843.890625,P16,D08,1,1,1
1768,0.27,1645192843.90625,P16,D08,1,1,1
1769,0.42,1645192843.921875,P16,D08,1,1,1
1770,0.52,1645192843.9375,P16,D08,1,1,1
1771,0.53,1645192843.953125,P16,D08,1,1,1
1772,0.46,1645192843.96875,P16,D08,1,1,1
1773,0.42,1645192843.984375,P16,D08,1,1,1
1774,0.48,1645192844.0,P16,D08,1,1,1
1775,0.67,1645192844.015625,P16,D08,1,1,1
1776,0.92,1645192844.03125,P16,D08,1,1,1
1777,1.1,1645192844.046875,P16,D08,1,1,1
1778,1.1,1645192844.0625,P16,D08,1,1,1
1779,0.84,1645192844.078125,P16,D08,1,1,1
1780,0.36,1645192844.09375,P16,D08,1,1,1
1781,-0.23,1645192844.109375,P16,D08,1,1,1
1782,-0.8,1645192844.125,P16,D08,1,1,1
1783,-1.22,1645192844.140625,P16,D08,1,1,1
1784,-1.44,1645192844.15625,P16,D08,1,1,1
1785,-1.46,1645192844.171875,P16,D08,1,1,1
1786,-1.32,1645192844.1875,P16,D08,1,1,1
1787,-1.09,1645192844.203125,P16,D08,1,1,1
1788,-0.85,1645192844.21875,P16,D08,1,1,1
1789,-0.67,1645192844.234375,P16,D08,1,1,1
1790,-0.6,1645192844.25,P16,D08,1,1,1
1791,-0.64,1645192844.265625,P16,D08,1,1,1
1792,-0.75,1645192844.28125,P16,D08,1,1,1
1793,-0.88,1645192844.296875,P16,D08,1,1,1
1794,-0.94,1645192844.3125,P16,D08,1,1,1
1795,-0.92,1645192844.328125,P16,D08,1,1,1
1796,-0.8,1645192844.34375,P16,D08,1,1,1
1797,-0.64,1645192844.359375,P16,D08,1,1,1
1798,-0.46,1645192844.375,P16,D08,1,1,1
1799,-0.29,1645192844.390625,P16,D08,1,1,1
1800,-0.14,1645192844.40625,P16,D08,1,1,1
1801,0.02,1645192844.421875,P16,D08,1,1,1
1802,0.17,1645192844.4375,P16,D08,1,1,1
1803,0.3,1645192844.453125,P16,D08,1,1,1
1804,0.37,1645192844.46875,P16,D08,1,1,1
1805,0.34,1645192844.484375,P16,D08,1,1,1
1806,0.24,1645192844.5,P16,D08,1,1,1
1807,0.14,1645192844.515625,P16,D08,1,1,1
1808,0.16,1645192844.53125,P16,D08,1,1,1
1809,0.33,1645192844.546875,P16,D08,1,1,1
1810,0.64,1645192844.5625,P16,D08,1,1,1
1811,0.94,1645192844.578125,P16,D08,1,1,1
1812,1.09,1645192844.59375,P16,D08,1,1,1
1813,1.04,1645192844.609375,P16,D08,1,1,1
1814,0.79,1645192844.625,P16,D08,1,1,1
1815,0.47,1645192844.640625,P16,D08,1,1,1
1816,0.23,1645192844.65625,P16,D08,1,1,1
1817,0.1,1645192844.671875,P16,D08,1,1,1
1818,0.06,1645192844.6875,P16,D08,1,1,1
1819,0.04,1645192844.703125,P16,D08,1,1,1
1820,-0.04,1645192844.71875,P16,D08,1,1,1
1821,-0.18,1645192844.734375,P16,D08,1,1,1
1822,-0.37,1645192844.75,P16,D08,1,1,1
1823,-0.55,1645192844.765625,P16,D08,1,1,1
1824,-0.69,1645192844.78125,P16,D08,1,1,1
1825,-0.79,1645192844.796875,P16,D08,1,1,1
1826,-0.84,1645192844.8125,P16,D08,1,1,1
1827,-0.83,1645192844.828125,P16,D08,1,1,1
1828,-0.75,1645192844.84375,P16,D08,1,1,1
1829,-0.6,1645192844.859375,P16,D08,1,1,1
1830,-0.39,1645192844.875,P16,D08,1,1,1
1831,-0.13,1645192844.890625,P16,D08,1,1,1
1832,0.16,1645192844.90625,P16,D08,1,1,1
1833,0.44,1645192844.921875,P16,D08,1,1,1
1834,0.68,1645192844.9375,P16,D08,1,1,1
1835,0.82,1645192844.953125,P16,D08,1,1,1
1836,0.82,1645192844.96875,P16,D08,1,1,1
1837,0.66,1645192844.984375,P16,D08,1,1,1
1838,0.38,1645192845.0,P16,D08,1,1,1
1839,0.07,1645192845.015625,P16,D08,1,1,1
1840,-0.17,1645192845.03125,P16,D08,1,1,1
1841,-0.29,1645192845.046875,P16,D08,1,1,1
1842,-0.3,1645192845.0625,P16,D08,1,1,1
1843,-0.24,1645192845.078125,P16,D08,1,1,1
1844,-0.17,1645192845.09375,P16,D08,1,1,1
1845,-0.12,1645192845.109375,P16,D08,1,1,1
1846,-0.1,1645192845.125,P16,D08,1,1,1
1847,-0.08,1645192845.140625,P16,D08,1,1,1
1848,-0.05,1645192845.15625,P16,D08,1,1,1
1849,-0.01,1645192845.171875,P16,D08,1,1,1
1850,0.02,1645192845.1875,P16,D08,1,1,1
1851,0.02,1645192845.203125,P16,D08,1,1,1
1852,-0.04,1645192845.21875,P16,D08,1,1,1
1853,-0.12,1645192845.234375,P16,D08,1,1,1
1854,-0.18,1645192845.25,P16,D08,1,1,1
1855,-0.15,1645192845.265625,P16,D08,1,1,1
1856,-0.0,1645192845.28125,P16,D08,1,1,1
1857,0.24,1645192845.296875,P16,D08,1,1,1
1858,0.5,1645192845.3125,P16,D08,1,1,1
1859,0.68,1645192845.328125,P16,D08,1,1,1
1860,0.69,1645192845.34375,P16,D08,1,1,1
1861,0.53,1645192845.359375,P16,D08,1,1,1
1862,0.26,1645192845.375,P16,D08,1,1,1
1863,-0.01,1645192845.390625,P16,D08,1,1,1
1864,-0.16,1645192845.40625,P16,D08,1,1,1
1865,-0.16,1645192845.421875,P16,D08,1,1,1
1866,-0.03,1645192845.4375,P16,D08,1,1,1
1867,0.16,1645192845.453125,P16,D08,1,1,1
1868,0.35,1645192845.46875,P16,D08,1,1,1
1869,0.49,1645192845.484375,P16,D08,1,1,1
1870,0.63,1645192845.5,P16,D08,1,1,1
1871,0.78,1645192845.515625,P16,D08,1,1,1
1872,0.97,1645192845.53125,P16,D08,1,1,1
1873,1.17,1645192845.546875,P16,D08,1,1,1
1874,1.29,1645192845.5625,P16,D08,1,1,1
1875,1.26,1645192845.578125,P16,D08,1,1,1
1876,1.04,1645192845.59375,P16,D08,1,1,1
1877,0.69,1645192845.609375,P16,D08,1,1,1
1878,0.33,1645192845.625,P16,D08,1,1,1
1879,0.06,1645192845.640625,P16,D08,1,1,1
1880,-0.07,1645192845.65625,P16,D08,1,1,1
1881,-0.09,1645192845.671875,P16,D08,1,1,1
1882,-0.09,1645192845.6875,P16,D08,1,1,1
1883,-0.19,1645192845.703125,P16,D08,1,1,1
1884,-0.4,1645192845.71875,P16,D08,1,1,1
1885,-0.69,1645192845.734375,P16,D08,1,1,1
1886,-1.0,1645192845.75,P16,D08,1,1,1
1887,-1.26,1645192845.765625,P16,D08,1,1,1
1888,-1.47,1645192845.78125,P16,D08,1,1,1
1889,-1.63,1645192845.796875,P16,D08,1,1,1
1890,-1.72,1645192845.8125,P16,D08,1,1,1
1891,-1.72,1645192845.828125,P16,D08,1,1,1
1892,-1.59,1645192845.84375,P16,D08,1,1,1
1893,-1.31,1645192845.859375,P16,D08,1,1,1
1894,-0.93,1645192845.875,P16,D08,1,1,1
1895,-0.55,1645192845.890625,P16,D08,1,1,1
1896,-0.29,1645192845.90625,P16,D08,1,1,1
1897,-0.2,1645192845.921875,P16,D08,1,1,1
1898,-0.29,1645192845.9375,P16,D08,1,1,1
1899,-0.46,1645192845.953125,P16,D08,1,1,1
1900,-0.62,1645192845.96875,P16,D08,1,1,1
1901,-0.69,1645192845.984375,P16,D08,1,1,1
1902,-0.63,1645192846.0,P16,D08,1,1,1
1903,-0.42,1645192846.015625,P16,D08,1,1,1
1904,-0.09,1645192846.03125,P16,D08,1,1,1
1905,0.32,1645192846.046875,P16,D08,1,1,1
1906,0.77,1645192846.0625,P16,D08,1,1,1
1907,1.15,1645192846.078125,P16,D08,1,1,1
1908,1.38,1645192846.09375,P16,D08,1,1,1
1909,1.35,1645192846.109375,P16,D08,1,1,1
1910,1.09,1645192846.125,P16,D08,1,1,1
1911,0.67,1645192846.140625,P16,D08,1,1,1
1912,0.24,1645192846.15625,P16,D08,1,1,1
1913,-0.05,1645192846.171875,P16,D08,1,1,1
1914,-0.15,1645192846.1875,P16,D08,1,1,1
1915,-0.09,1645192846.203125,P16,D08,1,1,1
1916,0.03,1645192846.21875,P16,D08,1,1,1
1917,0.1,1645192846.234375,P16,D08,1,1,1
1918,0.08,1645192846.25,P16,D08,1,1,1
1919,0.04,1645192846.265625,P16,D08,1,1,1
1920,0.03,1645192846.28125,P16,D08,1,1,1
1921,0.12,1645192846.296875,P16,D08,1,1,1
1922,0.27,1645192846.3125,P16,D08,1,1,1
1923,0.4,1645192846.328125,P16,D08,1,1,1
1924,0.45,1645192846.34375,P16,D08,1,1,1
1925,0.37,1645192846.359375,P16,D08,1,1,1
1926,0.22,1645192846.375,P16,D08,1,1,1
1927,0.11,1645192846.390625,P16,D08,1,1,1
1928,0.13,1645192846.40625,P16,D08,1,1,1
1929,0.31,1645192846.421875,P16,D08,1,1,1
1930,0.61,1645192846.4375,P16,D08,1,1,1
1931,0.93,1645192846.453125,P16,D08,1,1,1
1932,1.15,1645192846.46875,P16,D08,1,1,1
1933,1.19,1645192846.484375,P16,D08,1,1,1
1934,1.03,1645192846.5,P16,D08,1,1,1
1935,0.72,1645192846.515625,P16,D08,1,1,1
1936,0.34,1645192846.53125,P16,D08,1,1,1
1937,-0.03,1645192846.546875,P16,D08,1,1,1
1938,-0.33,1645192846.5625,P16,D08,1,1,1
1939,-0.52,1645192846.578125,P16,D08,1,1,1
1940,-0.61,1645192846.59375,P16,D08,1,1,1
1941,-0.61,1645192846.609375,P16,D08,1,1,1
1942,-0.54,1645192846.625,P16,D08,1,1,1
1943,-0.43,1645192846.640625,P16,D08,1,1,1
1944,-0.33,1645192846.65625,P16,D08,1,1,1
1945,-0.29,1645192846.671875,P16,D08,1,1,1
1946,-0.32,1645192846.6875,P16,D08,1,1,1
1947,-0.38,1645192846.703125,P16,D08,1,1,1
1948,-0.4,1645192846.71875,P16,D08,1,1,1
1949,-0.32,1645192846.734375,P16,D08,1,1,1
1950,-0.15,1645192846.75,P16,D08,1,1,1
1951,0.07,1645192846.765625,P16,D08,1,1,1
1952,0.23,1645192846.78125,P16,D08,1,1,1
1953,0.24,1645192846.796875,P16,D08,1,1,1
1954,0.1,1645192846.8125,P16,D08,1,1,1
1955,-0.09,1645192846.828125,P16,D08,1,1,1
1956,-0.19,1645192846.84375,P16,D08,1,1,1
1957,-0.1,1645192846.859375,P16,D08,1,1,1
1958,0.16,1645192846.875,P16,D08,1,1,1
1959,0.48,1645192846.890625,P16,D08,1,1,1
1960,0.73,1645192846.90625,P16,D08,1,1,1
1961,0.77,1645192846.921875,P16,D08,1,1,1
1962,0.59,1645192846.9375,P16,D08,1,1,1
1963,0.27,1645192846.953125,P16,D08,1,1,1
1964,-0.06,1645192846.96875,P16,D08,1,1,1
1965,-0.26,1645192846.984375,P16,D08,1,1,1
1966,-0.27,1645192847.0,P16,D08,1,1,1
1967,-0.12,1645192847.015625,P16,D08,1,1,1
1968,0.08,1645192847.03125,P16,D08,1,1,1
1969,0.23,1645192847.046875,P16,D08,1,1,1
1970,0.24,1645192847.0625,P16,D08,1,1,1
1971,0.14,1645192847.078125,P16,D08,1,1,1
1972,-0.01,1645192847.09375,P16,D08,1,1,1
1973,-0.11,1645192847.109375,P16,D08,1,1,1
1974,-0.09,1645192847.125,P16,D08,1,1,1
1975,0.05,1645192847.140625,P16,D08,1,1,1
1976,0.26,1645192847.15625,P16,D08,1,1,1
1977,0.45,1645192847.171875,P16,D08,1,1,1
1978,0.53,1645192847.1875,P16,D08,1,1,1
1979,0.47,1645192847.203125,P16,D08,1,1,1
1980,0.28,1645192847.21875,P16,D08,1,1,1
1981,0.05,1645192847.234375,P16,D08,1,1,1
1982,-0.15,1645192847.25,P16,D08,1,1,1
1983,-0.24,1645192847.265625,P16,D08,1,1,1
1984,-0.2,1645192847.28125,P16,D08,1,1,1
1985,-0.05,1645192847.296875,P16,D08,1,1,1
1986,0.16,1645192847.3125,P16,D08,1,1,1
1987,0.34,1645192847.328125,P16,D08,1,1,1
1988,0.48,1645192847.34375,P16,D08,1,1,1
1989,0.56,1645192847.359375,P16,D08,1,1,1
1990,0.6,1645192847.375,P16,D08,1,1,1
1991,0.61,1645192847.390625,P16,D08,1,1,1
1992,0.55,1645192847.40625,P16,D08,1,1,1
1993,0.4,1645192847.421875,P16,D08,1,1,1
1994,0.12,1645192847.4375,P16,D08,1,1,1
1995,-0.22,1645192847.453125,P16,D08,1,1,1
1996,-0.55,1645192847.46875,P16,D08,1,1,1
1997,-0.8,1645192847.484375,P16,D08,1,1,1
1998,-0.93,1645192847.5,P16,D08,1,1,1
1999,-0.97,1645192847.515625,P16,D08,1,1,1
2000,-0.92,1645192847.53125,P16,D08,1,1,1
2001,-0.8,1645192847.546875,P16,D08,1,1,1
2002,-0.58,1645192847.5625,P16,D08,1,1,1
2003,-0.29,1645192847.578125,P16,D08,1,1,1
2004,0.02,1645192847.59375,P16,D08,1,1,1
2005,0.2,1645192847.609375,P16,D08,1,1,1
2006,0.13,1645192847.625,P16,D08,1,1,1
2007,-0.2,1645192847.640625,P16,D08,1,1,1
2008,-0.66,1645192847.65625,P16,D08,1,1,1
2009,-1.03,1645192847.671875,P16,D08,1,1,1
2010,-1.12,1645192847.6875,P16,D08,1,1,1
2011,-0.86,1645192847.703125,P16,D08,1,1,1
2012,-0.39,1645192847.71875,P16,D08,1,1,1
2013,0.07,1645192847.734375,P16,D08,1,1,1
2014,0.34,1645192847.75,P16,D08,1,1,1
2015,0.36,1645192847.765625,P16,D08,1,1,1
2016,0.27,1645192847.78125,P16,D08,1,1,1
2017,0.22,1645192847.796875,P16,D08,1,1,1
2018,0.33,1645192847.8125,P16,D08,1,1,1
2019,0.55,1645192847.828125,P16,D08,1,1,1
2020,0.72,1645192847.84375,P16,D08,1,1,1
2021,0.65,1645192847.859375,P16,D08,1,1,1
2022,0.3,1645192847.875,P16,D08,1,1,1
2023,-0.21,1645192847.890625,P16,D08,1,1,1
2024,-0.68,1645192847.90625,P16,D08,1,1,1
2025,-0.88,1645192847.921875,P16,D08,1,1,1
2026,-0.74,1645192847.9375,P16,D08,1,1,1
2027,-0.35,1645192847.953125,P16,D08,1,1,1
2028,0.12,1645192847.96875,P16,D08,1,1,1
2029,0.48,1645192847.984375,P16,D08,1,1,1
2030,0.65,1645192848.0,P16,D08,1,1,1
2031,0.69,1645192848.015625,P16,D08,1,1,1
2032,0.66,1645192848.03125,P16,D08,1,1,1
2033,0.62,1645192848.046875,P16,D08,1,1,1
2034,0.51,1645192848.0625,P16,D08,1,1,1
2035,0.24,1645192848.078125,P16,D08,1,1,1
2036,-0.24,1645192848.09375,P16,D08,1,1,1
2037,-0.84,1645192848.109375,P16,D08,1,1,1
2038,-1.37,1645192848.125,P16,D08,1,1,1
2039,-1.59,1645192848.140625,P16,D08,1,1,1
2040,-1.37,1645192848.15625,P16,D08,1,1,1
2041,-0.74,1645192848.171875,P16,D08,1,1,1
2042,0.08,1645192848.1875,P16,D08,1,1,1
2043,0.83,1645192848.203125,P16,D08,1,1,1
2044,1.26,1645192848.21875,P16,D08,1,1,1
2045,1.31,1645192848.234375,P16,D08,1,1,1
2046,1.04,1645192848.25,P16,D08,1,1,1
2047,0.61,1645192848.265625,P16,D08,1,1,1
2048,0.17,1645192848.28125,P16,D08,1,1,1
2049,-0.17,1645192848.296875,P16,D08,1,1,1
2050,-0.4,1645192848.3125,P16,D08,1,1,1
2051,-0.52,1645192848.328125,P16,D08,1,1,1
2052,-0.53,1645192848.34375,P16,D08,1,1,1
2053,-0.43,1645192848.359375,P16,D08,1,1,1
2054,-0.25,1645192848.375,P16,D08,1,1,1
2055,-0.05,1645192848.390625,P16,D08,1,1,1
2056,0.1,1645192848.40625,P16,D08,1,1,1
2057,0.11,1645192848.421875,P16,D08,1,1,1
2058,-0.02,1645192848.4375,P16,D08,1,1,1
2059,-0.27,1645192848.453125,P16,D08,1,1,1
2060,-0.55,1645192848.46875,P16,D08,1,1,1
2061,-0.76,1645192848.484375,P16,D08,1,1,1
2062,-0.86,1645192848.5,P16,D08,1,1,1
2063,-0.82,1645192848.515625,P16,D08,1,1,1
2064,-0.66,1645192848.53125,P16,D08,1,1,1
2065,-0.41,1645192848.546875,P16,D08,1,1,1
2066,-0.1,1645192848.5625,P16,D08,1,1,1
2067,0.19,1645192848.578125,P16,D08,1,1,1
2068,0.44,1645192848.59375,P16,D08,1,1,1
2069,0.59,1645192848.609375,P16,D08,1,1,1
2070,0.64,1645192848.625,P16,D08,1,1,1
2071,0.57,1645192848.640625,P16,D08,1,1,1
2072,0.39,1645192848.65625,P16,D08,1,1,1
2073,0.13,1645192848.671875,P16,D08,1,1,1
2074,-0.18,1645192848.6875,P16,D08,1,1,1
2075,-0.46,1645192848.703125,P16,D08,1,1,1
2076,-0.62,1645192848.71875,P16,D08,1,1,1
2077,-0.62,1645192848.734375,P16,D08,1,1,1
2078,-0.45,1645192848.75,P16,D08,1,1,1
2079,-0.19,1645192848.765625,P16,D08,1,1,1
2080,0.04,1645192848.78125,P16,D08,1,1,1
2081,0.16,1645192848.796875,P16,D08,1,1,1
2082,0.14,1645192848.8125,P16,D08,1,1,1
2083,0.04,1645192848.828125,P16,D08,1,1,1
2084,-0.03,1645192848.84375,P16,D08,1,1,1
2085,-0.01,1645192848.859375,P16,D08,1,1,1
2086,0.1,1645192848.875,P16,D08,1,1,1
2087,0.25,1645192848.890625,P16,D08,1,1,1
2088,0.34,1645192848.90625,P16,D08,1,1,1
2089,0.33,1645192848.921875,P16,D08,1,1,1
2090,0.23,1645192848.9375,P16,D08,1,1,1
2091,0.1,1645192848.953125,P16,D08,1,1,1
2092,0.0,1645192848.96875,P16,D08,1,1,1
2093,0.0,1645192848.984375,P16,D08,1,1,1
2094,0.11,1645192849.0,P16,D08,1,1,1
2095,0.31,1645192849.015625,P16,D08,1,1,1
2096,0.54,1645192849.03125,P16,D08,1,1,1
2097,0.76,1645192849.046875,P16,D08,1,1,1
2098,0.95,1645192849.0625,P16,D08,1,1,1
2099,1.1,1645192849.078125,P16,D08,1,1,1
2100,1.25,1645192849.09375,P16,D08,1,1,1
2101,1.42,1645192849.109375,P16,D08,1,1,1
2102,1.58,1645192849.125,P16,D08,1,1,1
2103,1.66,1645192849.140625,P16,D08,1,1,1
2104,1.58,1645192849.15625,P16,D08,1,1,1
2105,1.27,1645192849.171875,P16,D08,1,1,1
2106,0.78,1645192849.1875,P16,D08,1,1,1
2107,0.2,1645192849.203125,P16,D08,1,1,1
2108,-0.32,1645192849.21875,P16,D08,1,1,1
2109,-0.66,1645192849.234375,P16,D08,1,1,1
2110,-0.8,1645192849.25,P16,D08,1,1,1
2111,-0.78,1645192849.265625,P16,D08,1,1,1
2112,-0.67,1645192849.28125,P16,D08,1,1,1
2113,-0.52,1645192849.296875,P16,D08,1,1,1
2114,-0.38,1645192849.3125,P16,D08,1,1,1
2115,-0.26,1645192849.328125,P16,D08,1,1,1
2116,-0.19,1645192849.34375,P16,D08,1,1,1
2117,-0.19,1645192849.359375,P16,D08,1,1,1
2118,-0.31,1645192849.375,P16,D08,1,1,1
2119,-0.51,1645192849.390625,P16,D08,1,1,1
2120,-0.73,1645192849.40625,P16,D08,1,1,1
2121,-0.88,1645192849.421875,P16,D08,1,1,1
2122,-0.88,1645192849.4375,P16,D08,1,1,1
2123,-0.71,1645192849.453125,P16,D08,1,1,1
2124,-0.41,1645192849.46875,P16,D08,1,1,1
2125,-0.09,1645192849.484375,P16,D08,1,1,1
2126,0.15,1645192849.5,P16,D08,1,1,1
2127,0.23,1645192849.515625,P16,D08,1,1,1
2128,0.13,1645192849.53125,P16,D08,1,1,1
2129,-0.09,1645192849.546875,P16,D08,1,1,1
2130,-0.36,1645192849.5625,P16,D08,1,1,1
2131,-0.6,1645192849.578125,P16,D08,1,1,1
2132,-0.76,1645192849.59375,P16,D08,1,1,1
2133,-0.83,1645192849.609375,P16,D08,1,1,1
2134,-0.8,1645192849.625,P16,D08,1,1,1
2135,-0.68,1645192849.640625,P16,D08,1,1,1
2136,-0.45,1645192849.65625,P16,D08,1,1,1
2137,-0.1,1645192849.671875,P16,D08,1,1,1
2138,0.34,1645192849.6875,P16,D08,1,1,1
2139,0.78,1645192849.703125,P16,D08,1,1,1
2140,1.11,1645192849.71875,P16,D08,1,1,1
2141,1.23,1645192849.734375,P16,D08,1,1,1
2142,1.11,1645192849.75,P16,D08,1,1,1
2143,0.8,1645192849.765625,P16,D08,1,1,1
2144,0.4,1645192849.78125,P16,D08,1,1,1
2145,0.03,1645192849.796875,P16,D08,1,1,1
2146,-0.27,1645192849.8125,P16,D08,1,1,1
2147,-0.5,1645192849.828125,P16,D08,1,1,1
2148,-0.67,1645192849.84375,P16,D08,1,1,1
2149,-0.78,1645192849.859375,P16,D08,1,1,1
2150,-0.77,1645192849.875,P16,D08,1,1,1
2151,-0.6,1645192849.890625,P16,D08,1,1,1
2152,-0.29,1645192849.90625,P16,D08,1,1,1
2153,0.08,1645192849.921875,P16,D08,1,1,1
2154,0.37,1645192849.9375,P16,D08,1,1,1
2155,0.49,1645192849.953125,P16,D08,1,1,1
2156,0.44,1645192849.96875,P16,D08,1,1,1
2157,0.26,1645192849.984375,P16,D08,1,1,1
2158,0.08,1645192850.0,P16,D08,1,1,1
2159,-0.06,1645192850.015625,P16,D08,1,1,1
2160,-0.16,1645192850.03125,P16,D08,1,1,1
2161,-0.28,1645192850.046875,P16,D08,1,1,1
2162,-0.44,1645192850.0625,P16,D08,1,1,1
2163,-0.6,1645192850.078125,P16,D08,1,1,1
2164,-0.68,1645192850.09375,P16,D08,1,1,1
2165,-0.6,1645192850.109375,P16,D08,1,1,1
2166,-0.38,1645192850.125,P16,D08,1,1,1
2167,-0.08,1645192850.140625,P16,D08,1,1,1
2168,0.18,1645192850.15625,P16,D08,1,1,1
2169,0.3,1645192850.171875,P16,D08,1,1,1
2170,0.27,1645192850.1875,P16,D08,1,1,1
2171,0.12,1645192850.203125,P16,D08,1,1,1
2172,-0.06,1645192850.21875,P16,D08,1,1,1
2173,-0.22,1645192850.234375,P16,D08,1,1,1
2174,-0.33,1645192850.25,P16,D08,1,1,1
2175,-0.39,1645192850.265625,P16,D08,1,1,1
2176,-0.4,1645192850.28125,P16,D08,1,1,1
2177,-0.38,1645192850.296875,P16,D08,1,1,1
2178,-0.34,1645192850.3125,P16,D08,1,1,1
2179,-0.31,1645192850.328125,P16,D08,1,1,1
2180,-0.29,1645192850.34375,P16,D08,1,1,1
2181,-0.3,1645192850.359375,P16,D08,1,1,1
2182,-0.34,1645192850.375,P16,D08,1,1,1
2183,-0.39,1645192850.390625,P16,D08,1,1,1
2184,-0.45,1645192850.40625,P16,D08,1,1,1
2185,-0.49,1645192850.421875,P16,D08,1,1,1
2186,-0.5,1645192850.4375,P16,D08,1,1,1
2187,-0.44,1645192850.453125,P16,D08,1,1,1
2188,-0.28,1645192850.46875,P16,D08,1,1,1
2189,-0.03,1645192850.484375,P16,D08,1,1,1
2190,0.28,1645192850.5,P16,D08,1,1,1
2191,0.58,1645192850.515625,P16,D08,1,1,1
2192,0.8,1645192850.53125,P16,D08,1,1,1
2193,0.92,1645192850.546875,P16,D08,1,1,1
2194,0.94,1645192850.5625,P16,D08,1,1,1
2195,0.88,1645192850.578125,P16,D08,1,1,1
2196,0.77,1645192850.59375,P16,D08,1,1,1
2197,0.66,1645192850.609375,P16,D08,1,1,1
2198,0.56,1645192850.625,P16,D08,1,1,1
2199,0.5,1645192850.640625,P16,D08,1,1,1
2200,0.49,1645192850.65625,P16,D08,1,1,1
2201,0.52,1645192850.671875,P16,D08,1,1,1
2202,0.57,1645192850.6875,P16,D08,1,1,1
2203,0.59,1645192850.703125,P16,D08,1,1,1
2204,0.54,1645192850.71875,P16,D08,1,1,1
2205,0.42,1645192850.734375,P16,D08,1,1,1
2206,0.26,1645192850.75,P16,D08,1,1,1
2207,0.15,1645192850.765625,P16,D08,1,1,1
2208,0.13,1645192850.78125,P16,D08,1,1,1
2209,0.2,1645192850.796875,P16,D08,1,1,1
2210,0.31,1645192850.8125,P16,D08,1,1,1
2211,0.36,1645192850.828125,P16,D08,1,1,1
2212,0.26,1645192850.84375,P16,D08,1,1,1
2213,0.01,1645192850.859375,P16,D08,1,1,1
2214,-0.3,1645192850.875,P16,D08,1,1,1
2215,-0.57,1645192850.890625,P16,D08,1,1,1
2216,-0.66,1645192850.90625,P16,D08,1,1,1
2217,-0.51,1645192850.921875,P16,D08,1,1,1
2218,-0.16,1645192850.9375,P16,D08,1,1,1
2219,0.3,1645192850.953125,P16,D08,1,1,1
2220,0.72,1645192850.96875,P16,D08,1,1,1
2221,0.96,1645192850.984375,P16,D08,1,1,1
2222,0.97,1645192851.0,P16,D08,1,1,1
2223,0.79,1645192851.015625,P16,D08,1,1,1
2224,0.53,1645192851.03125,P16,D08,1,1,1
2225,0.31,1645192851.046875,P16,D08,1,1,1
2226,0.21,1645192851.0625,P16,D08,1,1,1
2227,0.19,1645192851.078125,P16,D08,1,1,1
2228,0.15,1645192851.09375,P16,D08,1,1,1
2229,-0.01,1645192851.109375,P16,D08,1,1,1
2230,-0.33,1645192851.125,P16,D08,1,1,1
2231,-0.75,1645192851.140625,P16,D08,1,1,1
2232,-1.11,1645192851.15625,P16,D08,1,1,1
2233,-1.27,1645192851.171875,P16,D08,1,1,1
2234,-1.14,1645192851.1875,P16,D08,1,1,1
2235,-0.77,1645192851.203125,P16,D08,1,1,1
2236,-0.28,1645192851.21875,P16,D08,1,1,1
2237,0.16,1645192851.234375,P16,D08,1,1,1
2238,0.42,1645192851.25,P16,D08,1,1,1
2239,0.43,1645192851.265625,P16,D08,1,1,1
2240,0.26,1645192851.28125,P16,D08,1,1,1
2241,-0.0,1645192851.296875,P16,D08,1,1,1
2242,-0.23,1645192851.3125,P16,D08,1,1,1
2243,-0.37,1645192851.328125,P16,D08,1,1,1
2244,-0.43,1645192851.34375,P16,D08,1,1,1
2245,-0.47,1645192851.359375,P16,D08,1,1,1
2246,-0.56,1645192851.375,P16,D08,1,1,1
2247,-0.69,1645192851.390625,P16,D08,1,1,1
2248,-0.82,1645192851.40625,P16,D08,1,1,1
2249,-0.85,1645192851.421875,P16,D08,1,1,1
2250,-0.73,1645192851.4375,P16,D08,1,1,1
2251,-0.47,1645192851.453125,P16,D08,1,1,1
2252,-0.13,1645192851.46875,P16,D08,1,1,1
2253,0.18,1645192851.484375,P16,D08,1,1,1
2254,0.39,1645192851.5,P16,D08,1,1,1
2255,0.49,1645192851.515625,P16,D08,1,1,1
2256,0.52,1645192851.53125,P16,D08,1,1,1
2257,0.53,1645192851.546875,P16,D08,1,1,1
2258,0.55,1645192851.5625,P16,D08,1,1,1
2259,0.53,1645192851.578125,P16,D08,1,1,1
2260,0.45,1645192851.59375,P16,D08,1,1,1
2261,0.26,1645192851.609375,P16,D08,1,1,1
2262,0.0,1645192851.625,P16,D08,1,1,1
2263,-0.25,1645192851.640625,P16,D08,1,1,1
2264,-0.38,1645192851.65625,P16,D08,1,1,1
2265,-0.29,1645192851.671875,P16,D08,1,1,1
2266,0.01,1645192851.6875,P16,D08,1,1,1
2267,0.44,1645192851.703125,P16,D08,1,1,1
2268,0.87,1645192851.71875,P16,D08,1,1,1
2269,1.13,1645192851.734375,P16,D08,1,1,1
2270,1.12,1645192851.75,P16,D08,1,1,1
2271,0.84,1645192851.765625,P16,D08,1,1,1
2272,0.42,1645192851.78125,P16,D08,1,1,1
2273,-0.01,1645192851.796875,P16,D08,1,1,1
2274,-0.32,1645192851.8125,P16,D08,1,1,1
2275,-0.45,1645192851.828125,P16,D08,1,1,1
2276,-0.44,1645192851.84375,P16,D08,1,1,1
2277,-0.38,1645192851.859375,P16,D08,1,1,1
2278,-0.35,1645192851.875,P16,D08,1,1,1
2279,-0.39,1645192851.890625,P16,D08,1,1,1
2280,-0.48,1645192851.90625,P16,D08,1,1,1
2281,-0.58,1645192851.921875,P16,D08,1,1,1
2282,-0.66,1645192851.9375,P16,D08,1,1,1
2283,-0.69,1645192851.953125,P16,D08,1,1,1
2284,-0.67,1645192851.96875,P16,D08,1,1,1
2285,-0.64,1645192851.984375,P16,D08,1,1,1
2286,-0.59,1645192852.0,P16,D08,1,1,1
2287,-0.48,1645192852.015625,P16,D08,1,1,1
2288,-0.29,1645192852.03125,P16,D08,1,1,1
2289,-0.03,1645192852.046875,P16,D08,1,1,1
2290,0.25,1645192852.0625,P16,D08,1,1,1
2291,0.48,1645192852.078125,P16,D08,1,1,1
2292,0.6,1645192852.09375,P16,D08,1,1,1
2293,0.58,1645192852.109375,P16,D08,1,1,1
2294,0.47,1645192852.125,P16,D08,1,1,1
2295,0.35,1645192852.140625,P16,D08,1,1,1
2296,0.28,1645192852.15625,P16,D08,1,1,1
2297,0.28,1645192852.171875,P16,D08,1,1,1
2298,0.36,1645192852.1875,P16,D08,1,1,1
2299,0.43,1645192852.203125,P16,D08,1,1,1
2300,0.46,1645192852.21875,P16,D08,1,1,1
2301,0.41,1645192852.234375,P16,D08,1,1,1
2302,0.28,1645192852.25,P16,D08,1,1,1
2303,0.12,1645192852.265625,P16,D08,1,1,1
2304,-0.05,1645192852.28125,P16,D08,1,1,1
2305,-0.2,1645192852.296875,P16,D08,1,1,1
2306,-0.31,1645192852.3125,P16,D08,1,1,1
2307,-0.39,1645192852.328125,P16,D08,1,1,1
2308,-0.43,1645192852.34375,P16,D08,1,1,1
2309,-0.44,1645192852.359375,P16,D08,1,1,1
2310,-0.42,1645192852.375,P16,D08,1,1,1
2311,-0.39,1645192852.390625,P16,D08,1,1,1
2312,-0.37,1645192852.40625,P16,D08,1,1,1
2313,-0.36,1645192852.421875,P16,D08,1,1,1
2314,-0.4,1645192852.4375,P16,D08,1,1,1
2315,-0.51,1645192852.453125,P16,D08,1,1,1
2316,-0.67,1645192852.46875,P16,D08,1,1,1
2317,-0.88,1645192852.484375,P16,D08,1,1,1
2318,-1.08,1645192852.5,P16,D08,1,1,1
2319,-1.22,1645192852.515625,P16,D08,1,1,1
2320,-1.25,1645192852.53125,P16,D08,1,1,1
2321,-1.16,1645192852.546875,P16,D08,1,1,1
2322,-1.01,1645192852.5625,P16,D08,1,1,1
2323,-0.9,1645192852.578125,P16,D08,1,1,1
2324,-0.92,1645192852.59375,P16,D08,1,1,1
2325,-1.12,1645192852.609375,P16,D08,1,1,1
2326,-1.48,1645192852.625,P16,D08,1,1,1
2327,-1.89,1645192852.640625,P16,D08,1,1,1
2328,-2.2,1645192852.65625,P16,D08,1,1,1
2329,-2.34,1645192852.671875,P16,D08,1,1,1
2330,-2.26,1645192852.6875,P16,D08,1,1,1
2331,-2.02,1645192852.703125,P16,D08,1,1,1
2332,-1.74,1645192852.71875,P16,D08,1,1,1
2333,-1.51,1645192852.734375,P16,D08,1,1,1
2334,-1.43,1645192852.75,P16,D08,1,1,1
2335,-1.54,1645192852.765625,P16,D08,1,1,1
2336,-1.8,1645192852.78125,P16,D08,1,1,1
2337,-2.13,1645192852.796875,P16,D08,1,1,1
2338,-2.4,1645192852.8125,P16,D08,1,1,1
2339,-2.47,1645192852.828125,P16,D08,1,1,1
2340,-2.27,1645192852.84375,P16,D08,1,1,1
2341,-1.81,1645192852.859375,P16,D08,1,1,1
2342,-1.21,1645192852.875,P16,D08,1,1,1
2343,-0.65,1645192852.890625,P16,D08,1,1,1
2344,-0.29,1645192852.90625,P16,D08,1,1,1
2345,-0.21,1645192852.921875,P16,D08,1,1,1
2346,-0.39,1645192852.9375,P16,D08,1,1,1
2347,-0.72,1645192852.953125,P16,D08,1,1,1
2348,-1.06,1645192852.96875,P16,D08,1,1,1
2349,-1.3,1645192852.984375,P16,D08,1,1,1
2350,-1.38,1645192853.0,P16,D08,1,1,1
2351,-1.28,1645192853.015625,P16,D08,1,1,1
2352,-0.98,1645192853.03125,P16,D08,1,1,1
2353,-0.51,1645192853.046875,P16,D08,1,1,1
2354,0.09,1645192853.0625,P16,D08,1,1,1
2355,0.75,1645192853.078125,P16,D08,1,1,1
2356,1.34,1645192853.09375,P16,D08,1,1,1
2357,1.76,1645192853.109375,P16,D08,1,1,1
2358,1.98,1645192853.125,P16,D08,1,1,1
2359,2.12,1645192853.140625,P16,D08,1,1,1
2360,2.4,1645192853.15625,P16,D08,1,1,1
2361,3.06,1645192853.171875,P16,D08,1,1,1
2362,4.18,1645192853.1875,P16,D08,1,1,1
2363,5.64,1645192853.203125,P16,D08,1,1,1
2364,7.14,1645192853.21875,P16,D08,1,1,1
2365,8.27,1645192853.234375,P16,D08,1,1,1
2366,8.74,1645192853.25,P16,D08,1,1,1
2367,8.43,1645192853.265625,P16,D08,1,1,1
2368,7.48,1645192853.28125,P16,D08,1,1,1
2369,6.14,1645192853.296875,P16,D08,1,1,1
2370,4.72,1645192853.3125,P16,D08,1,1,1
2371,3.43,1645192853.328125,P16,D08,1,1,1
2372,2.43,1645192853.34375,P16,D08,1,1,1
2373,1.78,1645192853.359375,P16,D08,1,1,1
2374,1.51,1645192853.375,P16,D08,1,1,1
2375,1.58,1645192853.390625,P16,D08,1,1,1
2376,1.83,1645192853.40625,P16,D08,1,1,1
2377,2.09,1645192853.421875,P16,D08,1,1,1
2378,2.13,1645192853.4375,P16,D08,1,1,1
2379,1.85,1645192853.453125,P16,D08,1,1,1
2380,1.3,1645192853.46875,P16,D08,1,1,1
2381,0.64,1645192853.484375,P16,D08,1,1,1
2382,0.12,1645192853.5,P16,D08,1,1,1
2383,-0.09,1645192853.515625,P16,D08,1,1,1
2384,0.03,1645192853.53125,P16,D08,1,1,1
2385,0.34,1645192853.546875,P16,D08,1,1,1
2386,0.59,1645192853.5625,P16,D08,1,1,1
2387,0.61,1645192853.578125,P16,D08,1,1,1
2388,0.34,1645192853.59375,P16,D08,1,1,1
2389,-0.16,1645192853.609375,P16,D08,1,1,1
2390,-0.74,1645192853.625,P16,D08,1,1,1
2391,-1.26,1645192853.640625,P16,D08,1,1,1
2392,-1.64,1645192853.65625,P16,D08,1,1,1
2393,-1.88,1645192853.671875,P16,D08,1,1,1
2394,-1.98,1645192853.6875,P16,D08,1,1,1
2395,-1.96,1645192853.703125,P16,D08,1,1,1
2396,-1.83,1645192853.71875,P16,D08,1,1,1
2397,-1.57,1645192853.734375,P16,D08,1,1,1
2398,-1.22,1645192853.75,P16,D08,1,1,1
2399,-0.86,1645192853.765625,P16,D08,1,1,1
2400,-0.58,1645192853.78125,P16,D08,1,1,1
2401,-0.47,1645192853.796875,P16,D08,1,1,1
2402,-0.58,1645192853.8125,P16,D08,1,1,1
2403,-0.89,1645192853.828125,P16,D08,1,1,1
2404,-1.32,1645192853.84375,P16,D08,1,1,1
2405,-1.79,1645192853.859375,P16,D08,1,1,1
2406,-2.19,1645192853.875,P16,D08,1,1,1
2407,-2.47,1645192853.890625,P16,D08,1,1,1
2408,-2.59,1645192853.90625,P16,D08,1,1,1
2409,-2.55,1645192853.921875,P16,D08,1,1,1
2410,-2.4,1645192853.9375,P16,D08,1,1,1
2411,-2.19,1645192853.953125,P16,D08,1,1,1
2412,-1.96,1645192853.96875,P16,D08,1,1,1
2413,-1.74,1645192853.984375,P16,D08,1,1,1
2414,-1.56,1645192854.0,P16,D08,1,1,1
2415,-1.39,1645192854.015625,P16,D08,1,1,1
2416,-1.19,1645192854.03125,P16,D08,1,1,1
2417,-0.92,1645192854.046875,P16,D08,1,1,1
2418,-0.56,1645192854.0625,P16,D08,1,1,1
2419,-0.12,1645192854.078125,P16,D08,1,1,1
2420,0.3,1645192854.09375,P16,D08,1,1,1
2421,0.59,1645192854.109375,P16,D08,1,1,1
2422,0.66,1645192854.125,P16,D08,1,1,1
2423,0.51,1645192854.140625,P16,D08,1,1,1
2424,0.25,1645192854.15625,P16,D08,1,1,1
2425,0.01,1645192854.171875,P16,D08,1,1,1
2426,-0.08,1645192854.1875,P16,D08,1,1,1
2427,-0.01,1645192854.203125,P16,D08,1,1,1
2428,0.15,1645192854.21875,P16,D08,1,1,1
2429,0.29,1645192854.234375,P16,D08,1,1,1
2430,0.35,1645192854.25,P16,D08,1,1,1
2431,0.32,1645192854.265625,P16,D08,1,1,1
2432,0.26,1645192854.28125,P16,D08,1,1,1
2433,0.23,1645192854.296875,P16,D08,1,1,1
2434,0.25,1645192854.3125,P16,D08,1,1,1
2435,0.29,1645192854.328125,P16,D08,1,1,1
2436,0.28,1645192854.34375,P16,D08,1,1,1
2437,0.18,1645192854.359375,P16,D08,1,1,1
2438,-0.02,1645192854.375,P16,D08,1,1,1
2439,-0.27,1645192854.390625,P16,D08,1,1,1
2440,-0.49,1645192854.40625,P16,D08,1,1,1
2441,-0.63,1645192854.421875,P16,D08,1,1,1
2442,-0.67,1645192854.4375,P16,D08,1,1,1
2443,-0.62,1645192854.453125,P16,D08,1,1,1
2444,-0.53,1645192854.46875,P16,D08,1,1,1
2445,-0.45,1645192854.484375,P16,D08,1,1,1
2446,-0.37,1645192854.5,P16,D08,1,1,1
2447,-0.29,1645192854.515625,P16,D08,1,1,1
2448,-0.19,1645192854.53125,P16,D08,1,1,1
2449,-0.08,1645192854.546875,P16,D08,1,1,1
2450,-0.03,1645192854.5625,P16,D08,1,1,1
2451,-0.06,1645192854.578125,P16,D08,1,1,1
2452,-0.18,1645192854.59375,P16,D08,1,1,1
2453,-0.33,1645192854.609375,P16,D08,1,1,1
2454,-0.41,1645192854.625,P16,D08,1,1,1
2455,-0.36,1645192854.640625,P16,D08,1,1,1
2456,-0.22,1645192854.65625,P16,D08,1,1,1
2457,-0.05,1645192854.671875,P16,D08,1,1,1
2458,0.03,1645192854.6875,P16,D08,1,1,1
2459,-0.0,1645192854.703125,P16,D08,1,1,1
2460,-0.14,1645192854.71875,P16,D08,1,1,1
2461,-0.29,1645192854.734375,P16,D08,1,1,1
2462,-0.36,1645192854.75,P16,D08,1,1,1
2463,-0.34,1645192854.765625,P16,D08,1,1,1
2464,-0.25,1645192854.78125,P16,D08,1,1,1
2465,-0.14,1645192854.796875,P16,D08,1,1,1
2466,-0.06,1645192854.8125,P16,D08,1,1,1
2467,-0.02,1645192854.828125,P16,D08,1,1,1
2468,-0.01,1645192854.84375,P16,D08,1,1,1
2469,-0.0,1645192854.859375,P16,D08,1,1,1
2470,0.02,1645192854.875,P16,D08,1,1,1
2471,0.05,1645192854.890625,P16,D08,1,1,1
2472,0.06,1645192854.90625,P16,D08,1,1,1
2473,0.05,1645192854.921875,P16,D08,1,1,1
2474,0.01,1645192854.9375,P16,D08,1,1,1
2475,-0.01,1645192854.953125,P16,D08,1,1,1
2476,-0.0,1645192854.96875,P16,D08,1,1,1
2477,0.07,1645192854.984375,P16,D08,1,1,1
2478,0.17,1645192855.0,P16,D08,1,1,1
2479,0.28,1645192855.015625,P16,D08,1,1,1
2480,0.32,1645192855.03125,P16,D08,1,1,1
2481,0.26,1645192855.046875,P16,D08,1,1,1
2482,0.14,1645192855.0625,P16,D08,1,1,1
2483,0.03,1645192855.078125,P16,D08,1,1,1
2484,0.03,1645192855.09375,P16,D08,1,1,1
2485,0.18,1645192855.109375,P16,D08,1,1,1
2486,0.44,1645192855.125,P16,D08,1,1,1
2487,0.7,1645192855.140625,P16,D08,1,1,1
2488,0.8,1645192855.15625,P16,D08,1,1,1
2489,0.69,1645192855.171875,P16,D08,1,1,1
2490,0.38,1645192855.1875,P16,D08,1,1,1
2491,0.03,1645192855.203125,P16,D08,1,1,1
2492,-0.21,1645192855.21875,P16,D08,1,1,1
2493,-0.23,1645192855.234375,P16,D08,1,1,1
2494,-0.04,1645192855.25,P16,D08,1,1,1
2495,0.24,1645192855.265625,P16,D08,1,1,1
2496,0.47,1645192855.28125,P16,D08,1,1,1
2497,0.55,1645192855.296875,P16,D08,1,1,1
2498,0.48,1645192855.3125,P16,D08,1,1,1
2499,0.36,1645192855.328125,P16,D08,1,1,1
2500,0.3,1645192855.34375,P16,D08,1,1,1
2501,0.38,1645192855.359375,P16,D08,1,1,1
2502,0.59,1645192855.375,P16,D08,1,1,1
2503,0.83,1645192855.390625,P16,D08,1,1,1
2504,1.02,1645192855.40625,P16,D08,1,1,1
2505,1.09,1645192855.421875,P16,D08,1,1,1
2506,1.04,1645192855.4375,P16,D08,1,1,1
2507,0.87,1645192855.453125,P16,D08,1,1,1
2508,0.62,1645192855.46875,P16,D08,1,1,1
2509,0.3,1645192855.484375,P16,D08,1,1,1
2510,-0.11,1645192855.5,P16,D08,1,1,1
2511,-0.56,1645192855.515625,P16,D08,1,1,1
2512,-0.99,1645192855.53125,P16,D08,1,1,1
2513,-1.31,1645192855.546875,P16,D08,1,1,1
2514,-1.46,1645192855.5625,P16,D08,1,1,1
2515,-1.42,1645192855.578125,P16,D08,1,1,1
2516,-1.24,1645192855.59375,P16,D08,1,1,1
2517,-1.01,1645192855.609375,P16,D08,1,1,1
2518,-0.81,1645192855.625,P16,D08,1,1,1
2519,-0.64,1645192855.640625,P16,D08,1,1,1
2520,-0.46,1645192855.65625,P16,D08,1,1,1
2521,-0.2,1645192855.671875,P16,D08,1,1,1
2522,0.14,1645192855.6875,P16,D08,1,1,1
2523,0.52,1645192855.703125,P16,D08,1,1,1
2524,0.82,1645192855.71875,P16,D08,1,1,1
2525,0.97,1645192855.734375,P16,D08,1,1,1
2526,0.91,1645192855.75,P16,D08,1,1,1
2527,0.69,1645192855.765625,P16,D08,1,1,1
2528,0.39,1645192855.78125,P16,D08,1,1,1
2529,0.11,1645192855.796875,P16,D08,1,1,1
2530,-0.09,1645192855.8125,P16,D08,1,1,1
2531,-0.22,1645192855.828125,P16,D08,1,1,1
2532,-0.27,1645192855.84375,P16,D08,1,1,1
2533,-0.28,1645192855.859375,P16,D08,1,1,1
2534,-0.25,1645192855.875,P16,D08,1,1,1
2535,-0.16,1645192855.890625,P16,D08,1,1,1
2536,0.01,1645192855.90625,P16,D08,1,1,1
2537,0.24,1645192855.921875,P16,D08,1,1,1
2538,0.49,1645192855.9375,P16,D08,1,1,1
2539,0.69,1645192855.953125,P16,D08,1,1,1
2540,0.77,1645192855.96875,P16,D08,1,1,1
2541,0.69,1645192855.984375,P16,D08,1,1,1
2542,0.46,1645192856.0,P16,D08,1,1,1
2543,0.12,1645192856.015625,P16,D08,1,1,1
2544,-0.25,1645192856.03125,P16,D08,1,1,1
2545,-0.56,1645192856.046875,P16,D08,1,1,1
2546,-0.79,1645192856.0625,P16,D08,1,1,1
2547,-0.96,1645192856.078125,P16,D08,1,1,1
2548,-1.06,1645192856.09375,P16,D08,1,1,1
2549,-1.11,1645192856.109375,P16,D08,1,1,1
2550,-1.1,1645192856.125,P16,D08,1,1,1
2551,-0.96,1645192856.140625,P16,D08,1,1,1
2552,-0.69,1645192856.15625,P16,D08,1,1,1
2553,-0.32,1645192856.171875,P16,D08,1,1,1
2554,0.09,1645192856.1875,P16,D08,1,1,1
2555,0.46,1645192856.203125,P16,D08,1,1,1
2556,0.72,1645192856.21875,P16,D08,1,1,1
2557,0.84,1645192856.234375,P16,D08,1,1,1
2558,0.82,1645192856.25,P16,D08,1,1,1
2559,0.67,1645192856.265625,P16,D08,1,1,1
2560,0.44,1645192856.28125,P16,D08,1,1,1
2561,0.17,1645192856.296875,P16,D08,1,1,1
2562,-0.1,1645192856.3125,P16,D08,1,1,1
2563,-0.3,1645192856.328125,P16,D08,1,1,1
2564,-0.36,1645192856.34375,P16,D08,1,1,1
2565,-0.27,1645192856.359375,P16,D08,1,1,1
2566,-0.07,1645192856.375,P16,D08,1,1,1
2567,0.12,1645192856.390625,P16,D08,1,1,1
2568,0.2,1645192856.40625,P16,D08,1,1,1
2569,0.14,1645192856.421875,P16,D08,1,1,1
2570,-0.03,1645192856.4375,P16,D08,1,1,1
2571,-0.2,1645192856.453125,P16,D08,1,1,1
2572,-0.26,1645192856.46875,P16,D08,1,1,1
2573,-0.16,1645192856.484375,P16,D08,1,1,1
2574,0.06,1645192856.5,P16,D08,1,1,1
2575,0.3,1645192856.515625,P16,D08,1,1,1
2576,0.5,1645192856.53125,P16,D08,1,1,1
2577,0.64,1645192856.546875,P16,D08,1,1,1
2578,0.75,1645192856.5625,P16,D08,1,1,1
2579,0.88,1645192856.578125,P16,D08,1,1,1
2580,1.03,1645192856.59375,P16,D08,1,1,1
2581,1.14,1645192856.609375,P16,D08,1,1,1
2582,1.11,1645192856.625,P16,D08,1,1,1
2583,0.87,1645192856.640625,P16,D08,1,1,1
2584,0.45,1645192856.65625,P16,D08,1,1,1
2585,-0.05,1645192856.671875,P16,D08,1,1,1
2586,-0.49,1645192856.6875,P16,D08,1,1,1
2587,-0.74,1645192856.703125,P16,D08,1,1,1
2588,-0.77,1645192856.71875,P16,D08,1,1,1
2589,-0.6,1645192856.734375,P16,D08,1,1,1
2590,-0.32,1645192856.75,P16,D08,1,1,1
2591,-0.03,1645192856.765625,P16,D08,1,1,1
2592,0.19,1645192856.78125,P16,D08,1,1,1
2593,0.29,1645192856.796875,P16,D08,1,1,1
2594,0.27,1645192856.8125,P16,D08,1,1,1
2595,0.17,1645192856.828125,P16,D08,1,1,1
2596,0.03,1645192856.84375,P16,D08,1,1,1
2597,-0.11,1645192856.859375,P16,D08,1,1,1
2598,-0.24,1645192856.875,P16,D08,1,1,1
2599,-0.36,1645192856.890625,P16,D08,1,1,1
2600,-0.47,1645192856.90625,P16,D08,1,1,1
2601,-0.57,1645192856.921875,P16,D08,1,1,1
2602,-0.67,1645192856.9375,P16,D08,1,1,1
2603,-0.76,1645192856.953125,P16,D08,1,1,1
2604,-0.84,1645192856.96875,P16,D08,1,1,1
2605,-0.94,1645192856.984375,P16,D08,1,1,1
2606,-1.07,1645192857.0,P16,D08,1,1,1
2607,-1.21,1645192857.015625,P16,D08,1,1,1
2608,-1.31,1645192857.03125,P16,D08,1,1,1
2609,-1.29,1645192857.046875,P16,D08,1,1,1
2610,-1.11,1645192857.0625,P16,D08,1,1,1
2611,-0.79,1645192857.078125,P16,D08,1,1,1
2612,-0.44,1645192857.09375,P16,D08,1,1,1
2613,-0.18,1645192857.109375,P16,D08,1,1,1
2614,-0.1,1645192857.125,P16,D08,1,1,1
2615,-0.21,1645192857.140625,P16,D08,1,1,1
2616,-0.42,1645192857.15625,P16,D08,1,1,1
2617,-0.62,1645192857.171875,P16,D08,1,1,1
2618,-0.68,1645192857.1875,P16,D08,1,1,1
2619,-0.56,1645192857.203125,P16,D08,1,1,1
2620,-0.31,1645192857.21875,P16,D08,1,1,1
2621,0.02,1645192857.234375,P16,D08,1,1,1
2622,0.32,1645192857.25,P16,D08,1,1,1
2623,0.53,1645192857.265625,P16,D08,1,1,1
2624,0.63,1645192857.28125,P16,D08,1,1,1
2625,0.65,1645192857.296875,P16,D08,1,1,1
2626,0.61,1645192857.3125,P16,D08,1,1,1
2627,0.55,1645192857.328125,P16,D08,1,1,1
2628,0.45,1645192857.34375,P16,D08,1,1,1
2629,0.32,1645192857.359375,P16,D08,1,1,1
2630,0.15,1645192857.375,P16,D08,1,1,1
2631,-0.03,1645192857.390625,P16,D08,1,1,1
2632,-0.18,1645192857.40625,P16,D08,1,1,1
2633,-0.25,1645192857.421875,P16,D08,1,1,1
2634,-0.2,1645192857.4375,P16,D08,1,1,1
2635,-0.06,1645192857.453125,P16,D08,1,1,1
2636,0.12,1645192857.46875,P16,D08,1,1,1
2637,0.24,1645192857.484375,P16,D08,1,1,1
2638,0.28,1645192857.5,P16,D08,1,1,1
2639,0.25,1645192857.515625,P16,D08,1,1,1
2640,0.24,1645192857.53125,P16,D08,1,1,1
2641,0.31,1645192857.546875,P16,D08,1,1,1
2642,0.48,1645192857.5625,P16,D08,1,1,1
2643,0.68,1645192857.578125,P16,D08,1,1,1
2644,0.84,1645192857.59375,P16,D08,1,1,1
2645,0.87,1645192857.609375,P16,D08,1,1,1
2646,0.77,1645192857.625,P16,D08,1,1,1
2647,0.62,1645192857.640625,P16,D08,1,1,1
2648,0.48,1645192857.65625,P16,D08,1,1,1
2649,0.38,1645192857.671875,P16,D08,1,1,1
2650,0.3,1645192857.6875,P16,D08,1,1,1
2651,0.19,1645192857.703125,P16,D08,1,1,1
2652,-0.0,1645192857.71875,P16,D08,1,1,1
2653,-0.22,1645192857.734375,P16,D08,1,1,1
2654,-0.37,1645192857.75,P16,D08,1,1,1
2655,-0.36,1645192857.765625,P16,D08,1,1,1
2656,-0.19,1645192857.78125,P16,D08,1,1,1
2657,0.07,1645192857.796875,P16,D08,1,1,1
2658,0.29,1645192857.8125,P16,D08,1,1,1
2659,0.36,1645192857.828125,P16,D08,1,1,1
2660,0.25,1645192857.84375,P16,D08,1,1,1
2661,0.03,1645192857.859375,P16,D08,1,1,1
2662,-0.17,1645192857.875,P16,D08,1,1,1
2663,-0.24,1645192857.890625,P16,D08,1,1,1
2664,-0.14,1645192857.90625,P16,D08,1,1,1
2665,0.09,1645192857.921875,P16,D08,1,1,1
2666,0.35,1645192857.9375,P16,D08,1,1,1
2667,0.55,1645192857.953125,P16,D08,1,1,1
2668,0.66,1645192857.96875,P16,D08,1,1,1
2669,0.71,1645192857.984375,P16,D08,1,1,1
2670,0.74,1645192858.0,P16,D08,1,1,1
2671,0.78,1645192858.015625,P16,D08,1,1,1
2672,0.83,1645192858.03125,P16,D08,1,1,1
2673,0.84,1645192858.046875,P16,D08,1,1,1
2674,0.77,1645192858.0625,P16,D08,1,1,1
2675,0.61,1645192858.078125,P16,D08,1,1,1
2676,0.41,1645192858.09375,P16,D08,1,1,1
2677,0.22,1645192858.109375,P16,D08,1,1,1
2678,0.07,1645192858.125,P16,D08,1,1,1
2679,-0.03,1645192858.140625,P16,D08,1,1,1
2680,-0.12,1645192858.15625,P16,D08,1,1,1
2681,-0.23,1645192858.171875,P16,D08,1,1,1
2682,-0.34,1645192858.1875,P16,D08,1,1,1
2683,-0.4,1645192858.203125,P16,D08,1,1,1
2684,-0.37,1645192858.21875,P16,D08,1,1,1
2685,-0.28,1645192858.234375,P16,D08,1,1,1
2686,-0.15,1645192858.25,P16,D08,1,1,1
2687,-0.03,1645192858.265625,P16,D08,1,1,1
2688,0.07,1645192858.28125,P16,D08,1,1,1
2689,0.19,1645192858.296875,P16,D08,1,1,1
2690,0.35,1645192858.3125,P16,D08,1,1,1
2691,0.53,1645192858.328125,P16,D08,1,1,1
2692,0.67,1645192858.34375,P16,D08,1,1,1
2693,0.67,1645192858.359375,P16,D08,1,1,1
2694,0.48,1645192858.375,P16,D08,1,1,1
2695,0.11,1645192858.390625,P16,D08,1,1,1
2696,-0.31,1645192858.40625,P16,D08,1,1,1
2697,-0.65,1645192858.421875,P16,D08,1,1,1
2698,-0.8,1645192858.4375,P16,D08,1,1,1
2699,-0.73,1645192858.453125,P16,D08,1,1,1
2700,-0.5,1645192858.46875,P16,D08,1,1,1
2701,-0.22,1645192858.484375,P16,D08,1,1,1
2702,-0.02,1645192858.5,P16,D08,1,1,1
2703,0.03,1645192858.515625,P16,D08,1,1,1
2704,-0.1,1645192858.53125,P16,D08,1,1,1
2705,-0.34,1645192858.546875,P16,D08,1,1,1
2706,-0.57,1645192858.5625,P16,D08,1,1,1
2707,-0.68,1645192858.578125,P16,D08,1,1,1
2708,-0.58,1645192858.59375,P16,D08,1,1,1
2709,-0.3,1645192858.609375,P16,D08,1,1,1
2710,0.07,1645192858.625,P16,D08,1,1,1
2711,0.36,1645192858.640625,P16,D08,1,1,1
2712,0.45,1645192858.65625,P16,D08,1,1,1
2713,0.27,1645192858.671875,P16,D08,1,1,1
2714,-0.12,1645192858.6875,P16,D08,1,1,1
2715,-0.57,1645192858.703125,P16,D08,1,1,1
2716,-0.94,1645192858.71875,P16,D08,1,1,1
2717,-1.12,1645192858.734375,P16,D08,1,1,1
2718,-1.08,1645192858.75,P16,D08,1,1,1
2719,-0.87,1645192858.765625,P16,D08,1,1,1
2720,-0.57,1645192858.78125,P16,D08,1,1,1
2721,-0.27,1645192858.796875,P16,D08,1,1,1
2722,-0.02,1645192858.8125,P16,D08,1,1,1
2723,0.19,1645192858.828125,P16,D08,1,1,1
2724,0.34,1645192858.84375,P16,D08,1,1,1
2725,0.47,1645192858.859375,P16,D08,1,1,1
2726,0.55,1645192858.875,P16,D08,1,1,1
2727,0.59,1645192858.890625,P16,D08,1,1,1
2728,0.6,1645192858.90625,P16,D08,1,1,1
2729,0.63,1645192858.921875,P16,D08,1,1,1
2730,0.7,1645192858.9375,P16,D08,1,1,1
2731,0.87,1645192858.953125,P16,D08,1,1,1
2732,1.09,1645192858.96875,P16,D08,1,1,1
2733,1.3,1645192858.984375,P16,D08,1,1,1
2734,1.41,1645192859.0,P16,D08,1,1,1
2735,1.37,1645192859.015625,P16,D08,1,1,1
2736,1.16,1645192859.03125,P16,D08,1,1,1
2737,0.86,1645192859.046875,P16,D08,1,1,1
2738,0.53,1645192859.0625,P16,D08,1,1,1
2739,0.25,1645192859.078125,P16,D08,1,1,1
2740,0.04,1645192859.09375,P16,D08,1,1,1
2741,-0.11,1645192859.109375,P16,D08,1,1,1
2742,-0.19,1645192859.125,P16,D08,1,1,1
2743,-0.22,1645192859.140625,P16,D08,1,1,1
2744,-0.19,1645192859.15625,P16,D08,1,1,1
2745,-0.12,1645192859.171875,P16,D08,1,1,1
2746,-0.04,1645192859.1875,P16,D08,1,1,1
2747,-0.01,1645192859.203125,P16,D08,1,1,1
2748,-0.06,1645192859.21875,P16,D08,1,1,1
2749,-0.18,1645192859.234375,P16,D08,1,1,1
2750,-0.31,1645192859.25,P16,D08,1,1,1
2751,-0.38,1645192859.265625,P16,D08,1,1,1
2752,-0.32,1645192859.28125,P16,D08,1,1,1
2753,-0.15,1645192859.296875,P16,D08,1,1,1
2754,0.03,1645192859.3125,P16,D08,1,1,1
2755,0.12,1645192859.328125,P16,D08,1,1,1
2756,0.02,1645192859.34375,P16,D08,1,1,1
2757,-0.25,1645192859.359375,P16,D08,1,1,1
2758,-0.61,1645192859.375,P16,D08,1,1,1
2759,-0.93,1645192859.390625,P16,D08,1,1,1
2760,-1.13,1645192859.40625,P16,D08,1,1,1
2761,-1.21,1645192859.421875,P16,D08,1,1,1
2762,-1.23,1645192859.4375,P16,D08,1,1,1
2763,-1.25,1645192859.453125,P16,D08,1,1,1
2764,-1.29,1645192859.46875,P16,D08,1,1,1
2765,-1.31,1645192859.484375,P16,D08,1,1,1
2766,-1.22,1645192859.5,P16,D08,1,1,1
2767,-1.0,1645192859.515625,P16,D08,1,1,1
2768,-0.66,1645192859.53125,P16,D08,1,1,1
2769,-0.3,1645192859.546875,P16,D08,1,1,1
2770,0.01,1645192859.5625,P16,D08,1,1,1
2771,0.22,1645192859.578125,P16,D08,1,1,1
2772,0.35,1645192859.59375,P16,D08,1,1,1
2773,0.45,1645192859.609375,P16,D08,1,1,1
2774,0.51,1645192859.625,P16,D08,1,1,1
2775,0.53,1645192859.640625,P16,D08,1,1,1
2776,0.47,1645192859.65625,P16,D08,1,1,1
2777,0.31,1645192859.671875,P16,D08,1,1,1
2778,0.07,1645192859.6875,P16,D08,1,1,1
2779,-0.2,1645192859.703125,P16,D08,1,1,1
2780,-0.44,1645192859.71875,P16,D08,1,1,1
2781,-0.6,1645192859.734375,P16,D08,1,1,1
2782,-0.7,1645192859.75,P16,D08,1,1,1
2783,-0.73,1645192859.765625,P16,D08,1,1,1
2784,-0.71,1645192859.78125,P16,D08,1,1,1
2785,-0.65,1645192859.796875,P16,D08,1,1,1
2786,-0.56,1645192859.8125,P16,D08,1,1,1
2787,-0.45,1645192859.828125,P16,D08,1,1,1
2788,-0.34,1645192859.84375,P16,D08,1,1,1
2789,-0.27,1645192859.859375,P16,D08,1,1,1
2790,-0.23,1645192859.875,P16,D08,1,1,1
2791,-0.24,1645192859.890625,P16,D08,1,1,1
2792,-0.26,1645192859.90625,P16,D08,1,1,1
2793,-0.28,1645192859.921875,P16,D08,1,1,1
2794,-0.27,1645192859.9375,P16,D08,1,1,1
2795,-0.23,1645192859.953125,P16,D08,1,1,1
2796,-0.16,1645192859.96875,P16,D08,1,1,1
2797,-0.08,1645192859.984375,P16,D08,1,1,1
2798,0.02,1645192860.0,P16,D08,1,1,1
2799,0.09,1645192860.015625,P16,D08,1,1,1
2800,0.11,1645192860.03125,P16,D08,1,1,1
2801,0.09,1645192860.046875,P16,D08,1,1,1
2802,0.06,1645192860.0625,P16,D08,1,1,1
2803,0.07,1645192860.078125,P16,D08,1,1,1
2804,0.16,1645192860.09375,P16,D08,1,1,1
2805,0.34,1645192860.109375,P16,D08,1,1,1
2806,0.55,1645192860.125,P16,D08,1,1,1
2807,0.72,1645192860.140625,P16,D08,1,1,1
2808,0.78,1645192860.15625,P16,D08,1,1,1
2809,0.71,1645192860.171875,P16,D08,1,1,1
2810,0.57,1645192860.1875,P16,D08,1,1,1
2811,0.39,1645192860.203125,P16,D08,1,1,1
2812,0.25,1645192860.21875,P16,D08,1,1,1
2813,0.16,1645192860.234375,P16,D08,1,1,1
2814,0.16,1645192860.25,P16,D08,1,1,1
2815,0.21,1645192860.265625,P16,D08,1,1,1
2816,0.3,1645192860.28125,P16,D08,1,1,1
2817,0.35,1645192860.296875,P16,D08,1,1,1
2818,0.33,1645192860.3125,P16,D08,1,1,1
2819,0.18,1645192860.328125,P16,D08,1,1,1
2820,-0.05,1645192860.34375,P16,D08,1,1,1
2821,-0.3,1645192860.359375,P16,D08,1,1,1
2822,-0.46,1645192860.375,P16,D08,1,1,1
2823,-0.47,1645192860.390625,P16,D08,1,1,1
2824,-0.35,1645192860.40625,P16,D08,1,1,1
2825,-0.16,1645192860.421875,P16,D08,1,1,1
2826,-0.01,1645192860.4375,P16,D08,1,1,1
2827,0.08,1645192860.453125,P16,D08,1,1,1
2828,0.1,1645192860.46875,P16,D08,1,1,1
2829,0.09,1645192860.484375,P16,D08,1,1,1
2830,0.1,1645192860.5,P16,D08,1,1,1
2831,0.1,1645192860.515625,P16,D08,1,1,1
2832,0.11,1645192860.53125,P16,D08,1,1,1
2833,0.13,1645192860.546875,P16,D08,1,1,1
2834,0.18,1645192860.5625,P16,D08,1,1,1
2835,0.32,1645192860.578125,P16,D08,1,1,1
2836,0.52,1645192860.59375,P16,D08,1,1,1
2837,0.7,1645192860.609375,P16,D08,1,1,1
2838,0.8,1645192860.625,P16,D08,1,1,1
2839,0.76,1645192860.640625,P16,D08,1,1,1
2840,0.62,1645192860.65625,P16,D08,1,1,1
2841,0.47,1645192860.671875,P16,D08,1,1,1
2842,0.38,1645192860.6875,P16,D08,1,1,1
2843,0.38,1645192860.703125,P16,D08,1,1,1
2844,0.41,1645192860.71875,P16,D08,1,1,1
2845,0.42,1645192860.734375,P16,D08,1,1,1
2846,0.35,1645192860.75,P16,D08,1,1,1
2847,0.22,1645192860.765625,P16,D08,1,1,1
2848,0.08,1645192860.78125,P16,D08,1,1,1
2849,-0.03,1645192860.796875,P16,D08,1,1,1
2850,-0.08,1645192860.8125,P16,D08,1,1,1
2851,-0.08,1645192860.828125,P16,D08,1,1,1
2852,-0.05,1645192860.84375,P16,D08,1,1,1
2853,-0.04,1645192860.859375,P16,D08,1,1,1
2854,-0.06,1645192860.875,P16,D08,1,1,1
2855,-0.09,1645192860.890625,P16,D08,1,1,1
2856,-0.11,1645192860.90625,P16,D08,1,1,1
2857,-0.05,1645192860.921875,P16,D08,1,1,1
2858,0.09,1645192860.9375,P16,D08,1,1,1
2859,0.32,1645192860.953125,P16,D08,1,1,1
2860,0.55,1645192860.96875,P16,D08,1,1,1
2861,0.71,1645192860.984375,P16,D08,1,1,1
2862,0.7,1645192861.0,P16,D08,1,1,1
2863,0.48,1645192861.015625,P16,D08,1,1,1
2864,0.13,1645192861.03125,P16,D08,1,1,1
2865,-0.27,1645192861.046875,P16,D08,1,1,1
2866,-0.6,1645192861.0625,P16,D08,1,1,1
2867,-0.77,1645192861.078125,P16,D08,1,1,1
2868,-0.75,1645192861.09375,P16,D08,1,1,1
2869,-0.6,1645192861.109375,P16,D08,1,1,1
2870,-0.38,1645192861.125,P16,D08,1,1,1
2871,-0.17,1645192861.140625,P16,D08,1,1,1
2872,-0.06,1645192861.15625,P16,D08,1,1,1
2873,-0.07,1645192861.171875,P16,D08,1,1,1
2874,-0.21,1645192861.1875,P16,D08,1,1,1
2875,-0.47,1645192861.203125,P16,D08,1,1,1
2876,-0.76,1645192861.21875,P16,D08,1,1,1
2877,-1.02,1645192861.234375,P16,D08,1,1,1
2878,-1.19,1645192861.25,P16,D08,1,1,1
2879,-1.21,1645192861.265625,P16,D08,1,1,1
2880,-1.1,1645192861.28125,P16,D08,1,1,1
2881,-0.88,1645192861.296875,P16,D08,1,1,1
2882,-0.59,1645192861.3125,P16,D08,1,1,1
2883,-0.29,1645192861.328125,P16,D08,1,1,1
2884,-0.0,1645192861.34375,P16,D08,1,1,1
2885,0.25,1645192861.359375,P16,D08,1,1,1
2886,0.41,1645192861.375,P16,D08,1,1,1
2887,0.46,1645192861.390625,P16,D08,1,1,1
2888,0.36,1645192861.40625,P16,D08,1,1,1
2889,0.14,1645192861.421875,P16,D08,1,1,1
2890,-0.14,1645192861.4375,P16,D08,1,1,1
2891,-0.37,1645192861.453125,P16,D08,1,1,1
2892,-0.45,1645192861.46875,P16,D08,1,1,1
2893,-0.3,1645192861.484375,P16,D08,1,1,1
2894,0.06,1645192861.5,P16,D08,1,1,1
2895,0.49,1645192861.515625,P16,D08,1,1,1
2896,0.81,1645192861.53125,P16,D08,1,1,1
2897,0.88,1645192861.546875,P16,D08,1,1,1
2898,0.67,1645192861.5625,P16,D08,1,1,1
2899,0.26,1645192861.578125,P16,D08,1,1,1
2900,-0.18,1645192861.59375,P16,D08,1,1,1
2901,-0.51,1645192861.609375,P16,D08,1,1,1
2902,-0.62,1645192861.625,P16,D08,1,1,1
2903,-0.56,1645192861.640625,P16,D08,1,1,1
2904,-0.4,1645192861.65625,P16,D08,1,1,1
2905,-0.23,1645192861.671875,P16,D08,1,1,1
2906,-0.11,1645192861.6875,P16,D08,1,1,1
2907,-0.04,1645192861.703125,P16,D08,1,1,1
2908,-0.03,1645192861.71875,P16,D08,1,1,1
2909,-0.08,1645192861.734375,P16,D08,1,1,1
2910,-0.17,1645192861.75,P16,D08,1,1,1
2911,-0.27,1645192861.765625,P16,D08,1,1,1
2912,-0.3,1645192861.78125,P16,D08,1,1,1
2913,-0.17,1645192861.796875,P16,D08,1,1,1
2914,0.15,1645192861.8125,P16,D08,1,1,1
2915,0.61,1645192861.828125,P16,D08,1,1,1
2916,1.07,1645192861.84375,P16,D08,1,1,1
2917,1.42,1645192861.859375,P16,D08,1,1,1
2918,1.56,1645192861.875,P16,D08,1,1,1
