,data,timestamp,participant,document,val,arou,eng
0,2.09,1645184356.671875,P15,D00,0,0,0
1,1.79,1645184356.6875,P15,D00,0,0,0
2,1.53,1645184356.703125,P15,D00,0,0,0
3,1.4,1645184356.71875,P15,D00,0,0,0
4,1.4,1645184356.734375,P15,D00,0,0,0
5,1.49,1645184356.75,P15,D00,0,0,0
6,1.57,1645184356.765625,P15,D00,0,0,0
7,1.57,1645184356.78125,P15,D00,0,0,0
8,1.44,1645184356.796875,P15,D00,0,0,0
9,1.15,1645184356.8125,P15,D00,0,0,0
10,0.72,1645184356.828125,P15,D00,0,0,0
11,0.23,1645184356.84375,P15,D00,0,0,0
12,-0.17,1645184356.859375,P15,D00,0,0,0
13,-0.34,1645184356.875,P15,D00,0,0,0
14,-0.17,1645184356.890625,P15,D00,0,0,0
15,0.3,1645184356.90625,P15,D00,0,0,0
16,0.94,1645184356.921875,P15,D00,0,0,0
17,1.55,1645184356.9375,P15,D00,0,0,0
18,1.97,1645184356.953125,P15,D00,0,0,0
19,2.14,1645184356.96875,P15,D00,0,0,0
20,2.06,1645184356.984375,P15,D00,0,0,0
21,1.8,1645184357.0,P15,D00,0,0,0
22,1.41,1645184357.015625,P15,D00,0,0,0
23,0.93,1645184357.03125,P15,D00,0,0,0
24,0.44,1645184357.046875,P15,D00,0,0,0
25,0.06,1645184357.0625,P15,D00,0,0,0
26,-0.07,1645184357.078125,P15,D00,0,0,0
27,0.16,1645184357.09375,P15,D00,0,0,0
28,0.69,1645184357.109375,P15,D00,0,0,0
29,1.32,1645184357.125,P15,D00,0,0,0
30,1.72,1645184357.140625,P15,D00,0,0,0
31,1.65,1645184357.15625,P15,D00,0,0,0
32,1.03,1645184357.171875,P15,D00,0,0,0
33,0.03,1645184357.1875,P15,D00,0,0,0
34,-1.06,1645184357.203125,P15,D00,0,0,0
35,-1.93,1645184357.21875,P15,D00,0,0,0
36,-2.46,1645184357.234375,P15,D00,0,0,0
37,-2.68,1645184357.25,P15,D00,0,0,0
38,-2.75,1645184357.265625,P15,D00,0,0,0
39,-2.83,1645184357.28125,P15,D00,0,0,0
40,-3.01,1645184357.296875,P15,D00,0,0,0
41,-3.27,1645184357.3125,P15,D00,0,0,0
42,-3.5,1645184357.328125,P15,D00,0,0,0
43,-3.58,1645184357.34375,P15,D00,0,0,0
44,-3.38,1645184357.359375,P15,D00,0,0,0
45,-2.85,1645184357.375,P15,D00,0,0,0
46,-2.0,1645184357.390625,P15,D00,0,0,0
47,-0.98,1645184357.40625,P15,D00,0,0,0
48,-0.01,1645184357.421875,P15,D00,0,0,0
49,0.65,1645184357.4375,P15,D00,0,0,0
50,0.77,1645184357.453125,P15,D00,0,0,0
51,0.31,1645184357.46875,P15,D00,0,0,0
52,-0.6,1645184357.484375,P15,D00,0,0,0
53,-1.63,1645184357.5,P15,D00,0,0,0
54,-2.44,1645184357.515625,P15,D00,0,0,0
55,-2.77,1645184357.53125,P15,D00,0,0,0
56,-2.57,1645184357.546875,P15,D00,0,0,0
57,-1.93,1645184357.5625,P15,D00,0,0,0
58,-1.06,1645184357.578125,P15,D00,0,0,0
59,-0.14,1645184357.59375,P15,D00,0,0,0
60,0.68,1645184357.609375,P15,D00,0,0,0
61,1.33,1645184357.625,P15,D00,0,0,0
62,1.76,1645184357.640625,P15,D00,0,0,0
63,1.91,1645184357.65625,P15,D00,0,0,0
64,1.76,1645184357.671875,P15,D00,0,0,0
65,1.34,1645184357.6875,P15,D00,0,0,0
66,0.71,1645184357.703125,P15,D00,0,0,0
67,0.01,1645184357.71875,P15,D00,0,0,0
68,-0.63,1645184357.734375,P15,D00,0,0,0
69,-1.11,1645184357.75,P15,D00,0,0,0
70,-1.39,1645184357.765625,P15,D00,0,0,0
71,-1.51,1645184357.78125,P15,D00,0,0,0
72,-1.54,1645184357.796875,P15,D00,0,0,0
73,-1.56,1645184357.8125,P15,D00,0,0,0
74,-1.62,1645184357.828125,P15,D00,0,0,0
75,-1.73,1645184357.84375,P15,D00,0,0,0
76,-1.88,1645184357.859375,P15,D00,0,0,0
77,-2.05,1645184357.875,P15,D00,0,0,0
78,-2.26,1645184357.890625,P15,D00,0,0,0
79,-2.51,1645184357.90625,P15,D00,0,0,0
80,-2.79,1645184357.921875,P15,D00,0,0,0
81,-3.06,1645184357.9375,P15,D00,0,0,0
82,-3.2,1645184357.953125,P15,D00,0,0,0
83,-3.07,1645184357.96875,P15,D00,0,0,0
84,-2.59,1645184357.984375,P15,D00,0,0,0
85,-1.77,1645184358.0,P15,D00,0,0,0
86,-0.77,1645184358.015625,P15,D00,0,0,0
87,0.2,1645184358.03125,P15,D00,0,0,0
88,0.96,1645184358.046875,P15,D00,0,0,0
89,1.43,1645184358.0625,P15,D00,0,0,0
90,1.69,1645184358.078125,P15,D00,0,0,0
91,1.92,1645184358.09375,P15,D00,0,0,0
92,2.26,1645184358.109375,P15,D00,0,0,0
93,2.77,1645184358.125,P15,D00,0,0,0
94,3.34,1645184358.140625,P15,D00,0,0,0
95,3.8,1645184358.15625,P15,D00,0,0,0
96,3.96,1645184358.171875,P15,D00,0,0,0
97,3.79,1645184358.1875,P15,D00,0,0,0
98,3.39,1645184358.203125,P15,D00,0,0,0
99,2.97,1645184358.21875,P15,D00,0,0,0
100,2.69,1645184358.234375,P15,D00,0,0,0
101,2.6,1645184358.25,P15,D00,0,0,0
102,2.61,1645184358.265625,P15,D00,0,0,0
103,2.49,1645184358.28125,P15,D00,0,0,0
104,2.09,1645184358.296875,P15,D00,0,0,0
105,1.33,1645184358.3125,P15,D00,0,0,0
106,0.33,1645184358.328125,P15,D00,0,0,0
107,-0.75,1645184358.34375,P15,D00,0,0,0
108,-1.73,1645184358.359375,P15,D00,0,0,0
109,-2.55,1645184358.375,P15,D00,0,0,0
110,-3.28,1645184358.390625,P15,D00,0,0,0
111,-3.98,1645184358.40625,P15,D00,0,0,0
112,-4.69,1645184358.421875,P15,D00,0,0,0
113,-5.32,1645184358.4375,P15,D00,0,0,0
114,-5.73,1645184358.453125,P15,D00,0,0,0
115,-5.8,1645184358.46875,P15,D00,0,0,0
116,-5.56,1645184358.484375,P15,D00,0,0,0
117,-5.12,1645184358.5,P15,D00,0,0,0
118,-4.69,1645184358.515625,P15,D00,0,0,0
119,-4.43,1645184358.53125,P15,D00,0,0,0
120,-4.37,1645184358.546875,P15,D00,0,0,0
121,-4.38,1645184358.5625,P15,D00,0,0,0
122,-4.31,1645184358.578125,P15,D00,0,0,0
123,-4.03,1645184358.59375,P15,D00,0,0,0
124,-3.49,1645184358.609375,P15,D00,0,0,0
125,-2.78,1645184358.625,P15,D00,0,0,0
126,-2.02,1645184358.640625,P15,D00,0,0,0
127,-1.32,1645184358.65625,P15,D00,0,0,0
128,-0.73,1645184358.671875,P15,D00,0,0,0
129,-0.25,1645184358.6875,P15,D00,0,0,0
130,0.14,1645184358.703125,P15,D00,0,0,0
131,0.47,1645184358.71875,P15,D00,0,0,0
132,0.72,1645184358.734375,P15,D00,0,0,0
133,0.92,1645184358.75,P15,D00,0,0,0
134,1.08,1645184358.765625,P15,D00,0,0,0
135,1.27,1645184358.78125,P15,D00,0,0,0
136,1.53,1645184358.796875,P15,D00,0,0,0
137,1.9,1645184358.8125,P15,D00,0,0,0
138,2.34,1645184358.828125,P15,D00,0,0,0
139,2.81,1645184358.84375,P15,D00,0,0,0
140,3.24,1645184358.859375,P15,D00,0,0,0
141,3.61,1645184358.875,P15,D00,0,0,0
142,3.9,1645184358.890625,P15,D00,0,0,0
143,4.11,1645184358.90625,P15,D00,0,0,0
144,4.23,1645184358.921875,P15,D00,0,0,0
145,4.19,1645184358.9375,P15,D00,0,0,0
146,3.95,1645184358.953125,P15,D00,0,0,0
147,3.46,1645184358.96875,P15,D00,0,0,0
148,2.78,1645184358.984375,P15,D00,0,0,0
149,2.06,1645184359.0,P15,D00,0,0,0
150,1.46,1645184359.015625,P15,D00,0,0,0
151,1.08,1645184359.03125,P15,D00,0,0,0
152,0.95,1645184359.046875,P15,D00,0,0,0
153,0.95,1645184359.0625,P15,D00,0,0,0
154,0.94,1645184359.078125,P15,D00,0,0,0
155,0.8,1645184359.09375,P15,D00,0,0,0
156,0.5,1645184359.109375,P15,D00,0,0,0
157,0.09,1645184359.125,P15,D00,0,0,0
158,-0.36,1645184359.140625,P15,D00,0,0,0
159,-0.8,1645184359.15625,P15,D00,0,0,0
160,-1.21,1645184359.171875,P15,D00,0,0,0
161,-1.66,1645184359.1875,P15,D00,0,0,0
162,-2.19,1645184359.203125,P15,D00,0,0,0
163,-2.8,1645184359.21875,P15,D00,0,0,0
164,-3.42,1645184359.234375,P15,D00,0,0,0
165,-3.94,1645184359.25,P15,D00,0,0,0
166,-4.24,1645184359.265625,P15,D00,0,0,0
167,-4.27,1645184359.28125,P15,D00,0,0,0
168,-4.02,1645184359.296875,P15,D00,0,0,0
169,-3.58,1645184359.3125,P15,D00,0,0,0
170,-3.04,1645184359.328125,P15,D00,0,0,0
171,-2.47,1645184359.34375,P15,D00,0,0,0
172,-1.9,1645184359.359375,P15,D00,0,0,0
173,-1.31,1645184359.375,P15,D00,0,0,0
174,-0.7,1645184359.390625,P15,D00,0,0,0
175,-0.1,1645184359.40625,P15,D00,0,0,0
176,0.43,1645184359.421875,P15,D00,0,0,0
177,0.83,1645184359.4375,P15,D00,0,0,0
178,1.13,1645184359.453125,P15,D00,0,0,0
179,1.43,1645184359.46875,P15,D00,0,0,0
180,1.93,1645184359.484375,P15,D00,0,0,0
181,2.74,1645184359.5,P15,D00,0,0,0
182,3.88,1645184359.515625,P15,D00,0,0,0
183,5.19,1645184359.53125,P15,D00,0,0,0
184,6.43,1645184359.546875,P15,D00,0,0,0
185,7.36,1645184359.5625,P15,D00,0,0,0
186,7.85,1645184359.578125,P15,D00,0,0,0
187,7.94,1645184359.59375,P15,D00,0,0,0
188,7.72,1645184359.609375,P15,D00,0,0,0
189,7.36,1645184359.625,P15,D00,0,0,0
190,6.96,1645184359.640625,P15,D00,0,0,0
191,6.59,1645184359.65625,P15,D00,0,0,0
192,6.25,1645184359.671875,P15,D00,0,0,0
193,5.91,1645184359.6875,P15,D00,0,0,0
194,5.54,1645184359.703125,P15,D00,0,0,0
195,5.04,1645184359.71875,P15,D00,0,0,0
196,4.3,1645184359.734375,P15,D00,0,0,0
197,3.24,1645184359.75,P15,D00,0,0,0
198,1.9,1645184359.765625,P15,D00,0,0,0
199,0.41,1645184359.78125,P15,D00,0,0,0
200,-0.95,1645184359.796875,P15,D00,0,0,0
201,-1.87,1645184359.8125,P15,D00,0,0,0
202,-2.11,1645184359.828125,P15,D00,0,0,0
203,-1.58,1645184359.84375,P15,D00,0,0,0
204,-0.38,1645184359.859375,P15,D00,0,0,0
205,1.25,1645184359.875,P15,D00,0,0,0
206,2.97,1645184359.890625,P15,D00,0,0,0
207,4.48,1645184359.90625,P15,D00,0,0,0
208,5.59,1645184359.921875,P15,D00,0,0,0
209,6.21,1645184359.9375,P15,D00,0,0,0
210,6.4,1645184359.953125,P15,D00,0,0,0
211,6.24,1645184359.96875,P15,D00,0,0,0
212,5.83,1645184359.984375,P15,D00,0,0,0
213,5.27,1645184360.0,P15,D00,0,0,0
214,4.63,1645184360.015625,P15,D00,0,0,0
215,4.0,1645184360.03125,P15,D00,0,0,0
216,3.43,1645184360.046875,P15,D00,0,0,0
217,2.94,1645184360.0625,P15,D00,0,0,0
218,2.49,1645184360.078125,P15,D00,0,0,0
219,1.97,1645184360.09375,P15,D00,0,0,0
220,1.32,1645184360.109375,P15,D00,0,0,0
221,0.52,1645184360.125,P15,D00,0,0,0
222,-0.28,1645184360.140625,P15,D00,0,0,0
223,-0.9,1645184360.15625,P15,D00,0,0,0
224,-1.19,1645184360.171875,P15,D00,0,0,0
225,-1.17,1645184360.1875,P15,D00,0,0,0
226,-1.04,1645184360.203125,P15,D00,0,0,0
227,-1.09,1645184360.21875,P15,D00,0,0,0
228,-1.57,1645184360.234375,P15,D00,0,0,0
229,-2.55,1645184360.25,P15,D00,0,0,0
230,-3.9,1645184360.265625,P15,D00,0,0,0
231,-5.37,1645184360.28125,P15,D00,0,0,0
232,-6.71,1645184360.296875,P15,D00,0,0,0
233,-7.75,1645184360.3125,P15,D00,0,0,0
234,-8.47,1645184360.328125,P15,D00,0,0,0
235,-8.91,1645184360.34375,P15,D00,0,0,0
236,-9.09,1645184360.359375,P15,D00,0,0,0
237,-8.99,1645184360.375,P15,D00,0,0,0
238,-8.57,1645184360.390625,P15,D00,0,0,0
239,-7.81,1645184360.40625,P15,D00,0,0,0
240,-6.76,1645184360.421875,P15,D00,0,0,0
241,-5.52,1645184360.4375,P15,D00,0,0,0
242,-4.25,1645184360.453125,P15,D00,0,0,0
243,-3.03,1645184360.46875,P15,D00,0,0,0
244,-1.94,1645184360.484375,P15,D00,0,0,0
245,-1.02,1645184360.5,P15,D00,0,0,0
246,-0.3,1645184360.515625,P15,D00,0,0,0
247,0.17,1645184360.53125,P15,D00,0,0,0
248,0.32,1645184360.546875,P15,D00,0,0,0
249,0.13,1645184360.5625,P15,D00,0,0,0
250,-0.37,1645184360.578125,P15,D00,0,0,0
251,-1.08,1645184360.59375,P15,D00,0,0,0
252,-1.89,1645184360.609375,P15,D00,0,0,0
253,-2.71,1645184360.625,P15,D00,0,0,0
254,-3.47,1645184360.640625,P15,D00,0,0,0
255,-4.17,1645184360.65625,P15,D00,0,0,0
256,-4.76,1645184360.671875,P15,D00,0,0,0
257,-5.14,1645184360.6875,P15,D00,0,0,0
258,-5.21,1645184360.703125,P15,D00,0,0,0
259,-4.85,1645184360.71875,P15,D00,0,0,0
260,-4.04,1645184360.734375,P15,D00,0,0,0
261,-2.89,1645184360.75,P15,D00,0,0,0
262,-1.63,1645184360.765625,P15,D00,0,0,0
263,-0.48,1645184360.78125,P15,D00,0,0,0
264,0.39,1645184360.796875,P15,D00,0,0,0
265,0.94,1645184360.8125,P15,D00,0,0,0
266,1.21,1645184360.828125,P15,D00,0,0,0
267,1.31,1645184360.84375,P15,D00,0,0,0
268,1.34,1645184360.859375,P15,D00,0,0,0
269,1.39,1645184360.875,P15,D00,0,0,0
270,1.51,1645184360.890625,P15,D00,0,0,0
271,1.75,1645184360.90625,P15,D00,0,0,0
272,2.1,1645184360.921875,P15,D00,0,0,0
273,2.52,1645184360.9375,P15,D00,0,0,0
274,2.89,1645184360.953125,P15,D00,0,0,0
275,3.08,1645184360.96875,P15,D00,0,0,0
276,3.01,1645184360.984375,P15,D00,0,0,0
277,2.66,1645184361.0,P15,D00,0,0,0
278,2.12,1645184361.015625,P15,D00,0,0,0
279,1.56,1645184361.03125,P15,D00,0,0,0
280,1.12,1645184361.046875,P15,D00,0,0,0
281,0.92,1645184361.0625,P15,D00,0,0,0
282,0.94,1645184361.078125,P15,D00,0,0,0
283,1.09,1645184361.09375,P15,D00,0,0,0
284,1.22,1645184361.109375,P15,D00,0,0,0
285,1.21,1645184361.125,P15,D00,0,0,0
286,1.01,1645184361.140625,P15,D00,0,0,0
287,0.65,1645184361.15625,P15,D00,0,0,0
288,0.26,1645184361.171875,P15,D00,0,0,0
289,0.02,1645184361.1875,P15,D00,0,0,0
290,0.06,1645184361.203125,P15,D00,0,0,0
291,0.47,1645184361.21875,P15,D00,0,0,0
292,1.21,1645184361.234375,P15,D00,0,0,0
293,2.16,1645184361.25,P15,D00,0,0,0
294,3.1,1645184361.265625,P15,D00,0,0,0
295,3.86,1645184361.28125,P15,D00,0,0,0
296,4.29,1645184361.296875,P15,D00,0,0,0
297,4.36,1645184361.3125,P15,D00,0,0,0
298,4.13,1645184361.328125,P15,D00,0,0,0
299,3.71,1645184361.34375,P15,D00,0,0,0
300,3.22,1645184361.359375,P15,D00,0,0,0
301,2.75,1645184361.375,P15,D00,0,0,0
302,2.34,1645184361.390625,P15,D00,0,0,0
303,1.95,1645184361.40625,P15,D00,0,0,0
304,1.55,1645184361.421875,P15,D00,0,0,0
305,1.1,1645184361.4375,P15,D00,0,0,0
306,0.57,1645184361.453125,P15,D00,0,0,0
307,-0.05,1645184361.46875,P15,D00,0,0,0
308,-0.78,1645184361.484375,P15,D00,0,0,0
309,-1.59,1645184361.5,P15,D00,0,0,0
310,-2.41,1645184361.515625,P15,D00,0,0,0
311,-3.15,1645184361.53125,P15,D00,0,0,0
312,-3.69,1645184361.546875,P15,D00,0,0,0
313,-3.99,1645184361.5625,P15,D00,0,0,0
314,-4.06,1645184361.578125,P15,D00,0,0,0
315,-3.96,1645184361.59375,P15,D00,0,0,0
316,-3.76,1645184361.609375,P15,D00,0,0,0
317,-3.51,1645184361.625,P15,D00,0,0,0
318,-3.19,1645184361.640625,P15,D00,0,0,0
319,-2.85,1645184361.65625,P15,D00,0,0,0
320,-2.56,1645184361.671875,P15,D00,0,0,0
321,-2.46,1645184361.6875,P15,D00,0,0,0
322,-2.68,1645184361.703125,P15,D00,0,0,0
323,-3.26,1645184361.71875,P15,D00,0,0,0
324,-4.12,1645184361.734375,P15,D00,0,0,0
325,-5.06,1645184361.75,P15,D00,0,0,0
326,-5.87,1645184361.765625,P15,D00,0,0,0
327,-6.39,1645184361.78125,P15,D00,0,0,0
328,-6.58,1645184361.796875,P15,D00,0,0,0
329,-6.5,1645184361.8125,P15,D00,0,0,0
330,-6.23,1645184361.828125,P15,D00,0,0,0
331,-5.82,1645184361.84375,P15,D00,0,0,0
332,-5.26,1645184361.859375,P15,D00,0,0,0
333,-4.56,1645184361.875,P15,D00,0,0,0
334,-3.77,1645184361.890625,P15,D00,0,0,0
335,-3.02,1645184361.90625,P15,D00,0,0,0
336,-2.45,1645184361.921875,P15,D00,0,0,0
337,-2.17,1645184361.9375,P15,D00,0,0,0
338,-2.17,1645184361.953125,P15,D00,0,0,0
339,-2.33,1645184361.96875,P15,D00,0,0,0
340,-2.53,1645184361.984375,P15,D00,0,0,0
341,-2.65,1645184362.0,P15,D00,0,0,0
342,-2.68,1645184362.015625,P15,D00,0,0,0
343,-2.65,1645184362.03125,P15,D00,0,0,0
344,-2.63,1645184362.046875,P15,D00,0,0,0
345,-2.62,1645184362.0625,P15,D00,0,0,0
346,-2.58,1645184362.078125,P15,D00,0,0,0
347,-2.46,1645184362.09375,P15,D00,0,0,0
348,-2.21,1645184362.109375,P15,D00,0,0,0
349,-1.82,1645184362.125,P15,D00,0,0,0
350,-1.27,1645184362.140625,P15,D00,0,0,0
351,-0.57,1645184362.15625,P15,D00,0,0,0
352,0.28,1645184362.171875,P15,D00,0,0,0
353,1.27,1645184362.1875,P15,D00,0,0,0
354,2.3,1645184362.203125,P15,D00,0,0,0
355,3.27,1645184362.21875,P15,D00,0,0,0
356,4.06,1645184362.234375,P15,D00,0,0,0
357,4.56,1645184362.25,P15,D00,0,0,0
358,4.76,1645184362.265625,P15,D00,0,0,0
359,4.73,1645184362.28125,P15,D00,0,0,0
360,4.54,1645184362.296875,P15,D00,0,0,0
361,4.3,1645184362.3125,P15,D00,0,0,0
362,4.1,1645184362.328125,P15,D00,0,0,0
363,3.95,1645184362.34375,P15,D00,0,0,0
364,3.89,1645184362.359375,P15,D00,0,0,0
365,3.9,1645184362.375,P15,D00,0,0,0
366,3.94,1645184362.390625,P15,D00,0,0,0
367,3.97,1645184362.40625,P15,D00,0,0,0
368,3.91,1645184362.421875,P15,D00,0,0,0
369,3.72,1645184362.4375,P15,D00,0,0,0
370,3.4,1645184362.453125,P15,D00,0,0,0
371,3.01,1645184362.46875,P15,D00,0,0,0
372,2.65,1645184362.484375,P15,D00,0,0,0
373,2.42,1645184362.5,P15,D00,0,0,0
374,2.33,1645184362.515625,P15,D00,0,0,0
375,2.33,1645184362.53125,P15,D00,0,0,0
376,2.29,1645184362.546875,P15,D00,0,0,0
377,2.09,1645184362.5625,P15,D00,0,0,0
378,1.67,1645184362.578125,P15,D00,0,0,0
379,1.08,1645184362.59375,P15,D00,0,0,0
380,0.42,1645184362.609375,P15,D00,0,0,0
381,-0.18,1645184362.625,P15,D00,0,0,0
382,-0.67,1645184362.640625,P15,D00,0,0,0
383,-1.03,1645184362.65625,P15,D00,0,0,0
384,-1.25,1645184362.671875,P15,D00,0,0,0
385,-1.29,1645184362.6875,P15,D00,0,0,0
386,-1.1,1645184362.703125,P15,D00,0,0,0
387,-0.63,1645184362.71875,P15,D00,0,0,0
388,0.07,1645184362.734375,P15,D00,0,0,0
389,0.88,1645184362.75,P15,D00,0,0,0
390,1.67,1645184362.765625,P15,D00,0,0,0
391,2.32,1645184362.78125,P15,D00,0,0,0
392,2.83,1645184362.796875,P15,D00,0,0,0
393,3.27,1645184362.8125,P15,D00,0,0,0
394,3.74,1645184362.828125,P15,D00,0,0,0
395,4.27,1645184362.84375,P15,D00,0,0,0
396,4.77,1645184362.859375,P15,D00,0,0,0
397,5.17,1645184362.875,P15,D00,0,0,0
398,5.39,1645184362.890625,P15,D00,0,0,0
399,5.44,1645184362.90625,P15,D00,0,0,0
400,5.39,1645184362.921875,P15,D00,0,0,0
401,5.3,1645184362.9375,P15,D00,0,0,0
402,5.19,1645184362.953125,P15,D00,0,0,0
403,5.05,1645184362.96875,P15,D00,0,0,0
404,4.83,1645184362.984375,P15,D00,0,0,0
405,4.55,1645184363.0,P15,D00,0,0,0
406,4.28,1645184363.015625,P15,D00,0,0,0
407,4.09,1645184363.03125,P15,D00,0,0,0
408,4.03,1645184363.046875,P15,D00,0,0,0
409,4.08,1645184363.0625,P15,D00,0,0,0
410,4.14,1645184363.078125,P15,D00,0,0,0
411,4.14,1645184363.09375,P15,D00,0,0,0
412,4.04,1645184363.109375,P15,D00,0,0,0
413,3.86,1645184363.125,P15,D00,0,0,0
414,3.62,1645184363.140625,P15,D00,0,0,0
415,3.32,1645184363.15625,P15,D00,0,0,0
416,2.96,1645184363.171875,P15,D00,0,0,0
417,2.5,1645184363.1875,P15,D00,0,0,0
418,1.99,1645184363.203125,P15,D00,0,0,0
419,1.49,1645184363.21875,P15,D00,0,0,0
420,1.08,1645184363.234375,P15,D00,0,0,0
421,0.79,1645184363.25,P15,D00,0,0,0
422,0.6,1645184363.265625,P15,D00,0,0,0
423,0.48,1645184363.28125,P15,D00,0,0,0
424,0.38,1645184363.296875,P15,D00,0,0,0
425,0.29,1645184363.3125,P15,D00,0,0,0
426,0.22,1645184363.328125,P15,D00,0,0,0
427,0.19,1645184363.34375,P15,D00,0,0,0
428,0.17,1645184363.359375,P15,D00,0,0,0
429,0.11,1645184363.375,P15,D00,0,0,0
430,-0.06,1645184363.390625,P15,D00,0,0,0
431,-0.29,1645184363.40625,P15,D00,0,0,0
432,-0.53,1645184363.421875,P15,D00,0,0,0
433,-0.69,1645184363.4375,P15,D00,0,0,0
434,-0.75,1645184363.453125,P15,D00,0,0,0
435,-0.79,1645184363.46875,P15,D00,0,0,0
436,-0.94,1645184363.484375,P15,D00,0,0,0
437,-1.27,1645184363.5,P15,D00,0,0,0
438,-1.79,1645184363.515625,P15,D00,0,0,0
439,-2.36,1645184363.53125,P15,D00,0,0,0
440,-2.84,1645184363.546875,P15,D00,0,0,0
441,-3.12,1645184363.5625,P15,D00,0,0,0
442,-3.2,1645184363.578125,P15,D00,0,0,0
443,-3.16,1645184363.59375,P15,D00,0,0,0
444,-3.09,1645184363.609375,P15,D00,0,0,0
445,-3.05,1645184363.625,P15,D00,0,0,0
446,-3.03,1645184363.640625,P15,D00,0,0,0
447,-3.01,1645184363.65625,P15,D00,0,0,0
448,-2.99,1645184363.671875,P15,D00,0,0,0
449,-3.0,1645184363.6875,P15,D00,0,0,0
450,-3.09,1645184363.703125,P15,D00,0,0,0
451,-3.26,1645184363.71875,P15,D00,0,0,0
452,-3.42,1645184363.734375,P15,D00,0,0,0
453,-3.45,1645184363.75,P15,D00,0,0,0
454,-3.26,1645184363.765625,P15,D00,0,0,0
455,-2.83,1645184363.78125,P15,D00,0,0,0
456,-2.25,1645184363.796875,P15,D00,0,0,0
457,-1.67,1645184363.8125,P15,D00,0,0,0
458,-1.21,1645184363.828125,P15,D00,0,0,0
459,-0.92,1645184363.84375,P15,D00,0,0,0
460,-0.77,1645184363.859375,P15,D00,0,0,0
461,-0.67,1645184363.875,P15,D00,0,0,0
462,-0.56,1645184363.890625,P15,D00,0,0,0
463,-0.43,1645184363.90625,P15,D00,0,0,0
464,-0.32,1645184363.921875,P15,D00,0,0,0
465,-0.28,1645184363.9375,P15,D00,0,0,0
466,-0.27,1645184363.953125,P15,D00,0,0,0
467,-0.25,1645184363.96875,P15,D00,0,0,0
468,-0.14,1645184363.984375,P15,D00,0,0,0
469,0.07,1645184364.0,P15,D00,0,0,0
470,0.34,1645184364.015625,P15,D00,0,0,0
471,0.56,1645184364.03125,P15,D00,0,0,0
472,0.64,1645184364.046875,P15,D00,0,0,0
473,0.54,1645184364.0625,P15,D00,0,0,0
474,0.28,1645184364.078125,P15,D00,0,0,0
475,-0.09,1645184364.09375,P15,D00,0,0,0
476,-0.51,1645184364.109375,P15,D00,0,0,0
477,-0.99,1645184364.125,P15,D00,0,0,0
478,-1.54,1645184364.140625,P15,D00,0,0,0
479,-2.12,1645184364.15625,P15,D00,0,0,0
480,-2.66,1645184364.171875,P15,D00,0,0,0
481,-3.03,1645184364.1875,P15,D00,0,0,0
482,-3.12,1645184364.203125,P15,D00,0,0,0
483,-2.88,1645184364.21875,P15,D00,0,0,0
484,-2.37,1645184364.234375,P15,D00,0,0,0
485,-1.74,1645184364.25,P15,D00,0,0,0
486,-1.16,1645184364.265625,P15,D00,0,0,0
487,-0.77,1645184364.28125,P15,D00,0,0,0
488,-0.62,1645184364.296875,P15,D00,0,0,0
489,-0.67,1645184364.3125,P15,D00,0,0,0
490,-0.81,1645184364.328125,P15,D00,0,0,0
491,-0.96,1645184364.34375,P15,D00,0,0,0
492,-1.09,1645184364.359375,P15,D00,0,0,0
493,-1.22,1645184364.375,P15,D00,0,0,0
494,-1.41,1645184364.390625,P15,D00,0,0,0
495,-1.68,1645184364.40625,P15,D00,0,0,0
496,-1.99,1645184364.421875,P15,D00,0,0,0
497,-2.22,1645184364.4375,P15,D00,0,0,0
498,-2.24,1645184364.453125,P15,D00,0,0,0
499,-2.01,1645184364.46875,P15,D00,0,0,0
500,-1.55,1645184364.484375,P15,D00,0,0,0
501,-1.01,1645184364.5,P15,D00,0,0,0
502,-0.57,1645184364.515625,P15,D00,0,0,0
503,-0.36,1645184364.53125,P15,D00,0,0,0
504,-0.4,1645184364.546875,P15,D00,0,0,0
505,-0.6,1645184364.5625,P15,D00,0,0,0
506,-0.81,1645184364.578125,P15,D00,0,0,0
507,-0.9,1645184364.59375,P15,D00,0,0,0
508,-0.82,1645184364.609375,P15,D00,0,0,0
509,-0.66,1645184364.625,P15,D00,0,0,0
510,-0.5,1645184364.640625,P15,D00,0,0,0
511,-0.47,1645184364.65625,P15,D00,0,0,0
512,-0.57,1645184364.671875,P15,D00,0,0,0
513,-0.72,1645184364.6875,P15,D00,0,0,0
514,-0.82,1645184364.703125,P15,D00,0,0,0
515,-0.78,1645184364.71875,P15,D00,0,0,0
516,-0.62,1645184364.734375,P15,D00,0,0,0
517,-0.42,1645184364.75,P15,D00,0,0,0
518,-0.29,1645184364.765625,P15,D00,0,0,0
519,-0.3,1645184364.78125,P15,D00,0,0,0
520,-0.39,1645184364.796875,P15,D00,0,0,0
521,-0.5,1645184364.8125,P15,D00,0,0,0
522,-0.53,1645184364.828125,P15,D00,0,0,0
523,-0.47,1645184364.84375,P15,D00,0,0,0
524,-0.34,1645184364.859375,P15,D00,0,0,0
525,-0.21,1645184364.875,P15,D00,0,0,0
526,-0.11,1645184364.890625,P15,D00,0,0,0
527,-0.01,1645184364.90625,P15,D00,0,0,0
528,0.12,1645184364.921875,P15,D00,0,0,0
529,0.36,1645184364.9375,P15,D00,0,0,0
530,0.73,1645184364.953125,P15,D00,0,0,0
531,1.26,1645184364.96875,P15,D00,0,0,0
532,1.92,1645184364.984375,P15,D00,0,0,0
533,2.66,1645184365.0,P15,D00,0,0,0
534,3.36,1645184365.015625,P15,D00,0,0,0
535,3.9,1645184365.03125,P15,D00,0,0,0
536,4.18,1645184365.046875,P15,D00,0,0,0
537,4.13,1645184365.0625,P15,D00,0,0,0
538,3.79,1645184365.078125,P15,D00,0,0,0
539,3.29,1645184365.09375,P15,D00,0,0,0
540,2.78,1645184365.109375,P15,D00,0,0,0
541,2.38,1645184365.125,P15,D00,0,0,0
542,2.16,1645184365.140625,P15,D00,0,0,0
543,2.11,1645184365.15625,P15,D00,0,0,0
544,2.15,1645184365.171875,P15,D00,0,0,0
545,2.21,1645184365.1875,P15,D00,0,0,0
546,2.16,1645184365.203125,P15,D00,0,0,0
547,1.93,1645184365.21875,P15,D00,0,0,0
548,1.48,1645184365.234375,P15,D00,0,0,0
549,0.82,1645184365.25,P15,D00,0,0,0
550,0.1,1645184365.265625,P15,D00,0,0,0
551,-0.5,1645184365.28125,P15,D00,0,0,0
552,-0.79,1645184365.296875,P15,D00,0,0,0
553,-0.66,1645184365.3125,P15,D00,0,0,0
554,-0.16,1645184365.328125,P15,D00,0,0,0
555,0.48,1645184365.34375,P15,D00,0,0,0
556,0.97,1645184365.359375,P15,D00,0,0,0
557,1.05,1645184365.375,P15,D00,0,0,0
558,0.63,1645184365.390625,P15,D00,0,0,0
559,-0.19,1645184365.40625,P15,D00,0,0,0
560,-1.15,1645184365.421875,P15,D00,0,0,0
561,-1.98,1645184365.4375,P15,D00,0,0,0
562,-2.45,1645184365.453125,P15,D00,0,0,0
563,-2.52,1645184365.46875,P15,D00,0,0,0
564,-2.28,1645184365.484375,P15,D00,0,0,0
565,-1.92,1645184365.5,P15,D00,0,0,0
566,-1.61,1645184365.515625,P15,D00,0,0,0
567,-1.45,1645184365.53125,P15,D00,0,0,0
568,-1.43,1645184365.546875,P15,D00,0,0,0
569,-1.46,1645184365.5625,P15,D00,0,0,0
570,-1.41,1645184365.578125,P15,D00,0,0,0
571,-1.2,1645184365.59375,P15,D00,0,0,0
572,-0.86,1645184365.609375,P15,D00,0,0,0
573,-0.47,1645184365.625,P15,D00,0,0,0
574,-0.12,1645184365.640625,P15,D00,0,0,0
575,0.12,1645184365.65625,P15,D00,0,0,0
576,0.23,1645184365.671875,P15,D00,0,0,0
577,0.26,1645184365.6875,P15,D00,0,0,0
578,0.28,1645184365.703125,P15,D00,0,0,0
579,0.33,1645184365.71875,P15,D00,0,0,0
580,0.4,1645184365.734375,P15,D00,0,0,0
581,0.47,1645184365.75,P15,D00,0,0,0
582,0.5,1645184365.765625,P15,D00,0,0,0
583,0.48,1645184365.78125,P15,D00,0,0,0
584,0.42,1645184365.796875,P15,D00,0,0,0
585,0.34,1645184365.8125,P15,D00,0,0,0
586,0.25,1645184365.828125,P15,D00,0,0,0
587,0.17,1645184365.84375,P15,D00,0,0,0
588,0.09,1645184365.859375,P15,D00,0,0,0
589,0.04,1645184365.875,P15,D00,0,0,0
590,0.03,1645184365.890625,P15,D00,0,0,0
591,0.04,1645184365.90625,P15,D00,0,0,0
592,0.08,1645184365.921875,P15,D00,0,0,0
593,0.09,1645184365.9375,P15,D00,0,0,0
594,0.07,1645184365.953125,P15,D00,0,0,0
595,0.0,1645184365.96875,P15,D00,0,0,0
596,-0.09,1645184365.984375,P15,D00,0,0,0
597,-0.19,1645184366.0,P15,D00,0,0,0
598,-0.27,1645184366.015625,P15,D00,0,0,0
599,-0.31,1645184366.03125,P15,D00,0,0,0
600,-0.27,1645184366.046875,P15,D00,0,0,0
601,-0.14,1645184366.0625,P15,D00,0,0,0
602,0.07,1645184366.078125,P15,D00,0,0,0
603,0.34,1645184366.09375,P15,D00,0,0,0
604,0.61,1645184366.109375,P15,D00,0,0,0
605,0.81,1645184366.125,P15,D00,0,0,0
606,0.95,1645184366.140625,P15,D00,0,0,0
607,1.06,1645184366.15625,P15,D00,0,0,0
608,1.17,1645184366.171875,P15,D00,0,0,0
609,1.26,1645184366.1875,P15,D00,0,0,0
610,1.27,1645184366.203125,P15,D00,0,0,0
611,1.14,1645184366.21875,P15,D00,0,0,0
612,0.82,1645184366.234375,P15,D00,0,0,0
613,0.39,1645184366.25,P15,D00,0,0,0
614,0.01,1645184366.265625,P15,D00,0,0,0
615,-0.16,1645184366.28125,P15,D00,0,0,0
616,-0.08,1645184366.296875,P15,D00,0,0,0
617,0.17,1645184366.3125,P15,D00,0,0,0
618,0.44,1645184366.328125,P15,D00,0,0,0
619,0.56,1645184366.34375,P15,D00,0,0,0
620,0.45,1645184366.359375,P15,D00,0,0,0
621,0.18,1645184366.375,P15,D00,0,0,0
622,-0.14,1645184366.390625,P15,D00,0,0,0
623,-0.35,1645184366.40625,P15,D00,0,0,0
624,-0.4,1645184366.421875,P15,D00,0,0,0
625,-0.31,1645184366.4375,P15,D00,0,0,0
626,-0.13,1645184366.453125,P15,D00,0,0,0
627,0.06,1645184366.46875,P15,D00,0,0,0
628,0.23,1645184366.484375,P15,D00,0,0,0
629,0.38,1645184366.5,P15,D00,0,0,0
630,0.52,1645184366.515625,P15,D00,0,0,0
631,0.64,1645184366.53125,P15,D00,0,0,0
632,0.72,1645184366.546875,P15,D00,0,0,0
633,0.73,1645184366.5625,P15,D00,0,0,0
634,0.63,1645184366.578125,P15,D00,0,0,0
635,0.4,1645184366.59375,P15,D00,0,0,0
636,0.08,1645184366.609375,P15,D00,0,0,0
637,-0.27,1645184366.625,P15,D00,0,0,0
638,-0.61,1645184366.640625,P15,D00,0,0,0
639,-0.89,1645184366.65625,P15,D00,0,0,0
640,-1.08,1645184366.671875,P15,D00,0,0,0
641,-1.16,1645184366.6875,P15,D00,0,0,0
642,-1.1,1645184366.703125,P15,D00,0,0,0
643,-0.85,1645184366.71875,P15,D00,0,0,0
644,-0.42,1645184366.734375,P15,D00,0,0,0
645,0.16,1645184366.75,P15,D00,0,0,0
646,0.77,1645184366.765625,P15,D00,0,0,0
647,1.26,1645184366.78125,P15,D00,0,0,0
648,1.5,1645184366.796875,P15,D00,0,0,0
649,1.4,1645184366.8125,P15,D00,0,0,0
650,1.02,1645184366.828125,P15,D00,0,0,0
651,0.53,1645184366.84375,P15,D00,0,0,0
652,0.1,1645184366.859375,P15,D00,0,0,0
653,-0.09,1645184366.875,P15,D00,0,0,0
654,-0.03,1645184366.890625,P15,D00,0,0,0
655,0.21,1645184366.90625,P15,D00,0,0,0
656,0.48,1645184366.921875,P15,D00,0,0,0
657,0.65,1645184366.9375,P15,D00,0,0,0
658,0.64,1645184366.953125,P15,D00,0,0,0
659,0.5,1645184366.96875,P15,D00,0,0,0
660,0.3,1645184366.984375,P15,D00,0,0,0
661,0.13,1645184367.0,P15,D00,0,0,0
662,0.07,1645184367.015625,P15,D00,0,0,0
663,0.12,1645184367.03125,P15,D00,0,0,0
664,0.25,1645184367.046875,P15,D00,0,0,0
665,0.43,1645184367.0625,P15,D00,0,0,0
666,0.6,1645184367.078125,P15,D00,0,0,0
667,0.67,1645184367.09375,P15,D00,0,0,0
668,0.58,1645184367.109375,P15,D00,0,0,0
669,0.28,1645184367.125,P15,D00,0,0,0
670,-0.21,1645184367.140625,P15,D00,0,0,0
671,-0.79,1645184367.15625,P15,D00,0,0,0
672,-1.31,1645184367.171875,P15,D00,0,0,0
673,-1.64,1645184367.1875,P15,D00,0,0,0
674,-1.68,1645184367.203125,P15,D00,0,0,0
675,-1.47,1645184367.21875,P15,D00,0,0,0
676,-1.13,1645184367.234375,P15,D00,0,0,0
677,-0.81,1645184367.25,P15,D00,0,0,0
678,-0.59,1645184367.265625,P15,D00,0,0,0
679,-0.47,1645184367.28125,P15,D00,0,0,0
680,-0.41,1645184367.296875,P15,D00,0,0,0
681,-0.34,1645184367.3125,P15,D00,0,0,0
682,-0.25,1645184367.328125,P15,D00,0,0,0
683,-0.15,1645184367.34375,P15,D00,0,0,0
684,-0.05,1645184367.359375,P15,D00,0,0,0
685,0.08,1645184367.375,P15,D00,0,0,0
686,0.27,1645184367.390625,P15,D00,0,0,0
687,0.51,1645184367.40625,P15,D00,0,0,0
688,0.76,1645184367.421875,P15,D00,0,0,0
689,0.92,1645184367.4375,P15,D00,0,0,0
690,0.93,1645184367.453125,P15,D00,0,0,0
691,0.77,1645184367.46875,P15,D00,0,0,0
692,0.49,1645184367.484375,P15,D00,0,0,0
693,0.21,1645184367.5,P15,D00,0,0,0
694,0.02,1645184367.515625,P15,D00,0,0,0
695,-0.07,1645184367.53125,P15,D00,0,0,0
696,-0.07,1645184367.546875,P15,D00,0,0,0
697,-0.05,1645184367.5625,P15,D00,0,0,0
698,-0.06,1645184367.578125,P15,D00,0,0,0
699,-0.09,1645184367.59375,P15,D00,0,0,0
700,-0.14,1645184367.609375,P15,D00,0,0,0
701,-0.16,1645184367.625,P15,D00,0,0,0
702,-0.13,1645184367.640625,P15,D00,0,0,0
703,-0.03,1645184367.65625,P15,D00,0,0,0
704,0.13,1645184367.671875,P15,D00,0,0,0
705,0.32,1645184367.6875,P15,D00,0,0,0
706,0.49,1645184367.703125,P15,D00,0,0,0
707,0.57,1645184367.71875,P15,D00,0,0,0
708,0.49,1645184367.734375,P15,D00,0,0,0
709,0.23,1645184367.75,P15,D00,0,0,0
710,-0.21,1645184367.765625,P15,D00,0,0,0
711,-0.76,1645184367.78125,P15,D00,0,0,0
712,-1.3,1645184367.796875,P15,D00,0,0,0
713,-1.72,1645184367.8125,P15,D00,0,0,0
714,-1.94,1645184367.828125,P15,D00,0,0,0
715,-1.98,1645184367.84375,P15,D00,0,0,0
716,-1.89,1645184367.859375,P15,D00,0,0,0
717,-1.76,1645184367.875,P15,D00,0,0,0
718,-1.68,1645184367.890625,P15,D00,0,0,0
719,-1.65,1645184367.90625,P15,D00,0,0,0
720,-1.67,1645184367.921875,P15,D00,0,0,0
721,-1.67,1645184367.9375,P15,D00,0,0,0
722,-1.58,1645184367.953125,P15,D00,0,0,0
723,-1.38,1645184367.96875,P15,D00,0,0,0
724,-1.08,1645184367.984375,P15,D00,0,0,0
725,-0.74,1645184368.0,P15,D00,0,0,0
726,-0.42,1645184368.015625,P15,D00,0,0,0
727,-0.21,1645184368.03125,P15,D00,0,0,0
728,-0.13,1645184368.046875,P15,D00,0,0,0
729,-0.16,1645184368.0625,P15,D00,0,0,0
730,-0.23,1645184368.078125,P15,D00,0,0,0
731,-0.27,1645184368.09375,P15,D00,0,0,0
732,-0.23,1645184368.109375,P15,D00,0,0,0
733,-0.11,1645184368.125,P15,D00,0,0,0
734,0.06,1645184368.140625,P15,D00,0,0,0
735,0.22,1645184368.15625,P15,D00,0,0,0
736,0.31,1645184368.171875,P15,D00,0,0,0
737,0.34,1645184368.1875,P15,D00,0,0,0
738,0.33,1645184368.203125,P15,D00,0,0,0
739,0.31,1645184368.21875,P15,D00,0,0,0
740,0.3,1645184368.234375,P15,D00,0,0,0
741,0.32,1645184368.25,P15,D00,0,0,0
742,0.35,1645184368.265625,P15,D00,0,0,0
743,0.4,1645184368.28125,P15,D00,0,0,0
744,0.47,1645184368.296875,P15,D00,0,0,0
745,0.58,1645184368.3125,P15,D00,0,0,0
746,0.77,1645184368.328125,P15,D00,0,0,0
747,1.07,1645184368.34375,P15,D00,0,0,0
748,1.45,1645184368.359375,P15,D00,0,0,0
749,1.85,1645184368.375,P15,D00,0,0,0
750,2.17,1645184368.390625,P15,D00,0,0,0
751,2.31,1645184368.40625,P15,D00,0,0,0
752,2.23,1645184368.421875,P15,D00,0,0,0
753,1.92,1645184368.4375,P15,D00,0,0,0
754,1.45,1645184368.453125,P15,D00,0,0,0
755,0.91,1645184368.46875,P15,D00,0,0,0
756,0.38,1645184368.484375,P15,D00,0,0,0
757,-0.06,1645184368.5,P15,D00,0,0,0
758,-0.41,1645184368.515625,P15,D00,0,0,0
759,-0.7,1645184368.53125,P15,D00,0,0,0
760,-0.93,1645184368.546875,P15,D00,0,0,0
761,-1.09,1645184368.5625,P15,D00,0,0,0
762,-1.13,1645184368.578125,P15,D00,0,0,0
763,-1.01,1645184368.59375,P15,D00,0,0,0
764,-0.73,1645184368.609375,P15,D00,0,0,0
765,-0.35,1645184368.625,P15,D00,0,0,0
766,0.0,1645184368.640625,P15,D00,0,0,0
767,0.22,1645184368.65625,P15,D00,0,0,0
768,0.27,1645184368.671875,P15,D00,0,0,0
769,0.18,1645184368.6875,P15,D00,0,0,0
770,0.09,1645184368.703125,P15,D00,0,0,0
771,0.09,1645184368.71875,P15,D00,0,0,0
772,0.2,1645184368.734375,P15,D00,0,0,0
773,0.36,1645184368.75,P15,D00,0,0,0
774,0.46,1645184368.765625,P15,D00,0,0,0
775,0.43,1645184368.78125,P15,D00,0,0,0
776,0.27,1645184368.796875,P15,D00,0,0,0
777,0.09,1645184368.8125,P15,D00,0,0,0
778,0.02,1645184368.828125,P15,D00,0,0,0
779,0.11,1645184368.84375,P15,D00,0,0,0
780,0.3,1645184368.859375,P15,D00,0,0,0
781,0.44,1645184368.875,P15,D00,0,0,0
782,0.4,1645184368.890625,P15,D00,0,0,0
783,0.12,1645184368.90625,P15,D00,0,0,0
784,-0.3,1645184368.921875,P15,D00,0,0,0
785,-0.7,1645184368.9375,P15,D00,0,0,0
786,-0.94,1645184368.953125,P15,D00,0,0,0
787,-0.95,1645184368.96875,P15,D00,0,0,0
788,-0.8,1645184368.984375,P15,D00,0,0,0
789,-0.58,1645184369.0,P15,D00,0,0,0
790,-0.4,1645184369.015625,P15,D00,0,0,0
791,-0.25,1645184369.03125,P15,D00,0,0,0
792,-0.09,1645184369.046875,P15,D00,0,0,0
793,0.09,1645184369.0625,P15,D00,0,0,0
794,0.29,1645184369.078125,P15,D00,0,0,0
795,0.44,1645184369.09375,P15,D00,0,0,0
796,0.51,1645184369.109375,P15,D00,0,0,0
797,0.5,1645184369.125,P15,D00,0,0,0
798,0.49,1645184369.140625,P15,D00,0,0,0
799,0.53,1645184369.15625,P15,D00,0,0,0
800,0.63,1645184369.171875,P15,D00,0,0,0
801,0.72,1645184369.1875,P15,D00,0,0,0
802,0.68,1645184369.203125,P15,D00,0,0,0
803,0.43,1645184369.21875,P15,D00,0,0,0
804,-0.03,1645184369.234375,P15,D00,0,0,0
805,-0.56,1645184369.25,P15,D00,0,0,0
806,-1.0,1645184369.265625,P15,D00,0,0,0
807,-1.19,1645184369.28125,P15,D00,0,0,0
808,-1.04,1645184369.296875,P15,D00,0,0,0
809,-0.61,1645184369.3125,P15,D00,0,0,0
810,-0.02,1645184369.328125,P15,D00,0,0,0
811,0.54,1645184369.34375,P15,D00,0,0,0
812,0.9,1645184369.359375,P15,D00,0,0,0
813,0.98,1645184369.375,P15,D00,0,0,0
814,0.77,1645184369.390625,P15,D00,0,0,0
815,0.37,1645184369.40625,P15,D00,0,0,0
816,-0.04,1645184369.421875,P15,D00,0,0,0
817,-0.31,1645184369.4375,P15,D00,0,0,0
818,-0.36,1645184369.453125,P15,D00,0,0,0
819,-0.2,1645184369.46875,P15,D00,0,0,0
820,0.05,1645184369.484375,P15,D00,0,0,0
821,0.29,1645184369.5,P15,D00,0,0,0
822,0.45,1645184369.515625,P15,D00,0,0,0
823,0.49,1645184369.53125,P15,D00,0,0,0
824,0.41,1645184369.546875,P15,D00,0,0,0
825,0.24,1645184369.5625,P15,D00,0,0,0
826,0.01,1645184369.578125,P15,D00,0,0,0
827,-0.24,1645184369.59375,P15,D00,0,0,0
828,-0.42,1645184369.609375,P15,D00,0,0,0
829,-0.47,1645184369.625,P15,D00,0,0,0
830,-0.32,1645184369.640625,P15,D00,0,0,0
831,0.01,1645184369.65625,P15,D00,0,0,0
832,0.45,1645184369.671875,P15,D00,0,0,0
833,0.83,1645184369.6875,P15,D00,0,0,0
834,1.04,1645184369.703125,P15,D00,0,0,0
835,1.0,1645184369.71875,P15,D00,0,0,0
836,0.73,1645184369.734375,P15,D00,0,0,0
837,0.36,1645184369.75,P15,D00,0,0,0
838,0.0,1645184369.765625,P15,D00,0,0,0
839,-0.22,1645184369.78125,P15,D00,0,0,0
840,-0.29,1645184369.796875,P15,D00,0,0,0
841,-0.24,1645184369.8125,P15,D00,0,0,0
842,-0.15,1645184369.828125,P15,D00,0,0,0
843,-0.09,1645184369.84375,P15,D00,0,0,0
844,-0.15,1645184369.859375,P15,D00,0,0,0
845,-0.37,1645184369.875,P15,D00,0,0,0
846,-0.72,1645184369.890625,P15,D00,0,0,0
847,-1.15,1645184369.90625,P15,D00,0,0,0
848,-1.54,1645184369.921875,P15,D00,0,0,0
849,-1.74,1645184369.9375,P15,D00,0,0,0
850,-1.66,1645184369.953125,P15,D00,0,0,0
851,-1.27,1645184369.96875,P15,D00,0,0,0
852,-0.69,1645184369.984375,P15,D00,0,0,0
853,-0.12,1645184370.0,P15,D00,0,0,0
854,0.23,1645184370.015625,P15,D00,0,0,0
855,0.25,1645184370.03125,P15,D00,0,0,0
856,-0.02,1645184370.046875,P15,D00,0,0,0
857,-0.39,1645184370.0625,P15,D00,0,0,0
858,-0.69,1645184370.078125,P15,D00,0,0,0
859,-0.79,1645184370.09375,P15,D00,0,0,0
860,-0.7,1645184370.109375,P15,D00,0,0,0
861,-0.51,1645184370.125,P15,D00,0,0,0
862,-0.34,1645184370.140625,P15,D00,0,0,0
863,-0.23,1645184370.15625,P15,D00,0,0,0
864,-0.15,1645184370.171875,P15,D00,0,0,0
865,-0.04,1645184370.1875,P15,D00,0,0,0
866,0.14,1645184370.203125,P15,D00,0,0,0
867,0.37,1645184370.21875,P15,D00,0,0,0
868,0.61,1645184370.234375,P15,D00,0,0,0
869,0.79,1645184370.25,P15,D00,0,0,0
870,0.87,1645184370.265625,P15,D00,0,0,0
871,0.87,1645184370.28125,P15,D00,0,0,0
872,0.81,1645184370.296875,P15,D00,0,0,0
873,0.72,1645184370.3125,P15,D00,0,0,0
874,0.62,1645184370.328125,P15,D00,0,0,0
875,0.54,1645184370.34375,P15,D00,0,0,0
876,0.49,1645184370.359375,P15,D00,0,0,0
877,0.52,1645184370.375,P15,D00,0,0,0
878,0.66,1645184370.390625,P15,D00,0,0,0
879,0.93,1645184370.40625,P15,D00,0,0,0
880,1.27,1645184370.421875,P15,D00,0,0,0
881,1.6,1645184370.4375,P15,D00,0,0,0
882,1.81,1645184370.453125,P15,D00,0,0,0
883,1.84,1645184370.46875,P15,D00,0,0,0
884,1.72,1645184370.484375,P15,D00,0,0,0
885,1.53,1645184370.5,P15,D00,0,0,0
886,1.4,1645184370.515625,P15,D00,0,0,0
887,1.35,1645184370.53125,P15,D00,0,0,0
888,1.32,1645184370.546875,P15,D00,0,0,0
889,1.2,1645184370.5625,P15,D00,0,0,0
890,0.91,1645184370.578125,P15,D00,0,0,0
891,0.5,1645184370.59375,P15,D00,0,0,0
892,0.09,1645184370.609375,P15,D00,0,0,0
893,-0.15,1645184370.625,P15,D00,0,0,0
894,-0.14,1645184370.640625,P15,D00,0,0,0
895,0.07,1645184370.65625,P15,D00,0,0,0
896,0.33,1645184370.671875,P15,D00,0,0,0
897,0.5,1645184370.6875,P15,D00,0,0,0
898,0.51,1645184370.703125,P15,D00,0,0,0
899,0.41,1645184370.71875,P15,D00,0,0,0
900,0.31,1645184370.734375,P15,D00,0,0,0
901,0.29,1645184370.75,P15,D00,0,0,0
902,0.35,1645184370.765625,P15,D00,0,0,0
903,0.37,1645184370.78125,P15,D00,0,0,0
904,0.25,1645184370.796875,P15,D00,0,0,0
905,-0.09,1645184370.8125,P15,D00,0,0,0
906,-0.6,1645184370.828125,P15,D00,0,0,0
907,-1.13,1645184370.84375,P15,D00,0,0,0
908,-1.52,1645184370.859375,P15,D00,0,0,0
909,-1.65,1645184370.875,P15,D00,0,0,0
910,-1.49,1645184370.890625,P15,D00,0,0,0
911,-1.13,1645184370.90625,P15,D00,0,0,0
912,-0.74,1645184370.921875,P15,D00,0,0,0
913,-0.47,1645184370.9375,P15,D00,0,0,0
914,-0.45,1645184370.953125,P15,D00,0,0,0
915,-0.7,1645184370.96875,P15,D00,0,0,0
916,-1.13,1645184370.984375,P15,D00,0,0,0
917,-1.58,1645184371.0,P15,D00,0,0,0
918,-1.9,1645184371.015625,P15,D00,0,0,0
919,-1.96,1645184371.03125,P15,D00,0,0,0
920,-1.77,1645184371.046875,P15,D00,0,0,0
921,-1.37,1645184371.0625,P15,D00,0,0,0
922,-0.9,1645184371.078125,P15,D00,0,0,0
923,-0.47,1645184371.09375,P15,D00,0,0,0
924,-0.16,1645184371.109375,P15,D00,0,0,0
925,0.01,1645184371.125,P15,D00,0,0,0
926,0.12,1645184371.140625,P15,D00,0,0,0
927,0.22,1645184371.15625,P15,D00,0,0,0
928,0.39,1645184371.171875,P15,D00,0,0,0
929,0.6,1645184371.1875,P15,D00,0,0,0
930,0.82,1645184371.203125,P15,D00,0,0,0
931,0.93,1645184371.21875,P15,D00,0,0,0
932,0.84,1645184371.234375,P15,D00,0,0,0
933,0.49,1645184371.25,P15,D00,0,0,0
934,-0.06,1645184371.265625,P15,D00,0,0,0
935,-0.67,1645184371.28125,P15,D00,0,0,0
936,-1.12,1645184371.296875,P15,D00,0,0,0
937,-1.24,1645184371.3125,P15,D00,0,0,0
938,-1.01,1645184371.328125,P15,D00,0,0,0
939,-0.56,1645184371.34375,P15,D00,0,0,0
940,-0.08,1645184371.359375,P15,D00,0,0,0
941,0.24,1645184371.375,P15,D00,0,0,0
942,0.35,1645184371.390625,P15,D00,0,0,0
943,0.33,1645184371.40625,P15,D00,0,0,0
944,0.33,1645184371.421875,P15,D00,0,0,0
945,0.44,1645184371.4375,P15,D00,0,0,0
946,0.65,1645184371.453125,P15,D00,0,0,0
947,0.86,1645184371.46875,P15,D00,0,0,0
948,0.94,1645184371.484375,P15,D00,0,0,0
949,0.84,1645184371.5,P15,D00,0,0,0
950,0.61,1645184371.515625,P15,D00,0,0,0
951,0.37,1645184371.53125,P15,D00,0,0,0
952,0.2,1645184371.546875,P15,D00,0,0,0
953,0.16,1645184371.5625,P15,D00,0,0,0
954,0.21,1645184371.578125,P15,D00,0,0,0
955,0.26,1645184371.59375,P15,D00,0,0,0
956,0.25,1645184371.609375,P15,D00,0,0,0
957,0.13,1645184371.625,P15,D00,0,0,0
958,-0.09,1645184371.640625,P15,D00,0,0,0
959,-0.37,1645184371.65625,P15,D00,0,0,0
960,-0.61,1645184371.671875,P15,D00,0,0,0
961,-0.75,1645184371.6875,P15,D00,0,0,0
962,-0.77,1645184371.703125,P15,D00,0,0,0
963,-0.75,1645184371.71875,P15,D00,0,0,0
964,-0.75,1645184371.734375,P15,D00,0,0,0
965,-0.83,1645184371.75,P15,D00,0,0,0
966,-0.97,1645184371.765625,P15,D00,0,0,0
967,-1.1,1645184371.78125,P15,D00,0,0,0
968,-1.15,1645184371.796875,P15,D00,0,0,0
969,-1.12,1645184371.8125,P15,D00,0,0,0
970,-1.08,1645184371.828125,P15,D00,0,0,0
971,-1.1,1645184371.84375,P15,D00,0,0,0
972,-1.23,1645184371.859375,P15,D00,0,0,0
973,-1.39,1645184371.875,P15,D00,0,0,0
974,-1.46,1645184371.890625,P15,D00,0,0,0
975,-1.34,1645184371.90625,P15,D00,0,0,0
976,-1.01,1645184371.921875,P15,D00,0,0,0
977,-0.56,1645184371.9375,P15,D00,0,0,0
978,-0.16,1645184371.953125,P15,D00,0,0,0
979,0.08,1645184371.96875,P15,D00,0,0,0
980,0.1,1645184371.984375,P15,D00,0,0,0
981,-0.04,1645184372.0,P15,D00,0,0,0
982,-0.28,1645184372.015625,P15,D00,0,0,0
983,-0.57,1645184372.03125,P15,D00,0,0,0
984,-0.89,1645184372.046875,P15,D00,0,0,0
985,-1.25,1645184372.0625,P15,D00,0,0,0
986,-1.62,1645184372.078125,P15,D00,0,0,0
987,-1.94,1645184372.09375,P15,D00,0,0,0
988,-2.14,1645184372.109375,P15,D00,0,0,0
989,-2.14,1645184372.125,P15,D00,0,0,0
990,-1.92,1645184372.140625,P15,D00,0,0,0
991,-1.55,1645184372.15625,P15,D00,0,0,0
992,-1.11,1645184372.171875,P15,D00,0,0,0
993,-0.7,1645184372.1875,P15,D00,0,0,0
994,-0.4,1645184372.203125,P15,D00,0,0,0
995,-0.2,1645184372.21875,P15,D00,0,0,0
996,-0.06,1645184372.234375,P15,D00,0,0,0
997,0.08,1645184372.25,P15,D00,0,0,0
998,0.25,1645184372.265625,P15,D00,0,0,0
999,0.43,1645184372.28125,P15,D00,0,0,0
1000,0.6,1645184372.296875,P15,D00,0,0,0
1001,0.75,1645184372.3125,P15,D00,0,0,0
1002,0.88,1645184372.328125,P15,D00,0,0,0
1003,1.03,1645184372.34375,P15,D00,0,0,0
1004,1.21,1645184372.359375,P15,D00,0,0,0
1005,1.36,1645184372.375,P15,D00,0,0,0
1006,1.43,1645184372.390625,P15,D00,0,0,0
1007,1.33,1645184372.40625,P15,D00,0,0,0
1008,1.05,1645184372.421875,P15,D00,0,0,0
1009,0.62,1645184372.4375,P15,D00,0,0,0
1010,0.12,1645184372.453125,P15,D00,0,0,0
1011,-0.35,1645184372.46875,P15,D00,0,0,0
1012,-0.69,1645184372.484375,P15,D00,0,0,0
1013,-0.84,1645184372.5,P15,D00,0,0,0
1014,-0.75,1645184372.515625,P15,D00,0,0,0
1015,-0.44,1645184372.53125,P15,D00,0,0,0
1016,0.04,1645184372.546875,P15,D00,0,0,0
1017,0.58,1645184372.5625,P15,D00,0,0,0
1018,1.09,1645184372.578125,P15,D00,0,0,0
1019,1.51,1645184372.59375,P15,D00,0,0,0
1020,1.86,1645184372.609375,P15,D00,0,0,0
1021,2.16,1645184372.625,P15,D00,0,0,0
1022,2.41,1645184372.640625,P15,D00,0,0,0
1023,2.53,1645184372.65625,P15,D00,0,0,0
1024,2.42,1645184372.671875,P15,D00,0,0,0
1025,2.0,1645184372.6875,P15,D00,0,0,0
1026,1.29,1645184372.703125,P15,D00,0,0,0
1027,0.43,1645184372.71875,P15,D00,0,0,0
1028,-0.34,1645184372.734375,P15,D00,0,0,0
1029,-0.81,1645184372.75,P15,D00,0,0,0
1030,-0.88,1645184372.765625,P15,D00,0,0,0
1031,-0.6,1645184372.78125,P15,D00,0,0,0
1032,-0.16,1645184372.796875,P15,D00,0,0,0
1033,0.21,1645184372.8125,P15,D00,0,0,0
1034,0.37,1645184372.828125,P15,D00,0,0,0
1035,0.25,1645184372.84375,P15,D00,0,0,0
1036,-0.06,1645184372.859375,P15,D00,0,0,0
1037,-0.4,1645184372.875,P15,D00,0,0,0
1038,-0.6,1645184372.890625,P15,D00,0,0,0
1039,-0.56,1645184372.90625,P15,D00,0,0,0
1040,-0.28,1645184372.921875,P15,D00,0,0,0
1041,0.15,1645184372.9375,P15,D00,0,0,0
1042,0.57,1645184372.953125,P15,D00,0,0,0
1043,0.84,1645184372.96875,P15,D00,0,0,0
1044,0.89,1645184372.984375,P15,D00,0,0,0
1045,0.72,1645184373.0,P15,D00,0,0,0
1046,0.4,1645184373.015625,P15,D00,0,0,0
1047,0.04,1645184373.03125,P15,D00,0,0,0
1048,-0.3,1645184373.046875,P15,D00,0,0,0
1049,-0.54,1645184373.0625,P15,D00,0,0,0
1050,-0.64,1645184373.078125,P15,D00,0,0,0
1051,-0.56,1645184373.09375,P15,D00,0,0,0
1052,-0.3,1645184373.109375,P15,D00,0,0,0
1053,0.11,1645184373.125,P15,D00,0,0,0
1054,0.61,1645184373.140625,P15,D00,0,0,0
1055,1.09,1645184373.15625,P15,D00,0,0,0
1056,1.42,1645184373.171875,P15,D00,0,0,0
1057,1.53,1645184373.1875,P15,D00,0,0,0
1058,1.39,1645184373.203125,P15,D00,0,0,0
1059,1.09,1645184373.21875,P15,D00,0,0,0
1060,0.77,1645184373.234375,P15,D00,0,0,0
1061,0.52,1645184373.25,P15,D00,0,0,0
1062,0.39,1645184373.265625,P15,D00,0,0,0
1063,0.36,1645184373.28125,P15,D00,0,0,0
1064,0.37,1645184373.296875,P15,D00,0,0,0
1065,0.37,1645184373.3125,P15,D00,0,0,0
1066,0.37,1645184373.328125,P15,D00,0,0,0
1067,0.38,1645184373.34375,P15,D00,0,0,0
1068,0.46,1645184373.359375,P15,D00,0,0,0
1069,0.61,1645184373.375,P15,D00,0,0,0
1070,0.82,1645184373.390625,P15,D00,0,0,0
1071,1.05,1645184373.40625,P15,D00,0,0,0
1072,1.26,1645184373.421875,P15,D00,0,0,0
1073,1.38,1645184373.4375,P15,D00,0,0,0
1074,1.39,1645184373.453125,P15,D00,0,0,0
1075,1.23,1645184373.46875,P15,D00,0,0,0
1076,0.89,1645184373.484375,P15,D00,0,0,0
1077,0.42,1645184373.5,P15,D00,0,0,0
1078,-0.09,1645184373.515625,P15,D00,0,0,0
1079,-0.54,1645184373.53125,P15,D00,0,0,0
1080,-0.83,1645184373.546875,P15,D00,0,0,0
1081,-0.95,1645184373.5625,P15,D00,0,0,0
1082,-0.96,1645184373.578125,P15,D00,0,0,0
1083,-0.95,1645184373.59375,P15,D00,0,0,0
1084,-0.96,1645184373.609375,P15,D00,0,0,0
1085,-0.99,1645184373.625,P15,D00,0,0,0
1086,-1.02,1645184373.640625,P15,D00,0,0,0
1087,-1.0,1645184373.65625,P15,D00,0,0,0
1088,-0.94,1645184373.671875,P15,D00,0,0,0
1089,-0.89,1645184373.6875,P15,D00,0,0,0
1090,-0.9,1645184373.703125,P15,D00,0,0,0
1091,-0.98,1645184373.71875,P15,D00,0,0,0
1092,-1.08,1645184373.734375,P15,D00,0,0,0
1093,-1.09,1645184373.75,P15,D00,0,0,0
1094,-0.94,1645184373.765625,P15,D00,0,0,0
1095,-0.61,1645184373.78125,P15,D00,0,0,0
1096,-0.15,1645184373.796875,P15,D00,0,0,0
1097,0.31,1645184373.8125,P15,D00,0,0,0
1098,0.65,1645184373.828125,P15,D00,0,0,0
1099,0.81,1645184373.84375,P15,D00,0,0,0
1100,0.78,1645184373.859375,P15,D00,0,0,0
1101,0.61,1645184373.875,P15,D00,0,0,0
1102,0.39,1645184373.890625,P15,D00,0,0,0
1103,0.2,1645184373.90625,P15,D00,0,0,0
1104,0.1,1645184373.921875,P15,D00,0,0,0
1105,0.1,1645184373.9375,P15,D00,0,0,0
1106,0.16,1645184373.953125,P15,D00,0,0,0
1107,0.24,1645184373.96875,P15,D00,0,0,0
1108,0.32,1645184373.984375,P15,D00,0,0,0
1109,0.38,1645184374.0,P15,D00,0,0,0
1110,0.44,1645184374.015625,P15,D00,0,0,0
1111,0.48,1645184374.03125,P15,D00,0,0,0
1112,0.5,1645184374.046875,P15,D00,0,0,0
1113,0.46,1645184374.0625,P15,D00,0,0,0
1114,0.37,1645184374.078125,P15,D00,0,0,0
1115,0.27,1645184374.09375,P15,D00,0,0,0
1116,0.24,1645184374.109375,P15,D00,0,0,0
1117,0.34,1645184374.125,P15,D00,0,0,0
1118,0.58,1645184374.140625,P15,D00,0,0,0
1119,0.88,1645184374.15625,P15,D00,0,0,0
1120,1.1,1645184374.171875,P15,D00,0,0,0
1121,1.11,1645184374.1875,P15,D00,0,0,0
1122,0.87,1645184374.203125,P15,D00,0,0,0
1123,0.41,1645184374.21875,P15,D00,0,0,0
1124,-0.14,1645184374.234375,P15,D00,0,0,0
1125,-0.64,1645184374.25,P15,D00,0,0,0
1126,-1.0,1645184374.265625,P15,D00,0,0,0
1127,-1.18,1645184374.28125,P15,D00,0,0,0
1128,-1.18,1645184374.296875,P15,D00,0,0,0
1129,-0.97,1645184374.3125,P15,D00,0,0,0
1130,-0.55,1645184374.328125,P15,D00,0,0,0
1131,0.03,1645184374.34375,P15,D00,0,0,0
1132,0.65,1645184374.359375,P15,D00,0,0,0
1133,1.14,1645184374.375,P15,D00,0,0,0
1134,1.37,1645184374.390625,P15,D00,0,0,0
1135,1.3,1645184374.40625,P15,D00,0,0,0
1136,1.05,1645184374.421875,P15,D00,0,0,0
1137,0.81,1645184374.4375,P15,D00,0,0,0
1138,0.74,1645184374.453125,P15,D00,0,0,0
1139,0.91,1645184374.46875,P15,D00,0,0,0
1140,1.21,1645184374.484375,P15,D00,0,0,0
1141,1.44,1645184374.5,P15,D00,0,0,0
1142,1.41,1645184374.515625,P15,D00,0,0,0
1143,1.08,1645184374.53125,P15,D00,0,0,0
1144,0.55,1645184374.546875,P15,D00,0,0,0
1145,0.02,1645184374.5625,P15,D00,0,0,0
1146,-0.31,1645184374.578125,P15,D00,0,0,0
1147,-0.37,1645184374.59375,P15,D00,0,0,0
1148,-0.19,1645184374.609375,P15,D00,0,0,0
1149,0.1,1645184374.625,P15,D00,0,0,0
1150,0.33,1645184374.640625,P15,D00,0,0,0
1151,0.43,1645184374.65625,P15,D00,0,0,0
1152,0.36,1645184374.671875,P15,D00,0,0,0
1153,0.19,1645184374.6875,P15,D00,0,0,0
1154,-0.01,1645184374.703125,P15,D00,0,0,0
1155,-0.14,1645184374.71875,P15,D00,0,0,0
1156,-0.17,1645184374.734375,P15,D00,0,0,0
1157,-0.1,1645184374.75,P15,D00,0,0,0
1158,0.04,1645184374.765625,P15,D00,0,0,0
1159,0.17,1645184374.78125,P15,D00,0,0,0
1160,0.19,1645184374.796875,P15,D00,0,0,0
1161,0.04,1645184374.8125,P15,D00,0,0,0
1162,-0.3,1645184374.828125,P15,D00,0,0,0
1163,-0.76,1645184374.84375,P15,D00,0,0,0
1164,-1.22,1645184374.859375,P15,D00,0,0,0
1165,-1.49,1645184374.875,P15,D00,0,0,0
1166,-1.46,1645184374.890625,P15,D00,0,0,0
1167,-1.11,1645184374.90625,P15,D00,0,0,0
1168,-0.57,1645184374.921875,P15,D00,0,0,0
1169,-0.0,1645184374.9375,P15,D00,0,0,0
1170,0.39,1645184374.953125,P15,D00,0,0,0
1171,0.51,1645184374.96875,P15,D00,0,0,0
1172,0.36,1645184374.984375,P15,D00,0,0,0
1173,0.08,1645184375.0,P15,D00,0,0,0
1174,-0.16,1645184375.015625,P15,D00,0,0,0
1175,-0.22,1645184375.03125,P15,D00,0,0,0
1176,-0.08,1645184375.046875,P15,D00,0,0,0
1177,0.18,1645184375.0625,P15,D00,0,0,0
1178,0.41,1645184375.078125,P15,D00,0,0,0
1179,0.47,1645184375.09375,P15,D00,0,0,0
1180,0.28,1645184375.109375,P15,D00,0,0,0
1181,-0.08,1645184375.125,P15,D00,0,0,0
1182,-0.45,1645184375.140625,P15,D00,0,0,0
1183,-0.66,1645184375.15625,P15,D00,0,0,0
1184,-0.58,1645184375.171875,P15,D00,0,0,0
1185,-0.24,1645184375.1875,P15,D00,0,0,0
1186,0.26,1645184375.203125,P15,D00,0,0,0
1187,0.76,1645184375.21875,P15,D00,0,0,0
1188,1.16,1645184375.234375,P15,D00,0,0,0
1189,1.39,1645184375.25,P15,D00,0,0,0
1190,1.47,1645184375.265625,P15,D00,0,0,0
1191,1.39,1645184375.28125,P15,D00,0,0,0
1192,1.13,1645184375.296875,P15,D00,0,0,0
1193,0.69,1645184375.3125,P15,D00,0,0,0
1194,0.11,1645184375.328125,P15,D00,0,0,0
1195,-0.55,1645184375.34375,P15,D00,0,0,0
1196,-1.16,1645184375.359375,P15,D00,0,0,0
1197,-1.65,1645184375.375,P15,D00,0,0,0
1198,-1.98,1645184375.390625,P15,D00,0,0,0
1199,-2.2,1645184375.40625,P15,D00,0,0,0
1200,-2.32,1645184375.421875,P15,D00,0,0,0
1201,-2.35,1645184375.4375,P15,D00,0,0,0
1202,-2.26,1645184375.453125,P15,D00,0,0,0
1203,-2.0,1645184375.46875,P15,D00,0,0,0
1204,-1.61,1645184375.484375,P15,D00,0,0,0
1205,-1.17,1645184375.5,P15,D00,0,0,0
1206,-0.81,1645184375.515625,P15,D00,0,0,0
1207,-0.64,1645184375.53125,P15,D00,0,0,0
1208,-0.66,1645184375.546875,P15,D00,0,0,0
1209,-0.75,1645184375.5625,P15,D00,0,0,0
1210,-0.79,1645184375.578125,P15,D00,0,0,0
1211,-0.68,1645184375.59375,P15,D00,0,0,0
1212,-0.44,1645184375.609375,P15,D00,0,0,0
1213,-0.17,1645184375.625,P15,D00,0,0,0
1214,0.03,1645184375.640625,P15,D00,0,0,0
1215,0.08,1645184375.65625,P15,D00,0,0,0
1216,-0.0,1645184375.671875,P15,D00,0,0,0
1217,-0.13,1645184375.6875,P15,D00,0,0,0
1218,-0.23,1645184375.703125,P15,D00,0,0,0
1219,-0.25,1645184375.71875,P15,D00,0,0,0
1220,-0.21,1645184375.734375,P15,D00,0,0,0
1221,-0.17,1645184375.75,P15,D00,0,0,0
1222,-0.19,1645184375.765625,P15,D00,0,0,0
1223,-0.28,1645184375.78125,P15,D00,0,0,0
1224,-0.38,1645184375.796875,P15,D00,0,0,0
1225,-0.4,1645184375.8125,P15,D00,0,0,0
1226,-0.26,1645184375.828125,P15,D00,0,0,0
1227,0.05,1645184375.84375,P15,D00,0,0,0
1228,0.46,1645184375.859375,P15,D00,0,0,0
1229,0.8,1645184375.875,P15,D00,0,0,0
1230,0.9,1645184375.890625,P15,D00,0,0,0
1231,0.65,1645184375.90625,P15,D00,0,0,0
1232,0.09,1645184375.921875,P15,D00,0,0,0
1233,-0.6,1645184375.9375,P15,D00,0,0,0
1234,-1.18,1645184375.953125,P15,D00,0,0,0
1235,-1.43,1645184375.96875,P15,D00,0,0,0
1236,-1.29,1645184375.984375,P15,D00,0,0,0
1237,-0.86,1645184376.0,P15,D00,0,0,0
1238,-0.36,1645184376.015625,P15,D00,0,0,0
1239,0.01,1645184376.03125,P15,D00,0,0,0
1240,0.19,1645184376.046875,P15,D00,0,0,0
1241,0.21,1645184376.0625,P15,D00,0,0,0
1242,0.21,1645184376.078125,P15,D00,0,0,0
1243,0.28,1645184376.09375,P15,D00,0,0,0
1244,0.39,1645184376.109375,P15,D00,0,0,0
1245,0.45,1645184376.125,P15,D00,0,0,0
1246,0.34,1645184376.140625,P15,D00,0,0,0
1247,0.04,1645184376.15625,P15,D00,0,0,0
1248,-0.38,1645184376.171875,P15,D00,0,0,0
1249,-0.79,1645184376.1875,P15,D00,0,0,0
1250,-1.04,1645184376.203125,P15,D00,0,0,0
1251,-1.09,1645184376.21875,P15,D00,0,0,0
1252,-0.94,1645184376.234375,P15,D00,0,0,0
1253,-0.69,1645184376.25,P15,D00,0,0,0
1254,-0.42,1645184376.265625,P15,D00,0,0,0
1255,-0.2,1645184376.28125,P15,D00,0,0,0
1256,-0.04,1645184376.296875,P15,D00,0,0,0
1257,0.04,1645184376.3125,P15,D00,0,0,0
1258,0.02,1645184376.328125,P15,D00,0,0,0
1259,-0.13,1645184376.34375,P15,D00,0,0,0
1260,-0.41,1645184376.359375,P15,D00,0,0,0
1261,-0.8,1645184376.375,P15,D00,0,0,0
1262,-1.19,1645184376.390625,P15,D00,0,0,0
1263,-1.45,1645184376.40625,P15,D00,0,0,0
1264,-1.48,1645184376.421875,P15,D00,0,0,0
1265,-1.28,1645184376.4375,P15,D00,0,0,0
1266,-0.93,1645184376.453125,P15,D00,0,0,0
1267,-0.58,1645184376.46875,P15,D00,0,0,0
1268,-0.36,1645184376.484375,P15,D00,0,0,0
1269,-0.29,1645184376.5,P15,D00,0,0,0
1270,-0.32,1645184376.515625,P15,D00,0,0,0
1271,-0.32,1645184376.53125,P15,D00,0,0,0
1272,-0.2,1645184376.546875,P15,D00,0,0,0
1273,0.05,1645184376.5625,P15,D00,0,0,0
1274,0.36,1645184376.578125,P15,D00,0,0,0
1275,0.65,1645184376.59375,P15,D00,0,0,0
1276,0.85,1645184376.609375,P15,D00,0,0,0
1277,0.98,1645184376.625,P15,D00,0,0,0
1278,1.1,1645184376.640625,P15,D00,0,0,0
1279,1.24,1645184376.65625,P15,D00,0,0,0
1280,1.4,1645184376.671875,P15,D00,0,0,0
1281,1.54,1645184376.6875,P15,D00,0,0,0
1282,1.65,1645184376.703125,P15,D00,0,0,0
1283,1.74,1645184376.71875,P15,D00,0,0,0
1284,1.82,1645184376.734375,P15,D00,0,0,0
1285,1.9,1645184376.75,P15,D00,0,0,0
1286,1.95,1645184376.765625,P15,D00,0,0,0
1287,1.89,1645184376.78125,P15,D00,0,0,0
1288,1.67,1645184376.796875,P15,D00,0,0,0
1289,1.25,1645184376.8125,P15,D00,0,0,0
1290,0.66,1645184376.828125,P15,D00,0,0,0
1291,-0.05,1645184376.84375,P15,D00,0,0,0
1292,-0.76,1645184376.859375,P15,D00,0,0,0
1293,-1.36,1645184376.875,P15,D00,0,0,0
1294,-1.73,1645184376.890625,P15,D00,0,0,0
1295,-1.8,1645184376.90625,P15,D00,0,0,0
1296,-1.55,1645184376.921875,P15,D00,0,0,0
1297,-1.06,1645184376.9375,P15,D00,0,0,0
1298,-0.45,1645184376.953125,P15,D00,0,0,0
1299,0.14,1645184376.96875,P15,D00,0,0,0
1300,0.61,1645184376.984375,P15,D00,0,0,0
1301,0.91,1645184377.0,P15,D00,0,0,0
1302,1.02,1645184377.015625,P15,D00,0,0,0
1303,0.95,1645184377.03125,P15,D00,0,0,0
1304,0.73,1645184377.046875,P15,D00,0,0,0
1305,0.39,1645184377.0625,P15,D00,0,0,0
1306,0.02,1645184377.078125,P15,D00,0,0,0
1307,-0.24,1645184377.09375,P15,D00,0,0,0
1308,-0.31,1645184377.109375,P15,D00,0,0,0
1309,-0.16,1645184377.125,P15,D00,0,0,0
1310,0.09,1645184377.140625,P15,D00,0,0,0
1311,0.31,1645184377.15625,P15,D00,0,0,0
1312,0.37,1645184377.171875,P15,D00,0,0,0
1313,0.22,1645184377.1875,P15,D00,0,0,0
1314,-0.05,1645184377.203125,P15,D00,0,0,0
1315,-0.31,1645184377.21875,P15,D00,0,0,0
1316,-0.43,1645184377.234375,P15,D00,0,0,0
1317,-0.36,1645184377.25,P15,D00,0,0,0
1318,-0.12,1645184377.265625,P15,D00,0,0,0
1319,0.2,1645184377.28125,P15,D00,0,0,0
1320,0.5,1645184377.296875,P15,D00,0,0,0
1321,0.71,1645184377.3125,P15,D00,0,0,0
1322,0.8,1645184377.328125,P15,D00,0,0,0
1323,0.76,1645184377.34375,P15,D00,0,0,0
1324,0.64,1645184377.359375,P15,D00,0,0,0
1325,0.45,1645184377.375,P15,D00,0,0,0
1326,0.2,1645184377.390625,P15,D00,0,0,0
1327,-0.1,1645184377.40625,P15,D00,0,0,0
1328,-0.44,1645184377.421875,P15,D00,0,0,0
1329,-0.76,1645184377.4375,P15,D00,0,0,0
1330,-1.02,1645184377.453125,P15,D00,0,0,0
1331,-1.13,1645184377.46875,P15,D00,0,0,0
1332,-1.06,1645184377.484375,P15,D00,0,0,0
1333,-0.81,1645184377.5,P15,D00,0,0,0
1334,-0.45,1645184377.515625,P15,D00,0,0,0
1335,-0.05,1645184377.53125,P15,D00,0,0,0
1336,0.28,1645184377.546875,P15,D00,0,0,0
1337,0.49,1645184377.5625,P15,D00,0,0,0
1338,0.51,1645184377.578125,P15,D00,0,0,0
1339,0.35,1645184377.59375,P15,D00,0,0,0
1340,0.04,1645184377.609375,P15,D00,0,0,0
1341,-0.34,1645184377.625,P15,D00,0,0,0
1342,-0.69,1645184377.640625,P15,D00,0,0,0
1343,-0.89,1645184377.65625,P15,D00,0,0,0
1344,-0.9,1645184377.671875,P15,D00,0,0,0
1345,-0.68,1645184377.6875,P15,D00,0,0,0
1346,-0.31,1645184377.703125,P15,D00,0,0,0
1347,0.14,1645184377.71875,P15,D00,0,0,0
1348,0.54,1645184377.734375,P15,D00,0,0,0
1349,0.83,1645184377.75,P15,D00,0,0,0
1350,0.96,1645184377.765625,P15,D00,0,0,0
1351,0.94,1645184377.78125,P15,D00,0,0,0
1352,0.8,1645184377.796875,P15,D00,0,0,0
1353,0.57,1645184377.8125,P15,D00,0,0,0
1354,0.31,1645184377.828125,P15,D00,0,0,0
1355,0.07,1645184377.84375,P15,D00,0,0,0
1356,-0.09,1645184377.859375,P15,D00,0,0,0
1357,-0.13,1645184377.875,P15,D00,0,0,0
1358,-0.03,1645184377.890625,P15,D00,0,0,0
1359,0.17,1645184377.90625,P15,D00,0,0,0
1360,0.35,1645184377.921875,P15,D00,0,0,0
1361,0.42,1645184377.9375,P15,D00,0,0,0
1362,0.32,1645184377.953125,P15,D00,0,0,0
1363,0.1,1645184377.96875,P15,D00,0,0,0
1364,-0.14,1645184377.984375,P15,D00,0,0,0
1365,-0.26,1645184378.0,P15,D00,0,0,0
1366,-0.2,1645184378.015625,P15,D00,0,0,0
1367,0.01,1645184378.03125,P15,D00,0,0,0
1368,0.24,1645184378.046875,P15,D00,0,0,0
1369,0.39,1645184378.0625,P15,D00,0,0,0
1370,0.41,1645184378.078125,P15,D00,0,0,0
1371,0.35,1645184378.09375,P15,D00,0,0,0
1372,0.29,1645184378.109375,P15,D00,0,0,0
1373,0.3,1645184378.125,P15,D00,0,0,0
1374,0.35,1645184378.140625,P15,D00,0,0,0
1375,0.38,1645184378.15625,P15,D00,0,0,0
1376,0.32,1645184378.171875,P15,D00,0,0,0
1377,0.14,1645184378.1875,P15,D00,0,0,0
1378,-0.1,1645184378.203125,P15,D00,0,0,0
1379,-0.31,1645184378.21875,P15,D00,0,0,0
1380,-0.38,1645184378.234375,P15,D00,0,0,0
1381,-0.27,1645184378.25,P15,D00,0,0,0
1382,-0.02,1645184378.265625,P15,D00,0,0,0
1383,0.29,1645184378.28125,P15,D00,0,0,0
1384,0.58,1645184378.296875,P15,D00,0,0,0
1385,0.8,1645184378.3125,P15,D00,0,0,0
1386,0.94,1645184378.328125,P15,D00,0,0,0
1387,1.01,1645184378.34375,P15,D00,0,0,0
1388,1.06,1645184378.359375,P15,D00,0,0,0
1389,1.11,1645184378.375,P15,D00,0,0,0
1390,1.17,1645184378.390625,P15,D00,0,0,0
1391,1.24,1645184378.40625,P15,D00,0,0,0
1392,1.28,1645184378.421875,P15,D00,0,0,0
1393,1.27,1645184378.4375,P15,D00,0,0,0
1394,1.16,1645184378.453125,P15,D00,0,0,0
1395,0.93,1645184378.46875,P15,D00,0,0,0
1396,0.6,1645184378.484375,P15,D00,0,0,0
1397,0.22,1645184378.5,P15,D00,0,0,0
1398,-0.12,1645184378.515625,P15,D00,0,0,0
1399,-0.32,1645184378.53125,P15,D00,0,0,0
1400,-0.34,1645184378.546875,P15,D00,0,0,0
1401,-0.18,1645184378.5625,P15,D00,0,0,0
1402,0.09,1645184378.578125,P15,D00,0,0,0
1403,0.34,1645184378.59375,P15,D00,0,0,0
1404,0.48,1645184378.609375,P15,D00,0,0,0
1405,0.46,1645184378.625,P15,D00,0,0,0
1406,0.3,1645184378.640625,P15,D00,0,0,0
1407,0.1,1645184378.65625,P15,D00,0,0,0
1408,-0.07,1645184378.671875,P15,D00,0,0,0
1409,-0.15,1645184378.6875,P15,D00,0,0,0
1410,-0.15,1645184378.703125,P15,D00,0,0,0
1411,-0.11,1645184378.71875,P15,D00,0,0,0
1412,-0.1,1645184378.734375,P15,D00,0,0,0
1413,-0.13,1645184378.75,P15,D00,0,0,0
1414,-0.18,1645184378.765625,P15,D00,0,0,0
1415,-0.23,1645184378.78125,P15,D00,0,0,0
1416,-0.23,1645184378.796875,P15,D00,0,0,0
1417,-0.17,1645184378.8125,P15,D00,0,0,0
1418,-0.07,1645184378.828125,P15,D00,0,0,0
1419,0.05,1645184378.84375,P15,D00,0,0,0
1420,0.17,1645184378.859375,P15,D00,0,0,0
1421,0.29,1645184378.875,P15,D00,0,0,0
1422,0.41,1645184378.890625,P15,D00,0,0,0
1423,0.54,1645184378.90625,P15,D00,0,0,0
1424,0.71,1645184378.921875,P15,D00,0,0,0
1425,0.9,1645184378.9375,P15,D00,0,0,0
1426,1.1,1645184378.953125,P15,D00,0,0,0
1427,1.27,1645184378.96875,P15,D00,0,0,0
1428,1.39,1645184378.984375,P15,D00,0,0,0
1429,1.45,1645184379.0,P15,D00,0,0,0
1430,1.43,1645184379.015625,P15,D00,0,0,0
1431,1.35,1645184379.03125,P15,D00,0,0,0
1432,1.21,1645184379.046875,P15,D00,0,0,0
1433,1.02,1645184379.0625,P15,D00,0,0,0
1434,0.8,1645184379.078125,P15,D00,0,0,0
1435,0.6,1645184379.09375,P15,D00,0,0,0
1436,0.48,1645184379.109375,P15,D00,0,0,0
1437,0.49,1645184379.125,P15,D00,0,0,0
1438,0.63,1645184379.140625,P15,D00,0,0,0
1439,0.84,1645184379.15625,P15,D00,0,0,0
1440,1.02,1645184379.171875,P15,D00,0,0,0
1441,1.05,1645184379.1875,P15,D00,0,0,0
1442,0.86,1645184379.203125,P15,D00,0,0,0
1443,0.45,1645184379.21875,P15,D00,0,0,0
1444,-0.12,1645184379.234375,P15,D00,0,0,0
1445,-0.77,1645184379.25,P15,D00,0,0,0
1446,-1.39,1645184379.265625,P15,D00,0,0,0
1447,-1.87,1645184379.28125,P15,D00,0,0,0
1448,-2.13,1645184379.296875,P15,D00,0,0,0
1449,-2.12,1645184379.3125,P15,D00,0,0,0
1450,-1.86,1645184379.328125,P15,D00,0,0,0
1451,-1.42,1645184379.34375,P15,D00,0,0,0
1452,-0.96,1645184379.359375,P15,D00,0,0,0
1453,-0.65,1645184379.375,P15,D00,0,0,0
1454,-0.59,1645184379.390625,P15,D00,0,0,0
1455,-0.82,1645184379.40625,P15,D00,0,0,0
1456,-1.24,1645184379.421875,P15,D00,0,0,0
1457,-1.7,1645184379.4375,P15,D00,0,0,0
1458,-2.05,1645184379.453125,P15,D00,0,0,0
1459,-2.2,1645184379.46875,P15,D00,0,0,0
1460,-2.15,1645184379.484375,P15,D00,0,0,0
1461,-1.99,1645184379.5,P15,D00,0,0,0
1462,-1.77,1645184379.515625,P15,D00,0,0,0
1463,-1.51,1645184379.53125,P15,D00,0,0,0
1464,-1.15,1645184379.546875,P15,D00,0,0,0
1465,-0.66,1645184379.5625,P15,D00,0,0,0
1466,-0.07,1645184379.578125,P15,D00,0,0,0
1467,0.48,1645184379.59375,P15,D00,0,0,0
1468,0.82,1645184379.609375,P15,D00,0,0,0
1469,0.83,1645184379.625,P15,D00,0,0,0
1470,0.51,1645184379.640625,P15,D00,0,0,0
1471,0.01,1645184379.65625,P15,D00,0,0,0
1472,-0.46,1645184379.671875,P15,D00,0,0,0
1473,-0.74,1645184379.6875,P15,D00,0,0,0
1474,-0.83,1645184379.703125,P15,D00,0,0,0
1475,-0.78,1645184379.71875,P15,D00,0,0,0
1476,-0.69,1645184379.734375,P15,D00,0,0,0
1477,-0.64,1645184379.75,P15,D00,0,0,0
1478,-0.6,1645184379.765625,P15,D00,0,0,0
1479,-0.55,1645184379.78125,P15,D00,0,0,0
1480,-0.44,1645184379.796875,P15,D00,0,0,0
1481,-0.3,1645184379.8125,P15,D00,0,0,0
1482,-0.21,1645184379.828125,P15,D00,0,0,0
1483,-0.25,1645184379.84375,P15,D00,0,0,0
1484,-0.47,1645184379.859375,P15,D00,0,0,0
1485,-0.82,1645184379.875,P15,D00,0,0,0
1486,-1.21,1645184379.890625,P15,D00,0,0,0
1487,-1.5,1645184379.90625,P15,D00,0,0,0
1488,-1.59,1645184379.921875,P15,D00,0,0,0
1489,-1.43,1645184379.9375,P15,D00,0,0,0
1490,-1.07,1645184379.953125,P15,D00,0,0,0
1491,-0.65,1645184379.96875,P15,D00,0,0,0
1492,-0.32,1645184379.984375,P15,D00,0,0,0
1493,-0.17,1645184380.0,P15,D00,0,0,0
1494,-0.22,1645184380.015625,P15,D00,0,0,0
1495,-0.37,1645184380.03125,P15,D00,0,0,0
1496,-0.5,1645184380.046875,P15,D00,0,0,0
1497,-0.5,1645184380.0625,P15,D00,0,0,0
1498,-0.35,1645184380.078125,P15,D00,0,0,0
1499,-0.08,1645184380.09375,P15,D00,0,0,0
1500,0.19,1645184380.109375,P15,D00,0,0,0
1501,0.39,1645184380.125,P15,D00,0,0,0
1502,0.49,1645184380.140625,P15,D00,0,0,0
1503,0.49,1645184380.15625,P15,D00,0,0,0
1504,0.46,1645184380.171875,P15,D00,0,0,0
1505,0.46,1645184380.1875,P15,D00,0,0,0
1506,0.51,1645184380.203125,P15,D00,0,0,0
1507,0.6,1645184380.21875,P15,D00,0,0,0
1508,0.7,1645184380.234375,P15,D00,0,0,0
1509,0.79,1645184380.25,P15,D00,0,0,0
1510,0.86,1645184380.265625,P15,D00,0,0,0
1511,0.91,1645184380.28125,P15,D00,0,0,0
1512,0.98,1645184380.296875,P15,D00,0,0,0
1513,1.05,1645184380.3125,P15,D00,0,0,0
1514,1.08,1645184380.328125,P15,D00,0,0,0
1515,1.05,1645184380.34375,P15,D00,0,0,0
1516,0.93,1645184380.359375,P15,D00,0,0,0
1517,0.75,1645184380.375,P15,D00,0,0,0
1518,0.58,1645184380.390625,P15,D00,0,0,0
1519,0.48,1645184380.40625,P15,D00,0,0,0
1520,0.48,1645184380.421875,P15,D00,0,0,0
1521,0.54,1645184380.4375,P15,D00,0,0,0
1522,0.59,1645184380.453125,P15,D00,0,0,0
1523,0.56,1645184380.46875,P15,D00,0,0,0
1524,0.43,1645184380.484375,P15,D00,0,0,0
1525,0.24,1645184380.5,P15,D00,0,0,0
1526,0.01,1645184380.515625,P15,D00,0,0,0
1527,-0.21,1645184380.53125,P15,D00,0,0,0
1528,-0.39,1645184380.546875,P15,D00,0,0,0
1529,-0.53,1645184380.5625,P15,D00,0,0,0
1530,-0.61,1645184380.578125,P15,D00,0,0,0
1531,-0.59,1645184380.59375,P15,D00,0,0,0
1532,-0.47,1645184380.609375,P15,D00,0,0,0
1533,-0.28,1645184380.625,P15,D00,0,0,0
1534,-0.13,1645184380.640625,P15,D00,0,0,0
1535,-0.13,1645184380.65625,P15,D00,0,0,0
1536,-0.34,1645184380.671875,P15,D00,0,0,0
1537,-0.71,1645184380.6875,P15,D00,0,0,0
1538,-1.07,1645184380.703125,P15,D00,0,0,0
1539,-1.28,1645184380.71875,P15,D00,0,0,0
1540,-1.28,1645184380.734375,P15,D00,0,0,0
1541,-1.13,1645184380.75,P15,D00,0,0,0
1542,-0.97,1645184380.765625,P15,D00,0,0,0
1543,-0.91,1645184380.78125,P15,D00,0,0,0
1544,-0.95,1645184380.796875,P15,D00,0,0,0
1545,-0.99,1645184380.8125,P15,D00,0,0,0
1546,-0.92,1645184380.828125,P15,D00,0,0,0
1547,-0.71,1645184380.84375,P15,D00,0,0,0
1548,-0.42,1645184380.859375,P15,D00,0,0,0
1549,-0.18,1645184380.875,P15,D00,0,0,0
1550,-0.1,1645184380.890625,P15,D00,0,0,0
1551,-0.17,1645184380.90625,P15,D00,0,0,0
1552,-0.31,1645184380.921875,P15,D00,0,0,0
1553,-0.38,1645184380.9375,P15,D00,0,0,0
1554,-0.31,1645184380.953125,P15,D00,0,0,0
1555,-0.06,1645184380.96875,P15,D00,0,0,0
1556,0.29,1645184380.984375,P15,D00,0,0,0
1557,0.67,1645184381.0,P15,D00,0,0,0
1558,1.0,1645184381.015625,P15,D00,0,0,0
1559,1.26,1645184381.03125,P15,D00,0,0,0
1560,1.44,1645184381.046875,P15,D00,0,0,0
1561,1.53,1645184381.0625,P15,D00,0,0,0
1562,1.56,1645184381.078125,P15,D00,0,0,0
1563,1.51,1645184381.09375,P15,D00,0,0,0
1564,1.4,1645184381.109375,P15,D00,0,0,0
1565,1.22,1645184381.125,P15,D00,0,0,0
1566,0.98,1645184381.140625,P15,D00,0,0,0
1567,0.7,1645184381.15625,P15,D00,0,0,0
1568,0.42,1645184381.171875,P15,D00,0,0,0
1569,0.19,1645184381.1875,P15,D00,0,0,0
1570,0.09,1645184381.203125,P15,D00,0,0,0
1571,0.14,1645184381.21875,P15,D00,0,0,0
1572,0.34,1645184381.234375,P15,D00,0,0,0
1573,0.62,1645184381.25,P15,D00,0,0,0
1574,0.9,1645184381.265625,P15,D00,0,0,0
1575,1.08,1645184381.28125,P15,D00,0,0,0
1576,1.16,1645184381.296875,P15,D00,0,0,0
1577,1.16,1645184381.3125,P15,D00,0,0,0
1578,1.14,1645184381.328125,P15,D00,0,0,0
1579,1.16,1645184381.34375,P15,D00,0,0,0
1580,1.23,1645184381.359375,P15,D00,0,0,0
1581,1.32,1645184381.375,P15,D00,0,0,0
1582,1.37,1645184381.390625,P15,D00,0,0,0
1583,1.34,1645184381.40625,P15,D00,0,0,0
1584,1.21,1645184381.421875,P15,D00,0,0,0
1585,0.97,1645184381.4375,P15,D00,0,0,0
1586,0.64,1645184381.453125,P15,D00,0,0,0
1587,0.25,1645184381.46875,P15,D00,0,0,0
1588,-0.16,1645184381.484375,P15,D00,0,0,0
1589,-0.53,1645184381.5,P15,D00,0,0,0
1590,-0.79,1645184381.515625,P15,D00,0,0,0
1591,-0.92,1645184381.53125,P15,D00,0,0,0
1592,-0.89,1645184381.546875,P15,D00,0,0,0
1593,-0.74,1645184381.5625,P15,D00,0,0,0
1594,-0.54,1645184381.578125,P15,D00,0,0,0
1595,-0.33,1645184381.59375,P15,D00,0,0,0
1596,-0.18,1645184381.609375,P15,D00,0,0,0
1597,-0.12,1645184381.625,P15,D00,0,0,0
1598,-0.15,1645184381.640625,P15,D00,0,0,0
1599,-0.3,1645184381.65625,P15,D00,0,0,0
1600,-0.52,1645184381.671875,P15,D00,0,0,0
1601,-0.78,1645184381.6875,P15,D00,0,0,0
1602,-1.03,1645184381.703125,P15,D00,0,0,0
1603,-1.22,1645184381.71875,P15,D00,0,0,0
1604,-1.29,1645184381.734375,P15,D00,0,0,0
1605,-1.22,1645184381.75,P15,D00,0,0,0
1606,-1.03,1645184381.765625,P15,D00,0,0,0
1607,-0.76,1645184381.78125,P15,D00,0,0,0
1608,-0.51,1645184381.796875,P15,D00,0,0,0
1609,-0.36,1645184381.8125,P15,D00,0,0,0
1610,-0.36,1645184381.828125,P15,D00,0,0,0
1611,-0.49,1645184381.84375,P15,D00,0,0,0
1612,-0.66,1645184381.859375,P15,D00,0,0,0
1613,-0.76,1645184381.875,P15,D00,0,0,0
1614,-0.73,1645184381.890625,P15,D00,0,0,0
1615,-0.63,1645184381.90625,P15,D00,0,0,0
1616,-0.56,1645184381.921875,P15,D00,0,0,0
1617,-0.67,1645184381.9375,P15,D00,0,0,0
1618,-0.95,1645184381.953125,P15,D00,0,0,0
1619,-1.3,1645184381.96875,P15,D00,0,0,0
1620,-1.52,1645184381.984375,P15,D00,0,0,0
1621,-1.42,1645184382.0,P15,D00,0,0,0
1622,-0.94,1645184382.015625,P15,D00,0,0,0
1623,-0.17,1645184382.03125,P15,D00,0,0,0
1624,0.68,1645184382.046875,P15,D00,0,0,0
1625,1.34,1645184382.0625,P15,D00,0,0,0
1626,1.62,1645184382.078125,P15,D00,0,0,0
1627,1.43,1645184382.09375,P15,D00,0,0,0
1628,0.84,1645184382.109375,P15,D00,0,0,0
1629,0.05,1645184382.125,P15,D00,0,0,0
1630,-0.66,1645184382.140625,P15,D00,0,0,0
1631,-1.07,1645184382.15625,P15,D00,0,0,0
1632,-1.1,1645184382.171875,P15,D00,0,0,0
1633,-0.82,1645184382.1875,P15,D00,0,0,0
1634,-0.41,1645184382.203125,P15,D00,0,0,0
1635,-0.05,1645184382.21875,P15,D00,0,0,0
1636,0.14,1645184382.234375,P15,D00,0,0,0
1637,0.2,1645184382.25,P15,D00,0,0,0
1638,0.23,1645184382.265625,P15,D00,0,0,0
1639,0.32,1645184382.28125,P15,D00,0,0,0
1640,0.45,1645184382.296875,P15,D00,0,0,0
1641,0.53,1645184382.3125,P15,D00,0,0,0
1642,0.42,1645184382.328125,P15,D00,0,0,0
1643,0.12,1645184382.34375,P15,D00,0,0,0
1644,-0.3,1645184382.359375,P15,D00,0,0,0
1645,-0.65,1645184382.375,P15,D00,0,0,0
1646,-0.77,1645184382.390625,P15,D00,0,0,0
1647,-0.61,1645184382.40625,P15,D00,0,0,0
1648,-0.23,1645184382.421875,P15,D00,0,0,0
1649,0.2,1645184382.4375,P15,D00,0,0,0
1650,0.55,1645184382.453125,P15,D00,0,0,0
1651,0.75,1645184382.46875,P15,D00,0,0,0
1652,0.8,1645184382.484375,P15,D00,0,0,0
1653,0.8,1645184382.5,P15,D00,0,0,0
1654,0.79,1645184382.515625,P15,D00,0,0,0
1655,0.79,1645184382.53125,P15,D00,0,0,0
1656,0.77,1645184382.546875,P15,D00,0,0,0
1657,0.69,1645184382.5625,P15,D00,0,0,0
1658,0.54,1645184382.578125,P15,D00,0,0,0
1659,0.38,1645184382.59375,P15,D00,0,0,0
1660,0.25,1645184382.609375,P15,D00,0,0,0
1661,0.19,1645184382.625,P15,D00,0,0,0
1662,0.19,1645184382.640625,P15,D00,0,0,0
1663,0.22,1645184382.65625,P15,D00,0,0,0
1664,0.24,1645184382.671875,P15,D00,0,0,0
1665,0.21,1645184382.6875,P15,D00,0,0,0
1666,0.15,1645184382.703125,P15,D00,0,0,0
1667,0.12,1645184382.71875,P15,D00,0,0,0
1668,0.13,1645184382.734375,P15,D00,0,0,0
1669,0.18,1645184382.75,P15,D00,0,0,0
1670,0.25,1645184382.765625,P15,D00,0,0,0
1671,0.29,1645184382.78125,P15,D00,0,0,0
1672,0.25,1645184382.796875,P15,D00,0,0,0
1673,0.11,1645184382.8125,P15,D00,0,0,0
1674,-0.14,1645184382.828125,P15,D00,0,0,0
1675,-0.46,1645184382.84375,P15,D00,0,0,0
1676,-0.8,1645184382.859375,P15,D00,0,0,0
1677,-1.07,1645184382.875,P15,D00,0,0,0
1678,-1.2,1645184382.890625,P15,D00,0,0,0
1679,-1.15,1645184382.90625,P15,D00,0,0,0
1680,-0.94,1645184382.921875,P15,D00,0,0,0
1681,-0.64,1645184382.9375,P15,D00,0,0,0
1682,-0.35,1645184382.953125,P15,D00,0,0,0
1683,-0.16,1645184382.96875,P15,D00,0,0,0
1684,-0.1,1645184382.984375,P15,D00,0,0,0
1685,-0.13,1645184383.0,P15,D00,0,0,0
1686,-0.18,1645184383.015625,P15,D00,0,0,0
1687,-0.16,1645184383.03125,P15,D00,0,0,0
1688,-0.02,1645184383.046875,P15,D00,0,0,0
1689,0.23,1645184383.0625,P15,D00,0,0,0
1690,0.53,1645184383.078125,P15,D00,0,0,0
1691,0.8,1645184383.09375,P15,D00,0,0,0
1692,0.95,1645184383.109375,P15,D00,0,0,0
1693,0.93,1645184383.125,P15,D00,0,0,0
1694,0.74,1645184383.140625,P15,D00,0,0,0
1695,0.46,1645184383.15625,P15,D00,0,0,0
1696,0.17,1645184383.171875,P15,D00,0,0,0
1697,-0.04,1645184383.1875,P15,D00,0,0,0
1698,-0.11,1645184383.203125,P15,D00,0,0,0
1699,-0.05,1645184383.21875,P15,D00,0,0,0
1700,0.07,1645184383.234375,P15,D00,0,0,0
1701,0.18,1645184383.25,P15,D00,0,0,0
1702,0.24,1645184383.265625,P15,D00,0,0,0
1703,0.22,1645184383.28125,P15,D00,0,0,0
1704,0.12,1645184383.296875,P15,D00,0,0,0
1705,-0.01,1645184383.3125,P15,D00,0,0,0
1706,-0.15,1645184383.328125,P15,D00,0,0,0
1707,-0.26,1645184383.34375,P15,D00,0,0,0
1708,-0.31,1645184383.359375,P15,D00,0,0,0
1709,-0.29,1645184383.375,P15,D00,0,0,0
1710,-0.18,1645184383.390625,P15,D00,0,0,0
1711,-0.03,1645184383.40625,P15,D00,0,0,0
1712,0.12,1645184383.421875,P15,D00,0,0,0
1713,0.19,1645184383.4375,P15,D00,0,0,0
1714,0.15,1645184383.453125,P15,D00,0,0,0
1715,0.04,1645184383.46875,P15,D00,0,0,0
1716,-0.11,1645184383.484375,P15,D00,0,0,0
1717,-0.23,1645184383.5,P15,D00,0,0,0
1718,-0.31,1645184383.515625,P15,D00,0,0,0
1719,-0.34,1645184383.53125,P15,D00,0,0,0
1720,-0.34,1645184383.546875,P15,D00,0,0,0
1721,-0.33,1645184383.5625,P15,D00,0,0,0
1722,-0.27,1645184383.578125,P15,D00,0,0,0
1723,-0.15,1645184383.59375,P15,D00,0,0,0
1724,0.06,1645184383.609375,P15,D00,0,0,0
1725,0.33,1645184383.625,P15,D00,0,0,0
1726,0.63,1645184383.640625,P15,D00,0,0,0
1727,0.9,1645184383.65625,P15,D00,0,0,0
1728,1.12,1645184383.671875,P15,D00,0,0,0
1729,1.27,1645184383.6875,P15,D00,0,0,0
1730,1.34,1645184383.703125,P15,D00,0,0,0
1731,1.32,1645184383.71875,P15,D00,0,0,0
1732,1.18,1645184383.734375,P15,D00,0,0,0
1733,0.93,1645184383.75,P15,D00,0,0,0
1734,0.57,1645184383.765625,P15,D00,0,0,0
1735,0.16,1645184383.78125,P15,D00,0,0,0
1736,-0.19,1645184383.796875,P15,D00,0,0,0
1737,-0.42,1645184383.8125,P15,D00,0,0,0
1738,-0.49,1645184383.828125,P15,D00,0,0,0
1739,-0.44,1645184383.84375,P15,D00,0,0,0
1740,-0.35,1645184383.859375,P15,D00,0,0,0
1741,-0.31,1645184383.875,P15,D00,0,0,0
1742,-0.37,1645184383.890625,P15,D00,0,0,0
1743,-0.5,1645184383.90625,P15,D00,0,0,0
1744,-0.63,1645184383.921875,P15,D00,0,0,0
1745,-0.67,1645184383.9375,P15,D00,0,0,0
1746,-0.6,1645184383.953125,P15,D00,0,0,0
1747,-0.44,1645184383.96875,P15,D00,0,0,0
1748,-0.26,1645184383.984375,P15,D00,0,0,0
1749,-0.09,1645184384.0,P15,D00,0,0,0
1750,0.04,1645184384.015625,P15,D00,0,0,0
1751,0.13,1645184384.03125,P15,D00,0,0,0
1752,0.19,1645184384.046875,P15,D00,0,0,0
1753,0.2,1645184384.0625,P15,D00,0,0,0
1754,0.12,1645184384.078125,P15,D00,0,0,0
1755,-0.07,1645184384.09375,P15,D00,0,0,0
1756,-0.34,1645184384.109375,P15,D00,0,0,0
1757,-0.62,1645184384.125,P15,D00,0,0,0
1758,-0.83,1645184384.140625,P15,D00,0,0,0
1759,-0.92,1645184384.15625,P15,D00,0,0,0
1760,-0.87,1645184384.171875,P15,D00,0,0,0
1761,-0.71,1645184384.1875,P15,D00,0,0,0
1762,-0.48,1645184384.203125,P15,D00,0,0,0
1763,-0.17,1645184384.21875,P15,D00,0,0,0
1764,0.19,1645184384.234375,P15,D00,0,0,0
1765,0.6,1645184384.25,P15,D00,0,0,0
1766,0.97,1645184384.265625,P15,D00,0,0,0
1767,1.24,1645184384.28125,P15,D00,0,0,0
1768,1.32,1645184384.296875,P15,D00,0,0,0
1769,1.23,1645184384.3125,P15,D00,0,0,0
1770,1.02,1645184384.328125,P15,D00,0,0,0
1771,0.79,1645184384.34375,P15,D00,0,0,0
1772,0.6,1645184384.359375,P15,D00,0,0,0
1773,0.47,1645184384.375,P15,D00,0,0,0
1774,0.36,1645184384.390625,P15,D00,0,0,0
1775,0.21,1645184384.40625,P15,D00,0,0,0
1776,-0.03,1645184384.421875,P15,D00,0,0,0
1777,-0.32,1645184384.4375,P15,D00,0,0,0
1778,-0.58,1645184384.453125,P15,D00,0,0,0
1779,-0.71,1645184384.46875,P15,D00,0,0,0
1780,-0.67,1645184384.484375,P15,D00,0,0,0
1781,-0.46,1645184384.5,P15,D00,0,0,0
1782,-0.19,1645184384.515625,P15,D00,0,0,0
1783,0.02,1645184384.53125,P15,D00,0,0,0
1784,0.13,1645184384.546875,P15,D00,0,0,0
1785,0.16,1645184384.5625,P15,D00,0,0,0
1786,0.19,1645184384.578125,P15,D00,0,0,0
1787,0.28,1645184384.59375,P15,D00,0,0,0
1788,0.41,1645184384.609375,P15,D00,0,0,0
1789,0.49,1645184384.625,P15,D00,0,0,0
1790,0.42,1645184384.640625,P15,D00,0,0,0
1791,0.19,1645184384.65625,P15,D00,0,0,0
1792,-0.14,1645184384.671875,P15,D00,0,0,0
1793,-0.42,1645184384.6875,P15,D00,0,0,0
1794,-0.54,1645184384.703125,P15,D00,0,0,0
1795,-0.48,1645184384.71875,P15,D00,0,0,0
1796,-0.34,1645184384.734375,P15,D00,0,0,0
1797,-0.25,1645184384.75,P15,D00,0,0,0
1798,-0.29,1645184384.765625,P15,D00,0,0,0
1799,-0.43,1645184384.78125,P15,D00,0,0,0
1800,-0.56,1645184384.796875,P15,D00,0,0,0
1801,-0.54,1645184384.8125,P15,D00,0,0,0
1802,-0.3,1645184384.828125,P15,D00,0,0,0
1803,0.11,1645184384.84375,P15,D00,0,0,0
1804,0.57,1645184384.859375,P15,D00,0,0,0
1805,0.97,1645184384.875,P15,D00,0,0,0
1806,1.2,1645184384.890625,P15,D00,0,0,0
1807,1.22,1645184384.90625,P15,D00,0,0,0
1808,1.08,1645184384.921875,P15,D00,0,0,0
1809,0.85,1645184384.9375,P15,D00,0,0,0
1810,0.62,1645184384.953125,P15,D00,0,0,0
1811,0.47,1645184384.96875,P15,D00,0,0,0
1812,0.44,1645184384.984375,P15,D00,0,0,0
1813,0.52,1645184385.0,P15,D00,0,0,0
1814,0.65,1645184385.015625,P15,D00,0,0,0
1815,0.74,1645184385.03125,P15,D00,0,0,0
1816,0.71,1645184385.046875,P15,D00,0,0,0
1817,0.52,1645184385.0625,P15,D00,0,0,0
1818,0.25,1645184385.078125,P15,D00,0,0,0
1819,0.02,1645184385.09375,P15,D00,0,0,0
1820,-0.07,1645184385.109375,P15,D00,0,0,0
1821,0.01,1645184385.125,P15,D00,0,0,0
1822,0.21,1645184385.140625,P15,D00,0,0,0
1823,0.37,1645184385.15625,P15,D00,0,0,0
1824,0.37,1645184385.171875,P15,D00,0,0,0
1825,0.18,1645184385.1875,P15,D00,0,0,0
1826,-0.14,1645184385.203125,P15,D00,0,0,0
1827,-0.44,1645184385.21875,P15,D00,0,0,0
1828,-0.62,1645184385.234375,P15,D00,0,0,0
1829,-0.64,1645184385.25,P15,D00,0,0,0
1830,-0.53,1645184385.265625,P15,D00,0,0,0
1831,-0.39,1645184385.28125,P15,D00,0,0,0
1832,-0.29,1645184385.296875,P15,D00,0,0,0
1833,-0.28,1645184385.3125,P15,D00,0,0,0
1834,-0.34,1645184385.328125,P15,D00,0,0,0
1835,-0.45,1645184385.34375,P15,D00,0,0,0
1836,-0.56,1645184385.359375,P15,D00,0,0,0
1837,-0.65,1645184385.375,P15,D00,0,0,0
1838,-0.66,1645184385.390625,P15,D00,0,0,0
1839,-0.6,1645184385.40625,P15,D00,0,0,0
1840,-0.45,1645184385.421875,P15,D00,0,0,0
1841,-0.28,1645184385.4375,P15,D00,0,0,0
1842,-0.14,1645184385.453125,P15,D00,0,0,0
1843,-0.1,1645184385.46875,P15,D00,0,0,0
1844,-0.18,1645184385.484375,P15,D00,0,0,0
1845,-0.34,1645184385.5,P15,D00,0,0,0
1846,-0.49,1645184385.515625,P15,D00,0,0,0
1847,-0.5,1645184385.53125,P15,D00,0,0,0
1848,-0.34,1645184385.546875,P15,D00,0,0,0
1849,-0.01,1645184385.5625,P15,D00,0,0,0
1850,0.42,1645184385.578125,P15,D00,0,0,0
1851,0.82,1645184385.59375,P15,D00,0,0,0
1852,1.11,1645184385.609375,P15,D00,0,0,0
1853,1.25,1645184385.625,P15,D00,0,0,0
1854,1.23,1645184385.640625,P15,D00,0,0,0
1855,1.08,1645184385.65625,P15,D00,0,0,0
1856,0.82,1645184385.671875,P15,D00,0,0,0
1857,0.51,1645184385.6875,P15,D00,0,0,0
1858,0.19,1645184385.703125,P15,D00,0,0,0
1859,-0.11,1645184385.71875,P15,D00,0,0,0
1860,-0.33,1645184385.734375,P15,D00,0,0,0
1861,-0.43,1645184385.75,P15,D00,0,0,0
1862,-0.41,1645184385.765625,P15,D00,0,0,0
1863,-0.3,1645184385.78125,P15,D00,0,0,0
1864,-0.15,1645184385.796875,P15,D00,0,0,0
1865,0.02,1645184385.8125,P15,D00,0,0,0
1866,0.19,1645184385.828125,P15,D00,0,0,0
1867,0.35,1645184385.84375,P15,D00,0,0,0
1868,0.51,1645184385.859375,P15,D00,0,0,0
1869,0.66,1645184385.875,P15,D00,0,0,0
1870,0.78,1645184385.890625,P15,D00,0,0,0
1871,0.83,1645184385.90625,P15,D00,0,0,0
1872,0.79,1645184385.921875,P15,D00,0,0,0
1873,0.62,1645184385.9375,P15,D00,0,0,0
1874,0.35,1645184385.953125,P15,D00,0,0,0
1875,-0.03,1645184385.96875,P15,D00,0,0,0
1876,-0.45,1645184385.984375,P15,D00,0,0,0
1877,-0.84,1645184386.0,P15,D00,0,0,0
1878,-1.1,1645184386.015625,P15,D00,0,0,0
1879,-1.17,1645184386.03125,P15,D00,0,0,0
1880,-1.01,1645184386.046875,P15,D00,0,0,0
1881,-0.68,1645184386.0625,P15,D00,0,0,0
1882,-0.3,1645184386.078125,P15,D00,0,0,0
1883,0.01,1645184386.09375,P15,D00,0,0,0
1884,0.17,1645184386.109375,P15,D00,0,0,0
1885,0.18,1645184386.125,P15,D00,0,0,0
1886,0.07,1645184386.140625,P15,D00,0,0,0
1887,-0.09,1645184386.15625,P15,D00,0,0,0
1888,-0.26,1645184386.171875,P15,D00,0,0,0
1889,-0.44,1645184386.1875,P15,D00,0,0,0
1890,-0.61,1645184386.203125,P15,D00,0,0,0
1891,-0.73,1645184386.21875,P15,D00,0,0,0
1892,-0.73,1645184386.234375,P15,D00,0,0,0
1893,-0.55,1645184386.25,P15,D00,0,0,0
1894,-0.23,1645184386.265625,P15,D00,0,0,0
1895,0.15,1645184386.28125,P15,D00,0,0,0
1896,0.44,1645184386.296875,P15,D00,0,0,0
1897,0.51,1645184386.3125,P15,D00,0,0,0
1898,0.35,1645184386.328125,P15,D00,0,0,0
1899,0.04,1645184386.34375,P15,D00,0,0,0
1900,-0.29,1645184386.359375,P15,D00,0,0,0
1901,-0.51,1645184386.375,P15,D00,0,0,0
1902,-0.59,1645184386.390625,P15,D00,0,0,0
1903,-0.57,1645184386.40625,P15,D00,0,0,0
1904,-0.51,1645184386.421875,P15,D00,0,0,0
1905,-0.5,1645184386.4375,P15,D00,0,0,0
1906,-0.54,1645184386.453125,P15,D00,0,0,0
1907,-0.62,1645184386.46875,P15,D00,0,0,0
1908,-0.69,1645184386.484375,P15,D00,0,0,0
1909,-0.7,1645184386.5,P15,D00,0,0,0
1910,-0.63,1645184386.515625,P15,D00,0,0,0
1911,-0.5,1645184386.53125,P15,D00,0,0,0
1912,-0.35,1645184386.546875,P15,D00,0,0,0
1913,-0.26,1645184386.5625,P15,D00,0,0,0
1914,-0.3,1645184386.578125,P15,D00,0,0,0
1915,-0.48,1645184386.59375,P15,D00,0,0,0
1916,-0.77,1645184386.609375,P15,D00,0,0,0
1917,-1.03,1645184386.625,P15,D00,0,0,0
1918,-1.14,1645184386.640625,P15,D00,0,0,0
1919,-1.0,1645184386.65625,P15,D00,0,0,0
1920,-0.63,1645184386.671875,P15,D00,0,0,0
1921,-0.12,1645184386.6875,P15,D00,0,0,0
1922,0.38,1645184386.703125,P15,D00,0,0,0
1923,0.75,1645184386.71875,P15,D00,0,0,0
1924,0.94,1645184386.734375,P15,D00,0,0,0
1925,0.96,1645184386.75,P15,D00,0,0,0
1926,0.87,1645184386.765625,P15,D00,0,0,0
1927,0.72,1645184386.78125,P15,D00,0,0,0
1928,0.53,1645184386.796875,P15,D00,0,0,0
1929,0.31,1645184386.8125,P15,D00,0,0,0
1930,0.06,1645184386.828125,P15,D00,0,0,0
1931,-0.21,1645184386.84375,P15,D00,0,0,0
1932,-0.49,1645184386.859375,P15,D00,0,0,0
1933,-0.78,1645184386.875,P15,D00,0,0,0
1934,-1.08,1645184386.890625,P15,D00,0,0,0
1935,-1.4,1645184386.90625,P15,D00,0,0,0
1936,-1.71,1645184386.921875,P15,D00,0,0,0
1937,-1.9,1645184386.9375,P15,D00,0,0,0
1938,-1.9,1645184386.953125,P15,D00,0,0,0
1939,-1.63,1645184386.96875,P15,D00,0,0,0
1940,-1.15,1645184386.984375,P15,D00,0,0,0
1941,-0.58,1645184387.0,P15,D00,0,0,0
1942,-0.1,1645184387.015625,P15,D00,0,0,0
1943,0.13,1645184387.03125,P15,D00,0,0,0
1944,0.07,1645184387.046875,P15,D00,0,0,0
1945,-0.23,1645184387.0625,P15,D00,0,0,0
1946,-0.61,1645184387.078125,P15,D00,0,0,0
1947,-0.92,1645184387.09375,P15,D00,0,0,0
1948,-1.08,1645184387.109375,P15,D00,0,0,0
1949,-1.1,1645184387.125,P15,D00,0,0,0
1950,-1.05,1645184387.140625,P15,D00,0,0,0
1951,-1.01,1645184387.15625,P15,D00,0,0,0
1952,-0.99,1645184387.171875,P15,D00,0,0,0
1953,-0.97,1645184387.1875,P15,D00,0,0,0
1954,-0.95,1645184387.203125,P15,D00,0,0,0
1955,-0.9,1645184387.21875,P15,D00,0,0,0
1956,-0.83,1645184387.234375,P15,D00,0,0,0
1957,-0.72,1645184387.25,P15,D00,0,0,0
1958,-0.53,1645184387.265625,P15,D00,0,0,0
1959,-0.22,1645184387.28125,P15,D00,0,0,0
1960,0.22,1645184387.296875,P15,D00,0,0,0
1961,0.75,1645184387.3125,P15,D00,0,0,0
1962,1.26,1645184387.328125,P15,D00,0,0,0
1963,1.65,1645184387.34375,P15,D00,0,0,0
1964,1.84,1645184387.359375,P15,D00,0,0,0
1965,1.8,1645184387.375,P15,D00,0,0,0
1966,1.6,1645184387.390625,P15,D00,0,0,0
1967,1.34,1645184387.40625,P15,D00,0,0,0
1968,1.11,1645184387.421875,P15,D00,0,0,0
1969,0.98,1645184387.4375,P15,D00,0,0,0
1970,0.96,1645184387.453125,P15,D00,0,0,0
1971,0.99,1645184387.46875,P15,D00,0,0,0
1972,0.96,1645184387.484375,P15,D00,0,0,0
1973,0.79,1645184387.5,P15,D00,0,0,0
1974,0.44,1645184387.515625,P15,D00,0,0,0
1975,-0.03,1645184387.53125,P15,D00,0,0,0
1976,-0.48,1645184387.546875,P15,D00,0,0,0
1977,-0.76,1645184387.5625,P15,D00,0,0,0
1978,-0.77,1645184387.578125,P15,D00,0,0,0
1979,-0.52,1645184387.59375,P15,D00,0,0,0
1980,-0.12,1645184387.609375,P15,D00,0,0,0
1981,0.26,1645184387.625,P15,D00,0,0,0
1982,0.49,1645184387.640625,P15,D00,0,0,0
1983,0.5,1645184387.65625,P15,D00,0,0,0
1984,0.3,1645184387.671875,P15,D00,0,0,0
1985,0.03,1645184387.6875,P15,D00,0,0,0
1986,-0.21,1645184387.703125,P15,D00,0,0,0
1987,-0.28,1645184387.71875,P15,D00,0,0,0
1988,-0.15,1645184387.734375,P15,D00,0,0,0
1989,0.13,1645184387.75,P15,D00,0,0,0
1990,0.45,1645184387.765625,P15,D00,0,0,0
1991,0.68,1645184387.78125,P15,D00,0,0,0
1992,0.77,1645184387.796875,P15,D00,0,0,0
1993,0.73,1645184387.8125,P15,D00,0,0,0
1994,0.69,1645184387.828125,P15,D00,0,0,0
1995,0.75,1645184387.84375,P15,D00,0,0,0
1996,0.98,1645184387.859375,P15,D00,0,0,0
1997,1.32,1645184387.875,P15,D00,0,0,0
1998,1.67,1645184387.890625,P15,D00,0,0,0
1999,1.91,1645184387.90625,P15,D00,0,0,0
2000,1.94,1645184387.921875,P15,D00,0,0,0
2001,1.77,1645184387.9375,P15,D00,0,0,0
2002,1.45,1645184387.953125,P15,D00,0,0,0
2003,1.09,1645184387.96875,P15,D00,0,0,0
2004,0.78,1645184387.984375,P15,D00,0,0,0
2005,0.6,1645184388.0,P15,D00,0,0,0
2006,0.56,1645184388.015625,P15,D00,0,0,0
2007,0.67,1645184388.03125,P15,D00,0,0,0
2008,0.85,1645184388.046875,P15,D00,0,0,0
2009,1.03,1645184388.0625,P15,D00,0,0,0
2010,1.16,1645184388.078125,P15,D00,0,0,0
2011,1.2,1645184388.09375,P15,D00,0,0,0
2012,1.17,1645184388.109375,P15,D00,0,0,0
2013,1.08,1645184388.125,P15,D00,0,0,0
2014,0.94,1645184388.140625,P15,D00,0,0,0
2015,0.72,1645184388.15625,P15,D00,0,0,0
2016,0.41,1645184388.171875,P15,D00,0,0,0
2017,0.03,1645184388.1875,P15,D00,0,0,0
2018,-0.32,1645184388.203125,P15,D00,0,0,0
2019,-0.57,1645184388.21875,P15,D00,0,0,0
2020,-0.65,1645184388.234375,P15,D00,0,0,0
2021,-0.61,1645184388.25,P15,D00,0,0,0
2022,-0.57,1645184388.265625,P15,D00,0,0,0
2023,-0.64,1645184388.28125,P15,D00,0,0,0
2024,-0.87,1645184388.296875,P15,D00,0,0,0
2025,-1.18,1645184388.3125,P15,D00,0,0,0
2026,-1.42,1645184388.328125,P15,D00,0,0,0
2027,-1.47,1645184388.34375,P15,D00,0,0,0
2028,-1.32,1645184388.359375,P15,D00,0,0,0
2029,-1.09,1645184388.375,P15,D00,0,0,0
2030,-0.92,1645184388.390625,P15,D00,0,0,0
2031,-0.87,1645184388.40625,P15,D00,0,0,0
2032,-0.89,1645184388.421875,P15,D00,0,0,0
2033,-0.81,1645184388.4375,P15,D00,0,0,0
2034,-0.52,1645184388.453125,P15,D00,0,0,0
2035,-0.0,1645184388.46875,P15,D00,0,0,0
2036,0.61,1645184388.484375,P15,D00,0,0,0
2037,1.11,1645184388.5,P15,D00,0,0,0
2038,1.35,1645184388.515625,P15,D00,0,0,0
2039,1.3,1645184388.53125,P15,D00,0,0,0
2040,1.09,1645184388.546875,P15,D00,0,0,0
2041,0.88,1645184388.5625,P15,D00,0,0,0
2042,0.8,1645184388.578125,P15,D00,0,0,0
2043,0.86,1645184388.59375,P15,D00,0,0,0
2044,0.96,1645184388.609375,P15,D00,0,0,0
2045,1.01,1645184388.625,P15,D00,0,0,0
2046,0.96,1645184388.640625,P15,D00,0,0,0
2047,0.86,1645184388.65625,P15,D00,0,0,0
2048,0.77,1645184388.671875,P15,D00,0,0,0
2049,0.75,1645184388.6875,P15,D00,0,0,0
2050,0.8,1645184388.703125,P15,D00,0,0,0
2051,0.85,1645184388.71875,P15,D00,0,0,0
2052,0.84,1645184388.734375,P15,D00,0,0,0
2053,0.77,1645184388.75,P15,D00,0,0,0
2054,0.67,1645184388.765625,P15,D00,0,0,0
2055,0.62,1645184388.78125,P15,D00,0,0,0
2056,0.66,1645184388.796875,P15,D00,0,0,0
2057,0.76,1645184388.8125,P15,D00,0,0,0
2058,0.85,1645184388.828125,P15,D00,0,0,0
2059,0.85,1645184388.84375,P15,D00,0,0,0
2060,0.71,1645184388.859375,P15,D00,0,0,0
2061,0.46,1645184388.875,P15,D00,0,0,0
2062,0.16,1645184388.890625,P15,D00,0,0,0
2063,-0.15,1645184388.90625,P15,D00,0,0,0
2064,-0.44,1645184388.921875,P15,D00,0,0,0
2065,-0.73,1645184388.9375,P15,D00,0,0,0
2066,-0.98,1645184388.953125,P15,D00,0,0,0
2067,-1.15,1645184388.96875,P15,D00,0,0,0
2068,-1.17,1645184388.984375,P15,D00,0,0,0
2069,-1.0,1645184389.0,P15,D00,0,0,0
2070,-0.66,1645184389.015625,P15,D00,0,0,0
2071,-0.24,1645184389.03125,P15,D00,0,0,0
2072,0.14,1645184389.046875,P15,D00,0,0,0
2073,0.4,1645184389.0625,P15,D00,0,0,0
2074,0.55,1645184389.078125,P15,D00,0,0,0
2075,0.64,1645184389.09375,P15,D00,0,0,0
2076,0.73,1645184389.109375,P15,D00,0,0,0
2077,0.84,1645184389.125,P15,D00,0,0,0
2078,0.98,1645184389.140625,P15,D00,0,0,0
2079,1.11,1645184389.15625,P15,D00,0,0,0
2080,1.23,1645184389.171875,P15,D00,0,0,0
2081,1.32,1645184389.1875,P15,D00,0,0,0
2082,1.34,1645184389.203125,P15,D00,0,0,0
2083,1.19,1645184389.21875,P15,D00,0,0,0
2084,0.77,1645184389.234375,P15,D00,0,0,0
2085,0.04,1645184389.25,P15,D00,0,0,0
2086,-0.92,1645184389.265625,P15,D00,0,0,0
2087,-1.91,1645184389.28125,P15,D00,0,0,0
2088,-2.65,1645184389.296875,P15,D00,0,0,0
2089,-2.94,1645184389.3125,P15,D00,0,0,0
2090,-2.76,1645184389.328125,P15,D00,0,0,0
2091,-2.25,1645184389.34375,P15,D00,0,0,0
2092,-1.62,1645184389.359375,P15,D00,0,0,0
2093,-1.08,1645184389.375,P15,D00,0,0,0
2094,-0.72,1645184389.390625,P15,D00,0,0,0
2095,-0.54,1645184389.40625,P15,D00,0,0,0
2096,-0.46,1645184389.421875,P15,D00,0,0,0
2097,-0.42,1645184389.4375,P15,D00,0,0,0
2098,-0.41,1645184389.453125,P15,D00,0,0,0
2099,-0.44,1645184389.46875,P15,D00,0,0,0
2100,-0.56,1645184389.484375,P15,D00,0,0,0
2101,-0.77,1645184389.5,P15,D00,0,0,0
2102,-1.02,1645184389.515625,P15,D00,0,0,0
2103,-1.25,1645184389.53125,P15,D00,0,0,0
2104,-1.35,1645184389.546875,P15,D00,0,0,0
2105,-1.26,1645184389.5625,P15,D00,0,0,0
2106,-0.94,1645184389.578125,P15,D00,0,0,0
2107,-0.45,1645184389.59375,P15,D00,0,0,0
2108,0.09,1645184389.609375,P15,D00,0,0,0
2109,0.55,1645184389.625,P15,D00,0,0,0
2110,0.82,1645184389.640625,P15,D00,0,0,0
2111,0.87,1645184389.65625,P15,D00,0,0,0
2112,0.76,1645184389.671875,P15,D00,0,0,0
2113,0.57,1645184389.6875,P15,D00,0,0,0
2114,0.36,1645184389.703125,P15,D00,0,0,0
2115,0.12,1645184389.71875,P15,D00,0,0,0
2116,-0.18,1645184389.734375,P15,D00,0,0,0
2117,-0.55,1645184389.75,P15,D00,0,0,0
2118,-0.94,1645184389.765625,P15,D00,0,0,0
2119,-1.23,1645184389.78125,P15,D00,0,0,0
2120,-1.33,1645184389.796875,P15,D00,0,0,0
2121,-1.21,1645184389.8125,P15,D00,0,0,0
2122,-0.97,1645184389.828125,P15,D00,0,0,0
2123,-0.77,1645184389.84375,P15,D00,0,0,0
2124,-0.75,1645184389.859375,P15,D00,0,0,0
2125,-0.94,1645184389.875,P15,D00,0,0,0
2126,-1.24,1645184389.890625,P15,D00,0,0,0
2127,-1.48,1645184389.90625,P15,D00,0,0,0
2128,-1.53,1645184389.921875,P15,D00,0,0,0
2129,-1.36,1645184389.9375,P15,D00,0,0,0
2130,-1.04,1645184389.953125,P15,D00,0,0,0
2131,-0.72,1645184389.96875,P15,D00,0,0,0
2132,-0.49,1645184389.984375,P15,D00,0,0,0
2133,-0.38,1645184390.0,P15,D00,0,0,0
2134,-0.32,1645184390.015625,P15,D00,0,0,0
2135,-0.22,1645184390.03125,P15,D00,0,0,0
2136,-0.02,1645184390.046875,P15,D00,0,0,0
2137,0.27,1645184390.0625,P15,D00,0,0,0
2138,0.58,1645184390.078125,P15,D00,0,0,0
2139,0.83,1645184390.09375,P15,D00,0,0,0
2140,0.94,1645184390.109375,P15,D00,0,0,0
2141,0.85,1645184390.125,P15,D00,0,0,0
2142,0.57,1645184390.140625,P15,D00,0,0,0
2143,0.17,1645184390.15625,P15,D00,0,0,0
2144,-0.23,1645184390.171875,P15,D00,0,0,0
2145,-0.46,1645184390.1875,P15,D00,0,0,0
2146,-0.41,1645184390.203125,P15,D00,0,0,0
2147,-0.04,1645184390.21875,P15,D00,0,0,0
2148,0.51,1645184390.234375,P15,D00,0,0,0
2149,1.05,1645184390.25,P15,D00,0,0,0
2150,1.35,1645184390.265625,P15,D00,0,0,0
2151,1.29,1645184390.28125,P15,D00,0,0,0
2152,0.91,1645184390.296875,P15,D00,0,0,0
2153,0.35,1645184390.3125,P15,D00,0,0,0
2154,-0.2,1645184390.328125,P15,D00,0,0,0
2155,-0.57,1645184390.34375,P15,D00,0,0,0
2156,-0.7,1645184390.359375,P15,D00,0,0,0
2157,-0.61,1645184390.375,P15,D00,0,0,0
2158,-0.39,1645184390.390625,P15,D00,0,0,0
2159,-0.14,1645184390.40625,P15,D00,0,0,0
2160,0.05,1645184390.421875,P15,D00,0,0,0
2161,0.15,1645184390.4375,P15,D00,0,0,0
2162,0.16,1645184390.453125,P15,D00,0,0,0
2163,0.12,1645184390.46875,P15,D00,0,0,0
2164,0.06,1645184390.484375,P15,D00,0,0,0
2165,0.03,1645184390.5,P15,D00,0,0,0
2166,0.01,1645184390.515625,P15,D00,0,0,0
2167,-0.01,1645184390.53125,P15,D00,0,0,0
2168,-0.03,1645184390.546875,P15,D00,0,0,0
2169,-0.05,1645184390.5625,P15,D00,0,0,0
2170,-0.01,1645184390.578125,P15,D00,0,0,0
2171,0.1,1645184390.59375,P15,D00,0,0,0
2172,0.28,1645184390.609375,P15,D00,0,0,0
2173,0.46,1645184390.625,P15,D00,0,0,0
2174,0.56,1645184390.640625,P15,D00,0,0,0
2175,0.57,1645184390.65625,P15,D00,0,0,0
2176,0.51,1645184390.671875,P15,D00,0,0,0
2177,0.44,1645184390.6875,P15,D00,0,0,0
2178,0.42,1645184390.703125,P15,D00,0,0,0
2179,0.45,1645184390.71875,P15,D00,0,0,0
2180,0.48,1645184390.734375,P15,D00,0,0,0
2181,0.5,1645184390.75,P15,D00,0,0,0
2182,0.5,1645184390.765625,P15,D00,0,0,0
2183,0.55,1645184390.78125,P15,D00,0,0,0
2184,0.69,1645184390.796875,P15,D00,0,0,0
2185,0.89,1645184390.8125,P15,D00,0,0,0
2186,1.05,1645184390.828125,P15,D00,0,0,0
2187,1.07,1645184390.84375,P15,D00,0,0,0
2188,0.9,1645184390.859375,P15,D00,0,0,0
2189,0.59,1645184390.875,P15,D00,0,0,0
2190,0.3,1645184390.890625,P15,D00,0,0,0
2191,0.17,1645184390.90625,P15,D00,0,0,0
2192,0.22,1645184390.921875,P15,D00,0,0,0
2193,0.35,1645184390.9375,P15,D00,0,0,0
2194,0.38,1645184390.953125,P15,D00,0,0,0
2195,0.19,1645184390.96875,P15,D00,0,0,0
2196,-0.23,1645184390.984375,P15,D00,0,0,0
2197,-0.77,1645184391.0,P15,D00,0,0,0
2198,-1.25,1645184391.015625,P15,D00,0,0,0
2199,-1.49,1645184391.03125,P15,D00,0,0,0
2200,-1.43,1645184391.046875,P15,D00,0,0,0
2201,-1.1,1645184391.0625,P15,D00,0,0,0
2202,-0.62,1645184391.078125,P15,D00,0,0,0
2203,-0.16,1645184391.09375,P15,D00,0,0,0
2204,0.16,1645184391.109375,P15,D00,0,0,0
2205,0.27,1645184391.125,P15,D00,0,0,0
2206,0.19,1645184391.140625,P15,D00,0,0,0
2207,0.01,1645184391.15625,P15,D00,0,0,0
2208,-0.15,1645184391.171875,P15,D00,0,0,0
2209,-0.17,1645184391.1875,P15,D00,0,0,0
2210,-0.01,1645184391.203125,P15,D00,0,0,0
2211,0.31,1645184391.21875,P15,D00,0,0,0
2212,0.68,1645184391.234375,P15,D00,0,0,0
2213,0.98,1645184391.25,P15,D00,0,0,0
2214,1.1,1645184391.265625,P15,D00,0,0,0
2215,1.0,1645184391.28125,P15,D00,0,0,0
2216,0.69,1645184391.296875,P15,D00,0,0,0
2217,0.25,1645184391.3125,P15,D00,0,0,0
2218,-0.22,1645184391.328125,P15,D00,0,0,0
2219,-0.63,1645184391.34375,P15,D00,0,0,0
2220,-0.88,1645184391.359375,P15,D00,0,0,0
2221,-0.93,1645184391.375,P15,D00,0,0,0
2222,-0.79,1645184391.390625,P15,D00,0,0,0
2223,-0.55,1645184391.40625,P15,D00,0,0,0
2224,-0.33,1645184391.421875,P15,D00,0,0,0
2225,-0.22,1645184391.4375,P15,D00,0,0,0
2226,-0.27,1645184391.453125,P15,D00,0,0,0
2227,-0.42,1645184391.46875,P15,D00,0,0,0
2228,-0.52,1645184391.484375,P15,D00,0,0,0
2229,-0.43,1645184391.5,P15,D00,0,0,0
2230,-0.1,1645184391.515625,P15,D00,0,0,0
2231,0.37,1645184391.53125,P15,D00,0,0,0
2232,0.8,1645184391.546875,P15,D00,0,0,0
2233,0.99,1645184391.5625,P15,D00,0,0,0
2234,0.83,1645184391.578125,P15,D00,0,0,0
2235,0.39,1645184391.59375,P15,D00,0,0,0
2236,-0.11,1645184391.609375,P15,D00,0,0,0
2237,-0.45,1645184391.625,P15,D00,0,0,0
2238,-0.47,1645184391.640625,P15,D00,0,0,0
2239,-0.21,1645184391.65625,P15,D00,0,0,0
2240,0.16,1645184391.671875,P15,D00,0,0,0
2241,0.44,1645184391.6875,P15,D00,0,0,0
2242,0.52,1645184391.703125,P15,D00,0,0,0
2243,0.4,1645184391.71875,P15,D00,0,0,0
2244,0.22,1645184391.734375,P15,D00,0,0,0
2245,0.11,1645184391.75,P15,D00,0,0,0
2246,0.12,1645184391.765625,P15,D00,0,0,0
2247,0.2,1645184391.78125,P15,D00,0,0,0
2248,0.24,1645184391.796875,P15,D00,0,0,0
2249,0.18,1645184391.8125,P15,D00,0,0,0
2250,0.06,1645184391.828125,P15,D00,0,0,0
2251,-0.01,1645184391.84375,P15,D00,0,0,0
2252,0.12,1645184391.859375,P15,D00,0,0,0
2253,0.51,1645184391.875,P15,D00,0,0,0
2254,1.07,1645184391.890625,P15,D00,0,0,0
2255,1.6,1645184391.90625,P15,D00,0,0,0
2256,1.89,1645184391.921875,P15,D00,0,0,0
2257,1.81,1645184391.9375,P15,D00,0,0,0
2258,1.38,1645184391.953125,P15,D00,0,0,0
2259,0.73,1645184391.96875,P15,D00,0,0,0
2260,0.09,1645184391.984375,P15,D00,0,0,0
2261,-0.39,1645184392.0,P15,D00,0,0,0
2262,-0.61,1645184392.015625,P15,D00,0,0,0
2263,-0.59,1645184392.03125,P15,D00,0,0,0
2264,-0.43,1645184392.046875,P15,D00,0,0,0
2265,-0.22,1645184392.0625,P15,D00,0,0,0
2266,0.01,1645184392.078125,P15,D00,0,0,0
2267,0.24,1645184392.09375,P15,D00,0,0,0
2268,0.49,1645184392.109375,P15,D00,0,0,0
2269,0.73,1645184392.125,P15,D00,0,0,0
2270,0.89,1645184392.140625,P15,D00,0,0,0
2271,0.89,1645184392.15625,P15,D00,0,0,0
2272,0.68,1645184392.171875,P15,D00,0,0,0
2273,0.28,1645184392.1875,P15,D00,0,0,0
2274,-0.16,1645184392.203125,P15,D00,0,0,0
2275,-0.5,1645184392.21875,P15,D00,0,0,0
2276,-0.6,1645184392.234375,P15,D00,0,0,0
2277,-0.42,1645184392.25,P15,D00,0,0,0
2278,-0.04,1645184392.265625,P15,D00,0,0,0
2279,0.37,1645184392.28125,P15,D00,0,0,0
2280,0.65,1645184392.296875,P15,D00,0,0,0
2281,0.71,1645184392.3125,P15,D00,0,0,0
2282,0.56,1645184392.328125,P15,D00,0,0,0
2283,0.28,1645184392.34375,P15,D00,0,0,0
2284,-0.04,1645184392.359375,P15,D00,0,0,0
2285,-0.34,1645184392.375,P15,D00,0,0,0
2286,-0.62,1645184392.390625,P15,D00,0,0,0
2287,-0.88,1645184392.40625,P15,D00,0,0,0
2288,-1.13,1645184392.421875,P15,D00,0,0,0
2289,-1.3,1645184392.4375,P15,D00,0,0,0
2290,-1.32,1645184392.453125,P15,D00,0,0,0
2291,-1.1,1645184392.46875,P15,D00,0,0,0
2292,-0.63,1645184392.484375,P15,D00,0,0,0
2293,0.02,1645184392.5,P15,D00,0,0,0
2294,0.68,1645184392.515625,P15,D00,0,0,0
2295,1.19,1645184392.53125,P15,D00,0,0,0
2296,1.47,1645184392.546875,P15,D00,0,0,0
2297,1.51,1645184392.5625,P15,D00,0,0,0
2298,1.41,1645184392.578125,P15,D00,0,0,0
2299,1.26,1645184392.59375,P15,D00,0,0,0
2300,1.11,1645184392.609375,P15,D00,0,0,0
2301,0.94,1645184392.625,P15,D00,0,0,0
2302,0.7,1645184392.640625,P15,D00,0,0,0
2303,0.34,1645184392.65625,P15,D00,0,0,0
2304,-0.09,1645184392.671875,P15,D00,0,0,0
2305,-0.51,1645184392.6875,P15,D00,0,0,0
2306,-0.83,1645184392.703125,P15,D00,0,0,0
2307,-1.0,1645184392.71875,P15,D00,0,0,0
2308,-1.0,1645184392.734375,P15,D00,0,0,0
2309,-0.9,1645184392.75,P15,D00,0,0,0
2310,-0.74,1645184392.765625,P15,D00,0,0,0
2311,-0.58,1645184392.78125,P15,D00,0,0,0
2312,-0.44,1645184392.796875,P15,D00,0,0,0
2313,-0.34,1645184392.8125,P15,D00,0,0,0
2314,-0.27,1645184392.828125,P15,D00,0,0,0
2315,-0.22,1645184392.84375,P15,D00,0,0,0
2316,-0.18,1645184392.859375,P15,D00,0,0,0
2317,-0.12,1645184392.875,P15,D00,0,0,0
2318,-0.05,1645184392.890625,P15,D00,0,0,0
2319,-0.0,1645184392.90625,P15,D00,0,0,0
2320,-0.03,1645184392.921875,P15,D00,0,0,0
2321,-0.17,1645184392.9375,P15,D00,0,0,0
2322,-0.43,1645184392.953125,P15,D00,0,0,0
2323,-0.71,1645184392.96875,P15,D00,0,0,0
2324,-0.92,1645184392.984375,P15,D00,0,0,0
2325,-0.97,1645184393.0,P15,D00,0,0,0
2326,-0.86,1645184393.015625,P15,D00,0,0,0
2327,-0.62,1645184393.03125,P15,D00,0,0,0
2328,-0.35,1645184393.046875,P15,D00,0,0,0
2329,-0.12,1645184393.0625,P15,D00,0,0,0
2330,0.06,1645184393.078125,P15,D00,0,0,0
2331,0.2,1645184393.09375,P15,D00,0,0,0
2332,0.34,1645184393.109375,P15,D00,0,0,0
2333,0.52,1645184393.125,P15,D00,0,0,0
2334,0.73,1645184393.140625,P15,D00,0,0,0
2335,0.93,1645184393.15625,P15,D00,0,0,0
2336,1.08,1645184393.171875,P15,D00,0,0,0
2337,1.1,1645184393.1875,P15,D00,0,0,0
2338,1.0,1645184393.203125,P15,D00,0,0,0
2339,0.8,1645184393.21875,P15,D00,0,0,0
2340,0.57,1645184393.234375,P15,D00,0,0,0
2341,0.37,1645184393.25,P15,D00,0,0,0
2342,0.25,1645184393.265625,P15,D00,0,0,0
2343,0.23,1645184393.28125,P15,D00,0,0,0
2344,0.26,1645184393.296875,P15,D00,0,0,0
2345,0.28,1645184393.3125,P15,D00,0,0,0
2346,0.23,1645184393.328125,P15,D00,0,0,0
2347,0.06,1645184393.34375,P15,D00,0,0,0
2348,-0.19,1645184393.359375,P15,D00,0,0,0
2349,-0.46,1645184393.375,P15,D00,0,0,0
2350,-0.67,1645184393.390625,P15,D00,0,0,0
2351,-0.75,1645184393.40625,P15,D00,0,0,0
2352,-0.68,1645184393.421875,P15,D00,0,0,0
2353,-0.48,1645184393.4375,P15,D00,0,0,0
2354,-0.2,1645184393.453125,P15,D00,0,0,0
2355,0.11,1645184393.46875,P15,D00,0,0,0
2356,0.35,1645184393.484375,P15,D00,0,0,0
2357,0.48,1645184393.5,P15,D00,0,0,0
2358,0.41,1645184393.515625,P15,D00,0,0,0
2359,0.1,1645184393.53125,P15,D00,0,0,0
2360,-0.45,1645184393.546875,P15,D00,0,0,0
2361,-1.16,1645184393.5625,P15,D00,0,0,0
2362,-1.87,1645184393.578125,P15,D00,0,0,0
2363,-2.35,1645184393.59375,P15,D00,0,0,0
2364,-2.45,1645184393.609375,P15,D00,0,0,0
2365,-2.11,1645184393.625,P15,D00,0,0,0
2366,-1.44,1645184393.640625,P15,D00,0,0,0
2367,-0.68,1645184393.65625,P15,D00,0,0,0
2368,-0.1,1645184393.671875,P15,D00,0,0,0
2369,0.11,1645184393.6875,P15,D00,0,0,0
2370,-0.06,1645184393.703125,P15,D00,0,0,0
2371,-0.49,1645184393.71875,P15,D00,0,0,0
2372,-0.93,1645184393.734375,P15,D00,0,0,0
2373,-1.16,1645184393.75,P15,D00,0,0,0
2374,-1.11,1645184393.765625,P15,D00,0,0,0
2375,-0.81,1645184393.78125,P15,D00,0,0,0
2376,-0.42,1645184393.796875,P15,D00,0,0,0
2377,-0.12,1645184393.8125,P15,D00,0,0,0
2378,-0.0,1645184393.828125,P15,D00,0,0,0
2379,-0.05,1645184393.84375,P15,D00,0,0,0
2380,-0.18,1645184393.859375,P15,D00,0,0,0
2381,-0.33,1645184393.875,P15,D00,0,0,0
2382,-0.46,1645184393.890625,P15,D00,0,0,0
2383,-0.56,1645184393.90625,P15,D00,0,0,0
2384,-0.65,1645184393.921875,P15,D00,0,0,0
2385,-0.71,1645184393.9375,P15,D00,0,0,0
2386,-0.67,1645184393.953125,P15,D00,0,0,0
2387,-0.47,1645184393.96875,P15,D00,0,0,0
2388,-0.13,1645184393.984375,P15,D00,0,0,0
2389,0.26,1645184394.0,P15,D00,0,0,0
2390,0.59,1645184394.015625,P15,D00,0,0,0
2391,0.75,1645184394.03125,P15,D00,0,0,0
2392,0.71,1645184394.046875,P15,D00,0,0,0
2393,0.5,1645184394.0625,P15,D00,0,0,0
2394,0.17,1645184394.078125,P15,D00,0,0,0
2395,-0.19,1645184394.09375,P15,D00,0,0,0
2396,-0.53,1645184394.109375,P15,D00,0,0,0
2397,-0.78,1645184394.125,P15,D00,0,0,0
2398,-0.87,1645184394.140625,P15,D00,0,0,0
2399,-0.75,1645184394.15625,P15,D00,0,0,0
2400,-0.47,1645184394.171875,P15,D00,0,0,0
2401,-0.14,1645184394.1875,P15,D00,0,0,0
2402,0.08,1645184394.203125,P15,D00,0,0,0
2403,0.06,1645184394.21875,P15,D00,0,0,0
2404,-0.18,1645184394.234375,P15,D00,0,0,0
2405,-0.52,1645184394.25,P15,D00,0,0,0
2406,-0.73,1645184394.265625,P15,D00,0,0,0
2407,-0.63,1645184394.28125,P15,D00,0,0,0
2408,-0.23,1645184394.296875,P15,D00,0,0,0
2409,0.33,1645184394.3125,P15,D00,0,0,0
2410,0.83,1645184394.328125,P15,D00,0,0,0
2411,1.1,1645184394.34375,P15,D00,0,0,0
2412,1.13,1645184394.359375,P15,D00,0,0,0
2413,1.04,1645184394.375,P15,D00,0,0,0
2414,0.98,1645184394.390625,P15,D00,0,0,0
2415,1.05,1645184394.40625,P15,D00,0,0,0
2416,1.25,1645184394.421875,P15,D00,0,0,0
2417,1.46,1645184394.4375,P15,D00,0,0,0
2418,1.59,1645184394.453125,P15,D00,0,0,0
2419,1.56,1645184394.46875,P15,D00,0,0,0
2420,1.39,1645184394.484375,P15,D00,0,0,0
2421,1.15,1645184394.5,P15,D00,0,0,0
2422,0.9,1645184394.515625,P15,D00,0,0,0
2423,0.67,1645184394.53125,P15,D00,0,0,0
2424,0.49,1645184394.546875,P15,D00,0,0,0
2425,0.36,1645184394.5625,P15,D00,0,0,0
2426,0.26,1645184394.578125,P15,D00,0,0,0
2427,0.22,1645184394.59375,P15,D00,0,0,0
2428,0.24,1645184394.609375,P15,D00,0,0,0
2429,0.28,1645184394.625,P15,D00,0,0,0
2430,0.33,1645184394.640625,P15,D00,0,0,0
2431,0.36,1645184394.65625,P15,D00,0,0,0
2432,0.36,1645184394.671875,P15,D00,0,0,0
2433,0.33,1645184394.6875,P15,D00,0,0,0
2434,0.3,1645184394.703125,P15,D00,0,0,0
2435,0.29,1645184394.71875,P15,D00,0,0,0
2436,0.3,1645184394.734375,P15,D00,0,0,0
2437,0.33,1645184394.75,P15,D00,0,0,0
2438,0.33,1645184394.765625,P15,D00,0,0,0
2439,0.26,1645184394.78125,P15,D00,0,0,0
2440,0.11,1645184394.796875,P15,D00,0,0,0
2441,-0.1,1645184394.8125,P15,D00,0,0,0
2442,-0.3,1645184394.828125,P15,D00,0,0,0
2443,-0.44,1645184394.84375,P15,D00,0,0,0
2444,-0.47,1645184394.859375,P15,D00,0,0,0
2445,-0.37,1645184394.875,P15,D00,0,0,0
2446,-0.19,1645184394.890625,P15,D00,0,0,0
2447,0.04,1645184394.90625,P15,D00,0,0,0
2448,0.26,1645184394.921875,P15,D00,0,0,0
2449,0.48,1645184394.9375,P15,D00,0,0,0
2450,0.69,1645184394.953125,P15,D00,0,0,0
2451,0.86,1645184394.96875,P15,D00,0,0,0
2452,0.95,1645184394.984375,P15,D00,0,0,0
2453,0.86,1645184395.0,P15,D00,0,0,0
2454,0.58,1645184395.015625,P15,D00,0,0,0
2455,0.16,1645184395.03125,P15,D00,0,0,0
2456,-0.26,1645184395.046875,P15,D00,0,0,0
2457,-0.56,1645184395.0625,P15,D00,0,0,0
2458,-0.66,1645184395.078125,P15,D00,0,0,0
2459,-0.63,1645184395.09375,P15,D00,0,0,0
2460,-0.58,1645184395.109375,P15,D00,0,0,0
2461,-0.64,1645184395.125,P15,D00,0,0,0
2462,-0.84,1645184395.140625,P15,D00,0,0,0
2463,-1.11,1645184395.15625,P15,D00,0,0,0
2464,-1.35,1645184395.171875,P15,D00,0,0,0
2465,-1.45,1645184395.1875,P15,D00,0,0,0
2466,-1.41,1645184395.203125,P15,D00,0,0,0
2467,-1.28,1645184395.21875,P15,D00,0,0,0
2468,-1.09,1645184395.234375,P15,D00,0,0,0
2469,-0.88,1645184395.25,P15,D00,0,0,0
2470,-0.61,1645184395.265625,P15,D00,0,0,0
2471,-0.27,1645184395.28125,P15,D00,0,0,0
2472,0.1,1645184395.296875,P15,D00,0,0,0
2473,0.38,1645184395.3125,P15,D00,0,0,0
2474,0.49,1645184395.328125,P15,D00,0,0,0
2475,0.37,1645184395.34375,P15,D00,0,0,0
2476,0.09,1645184395.359375,P15,D00,0,0,0
2477,-0.22,1645184395.375,P15,D00,0,0,0
2478,-0.42,1645184395.390625,P15,D00,0,0,0
2479,-0.44,1645184395.40625,P15,D00,0,0,0
2480,-0.31,1645184395.421875,P15,D00,0,0,0
2481,-0.16,1645184395.4375,P15,D00,0,0,0
2482,-0.09,1645184395.453125,P15,D00,0,0,0
2483,-0.16,1645184395.46875,P15,D00,0,0,0
2484,-0.33,1645184395.484375,P15,D00,0,0,0
2485,-0.51,1645184395.5,P15,D00,0,0,0
2486,-0.62,1645184395.515625,P15,D00,0,0,0
2487,-0.64,1645184395.53125,P15,D00,0,0,0
2488,-0.59,1645184395.546875,P15,D00,0,0,0
2489,-0.53,1645184395.5625,P15,D00,0,0,0
2490,-0.48,1645184395.578125,P15,D00,0,0,0
2491,-0.42,1645184395.59375,P15,D00,0,0,0
2492,-0.31,1645184395.609375,P15,D00,0,0,0
2493,-0.14,1645184395.625,P15,D00,0,0,0
2494,0.06,1645184395.640625,P15,D00,0,0,0
2495,0.23,1645184395.65625,P15,D00,0,0,0
2496,0.31,1645184395.671875,P15,D00,0,0,0
2497,0.31,1645184395.6875,P15,D00,0,0,0
2498,0.28,1645184395.703125,P15,D00,0,0,0
2499,0.3,1645184395.71875,P15,D00,0,0,0
2500,0.37,1645184395.734375,P15,D00,0,0,0
2501,0.45,1645184395.75,P15,D00,0,0,0
2502,0.46,1645184395.765625,P15,D00,0,0,0
2503,0.37,1645184395.78125,P15,D00,0,0,0
2504,0.18,1645184395.796875,P15,D00,0,0,0
2505,-0.04,1645184395.8125,P15,D00,0,0,0
2506,-0.21,1645184395.828125,P15,D00,0,0,0
2507,-0.31,1645184395.84375,P15,D00,0,0,0
2508,-0.37,1645184395.859375,P15,D00,0,0,0
2509,-0.44,1645184395.875,P15,D00,0,0,0
2510,-0.53,1645184395.890625,P15,D00,0,0,0
2511,-0.6,1645184395.90625,P15,D00,0,0,0
2512,-0.58,1645184395.921875,P15,D00,0,0,0
2513,-0.4,1645184395.9375,P15,D00,0,0,0
2514,-0.1,1645184395.953125,P15,D00,0,0,0
2515,0.26,1645184395.96875,P15,D00,0,0,0
2516,0.57,1645184395.984375,P15,D00,0,0,0
2517,0.8,1645184396.0,P15,D00,0,0,0
2518,0.94,1645184396.015625,P15,D00,0,0,0
2519,1.06,1645184396.03125,P15,D00,0,0,0
2520,1.16,1645184396.046875,P15,D00,0,0,0
2521,1.23,1645184396.0625,P15,D00,0,0,0
2522,1.24,1645184396.078125,P15,D00,0,0,0
2523,1.15,1645184396.09375,P15,D00,0,0,0
2524,1.02,1645184396.109375,P15,D00,0,0,0
2525,0.96,1645184396.125,P15,D00,0,0,0
2526,1.06,1645184396.140625,P15,D00,0,0,0
2527,1.34,1645184396.15625,P15,D00,0,0,0
2528,1.72,1645184396.171875,P15,D00,0,0,0
2529,2.03,1645184396.1875,P15,D00,0,0,0
2530,2.14,1645184396.203125,P15,D00,0,0,0
2531,1.99,1645184396.21875,P15,D00,0,0,0
2532,1.65,1645184396.234375,P15,D00,0,0,0
2533,1.28,1645184396.25,P15,D00,0,0,0
2534,0.99,1645184396.265625,P15,D00,0,0,0
2535,0.8,1645184396.28125,P15,D00,0,0,0
2536,0.66,1645184396.296875,P15,D00,0,0,0
2537,0.5,1645184396.3125,P15,D00,0,0,0
2538,0.28,1645184396.328125,P15,D00,0,0,0
2539,0.0,1645184396.34375,P15,D00,0,0,0
2540,-0.28,1645184396.359375,P15,D00,0,0,0
2541,-0.51,1645184396.375,P15,D00,0,0,0
2542,-0.7,1645184396.390625,P15,D00,0,0,0
2543,-0.85,1645184396.40625,P15,D00,0,0,0
2544,-0.98,1645184396.421875,P15,D00,0,0,0
2545,-1.11,1645184396.4375,P15,D00,0,0,0
2546,-1.22,1645184396.453125,P15,D00,0,0,0
2547,-1.26,1645184396.46875,P15,D00,0,0,0
2548,-1.24,1645184396.484375,P15,D00,0,0,0
2549,-1.16,1645184396.5,P15,D00,0,0,0
2550,-1.05,1645184396.515625,P15,D00,0,0,0
2551,-0.93,1645184396.53125,P15,D00,0,0,0
2552,-0.81,1645184396.546875,P15,D00,0,0,0
2553,-0.67,1645184396.5625,P15,D00,0,0,0
2554,-0.49,1645184396.578125,P15,D00,0,0,0
2555,-0.26,1645184396.59375,P15,D00,0,0,0
2556,-0.02,1645184396.609375,P15,D00,0,0,0
2557,0.17,1645184396.625,P15,D00,0,0,0
2558,0.3,1645184396.640625,P15,D00,0,0,0
2559,0.33,1645184396.65625,P15,D00,0,0,0
2560,0.27,1645184396.671875,P15,D00,0,0,0
2561,0.17,1645184396.6875,P15,D00,0,0,0
2562,0.07,1645184396.703125,P15,D00,0,0,0
2563,0.03,1645184396.71875,P15,D00,0,0,0
2564,0.09,1645184396.734375,P15,D00,0,0,0
2565,0.29,1645184396.75,P15,D00,0,0,0
2566,0.58,1645184396.765625,P15,D00,0,0,0
2567,0.91,1645184396.78125,P15,D00,0,0,0
2568,1.14,1645184396.796875,P15,D00,0,0,0
2569,1.16,1645184396.8125,P15,D00,0,0,0
2570,0.9,1645184396.828125,P15,D00,0,0,0
2571,0.37,1645184396.84375,P15,D00,0,0,0
2572,-0.31,1645184396.859375,P15,D00,0,0,0
2573,-0.94,1645184396.875,P15,D00,0,0,0
2574,-1.34,1645184396.890625,P15,D00,0,0,0
2575,-1.43,1645184396.90625,P15,D00,0,0,0
2576,-1.23,1645184396.921875,P15,D00,0,0,0
2577,-0.86,1645184396.9375,P15,D00,0,0,0
2578,-0.47,1645184396.953125,P15,D00,0,0,0
2579,-0.17,1645184396.96875,P15,D00,0,0,0
2580,-0.01,1645184396.984375,P15,D00,0,0,0
2581,0.01,1645184397.0,P15,D00,0,0,0
2582,-0.07,1645184397.015625,P15,D00,0,0,0
2583,-0.18,1645184397.03125,P15,D00,0,0,0
2584,-0.27,1645184397.046875,P15,D00,0,0,0
2585,-0.31,1645184397.0625,P15,D00,0,0,0
2586,-0.29,1645184397.078125,P15,D00,0,0,0
2587,-0.2,1645184397.09375,P15,D00,0,0,0
2588,-0.05,1645184397.109375,P15,D00,0,0,0
2589,0.16,1645184397.125,P15,D00,0,0,0
2590,0.45,1645184397.140625,P15,D00,0,0,0
2591,0.83,1645184397.15625,P15,D00,0,0,0
2592,1.24,1645184397.171875,P15,D00,0,0,0
2593,1.57,1645184397.1875,P15,D00,0,0,0
2594,1.68,1645184397.203125,P15,D00,0,0,0
2595,1.47,1645184397.21875,P15,D00,0,0,0
2596,0.97,1645184397.234375,P15,D00,0,0,0
2597,0.33,1645184397.25,P15,D00,0,0,0
2598,-0.23,1645184397.265625,P15,D00,0,0,0
2599,-0.55,1645184397.28125,P15,D00,0,0,0
2600,-0.61,1645184397.296875,P15,D00,0,0,0
2601,-0.55,1645184397.3125,P15,D00,0,0,0
2602,-0.52,1645184397.328125,P15,D00,0,0,0
2603,-0.62,1645184397.34375,P15,D00,0,0,0
2604,-0.81,1645184397.359375,P15,D00,0,0,0
2605,-0.96,1645184397.375,P15,D00,0,0,0
2606,-0.94,1645184397.390625,P15,D00,0,0,0
2607,-0.75,1645184397.40625,P15,D00,0,0,0
2608,-0.52,1645184397.421875,P15,D00,0,0,0
2609,-0.41,1645184397.4375,P15,D00,0,0,0
2610,-0.5,1645184397.453125,P15,D00,0,0,0
2611,-0.77,1645184397.46875,P15,D00,0,0,0
2612,-1.04,1645184397.484375,P15,D00,0,0,0
2613,-1.17,1645184397.5,P15,D00,0,0,0
2614,-1.07,1645184397.515625,P15,D00,0,0,0
2615,-0.82,1645184397.53125,P15,D00,0,0,0
2616,-0.57,1645184397.546875,P15,D00,0,0,0
2617,-0.44,1645184397.5625,P15,D00,0,0,0
2618,-0.52,1645184397.578125,P15,D00,0,0,0
2619,-0.74,1645184397.59375,P15,D00,0,0,0
2620,-0.99,1645184397.609375,P15,D00,0,0,0
2621,-1.15,1645184397.625,P15,D00,0,0,0
2622,-1.2,1645184397.640625,P15,D00,0,0,0
2623,-1.17,1645184397.65625,P15,D00,0,0,0
2624,-1.13,1645184397.671875,P15,D00,0,0,0
2625,-1.13,1645184397.6875,P15,D00,0,0,0
2626,-1.12,1645184397.703125,P15,D00,0,0,0
2627,-1.03,1645184397.71875,P15,D00,0,0,0
2628,-0.78,1645184397.734375,P15,D00,0,0,0
2629,-0.37,1645184397.75,P15,D00,0,0,0
2630,0.13,1645184397.765625,P15,D00,0,0,0
2631,0.56,1645184397.78125,P15,D00,0,0,0
2632,0.82,1645184397.796875,P15,D00,0,0,0
2633,0.87,1645184397.8125,P15,D00,0,0,0
2634,0.79,1645184397.828125,P15,D00,0,0,0
2635,0.69,1645184397.84375,P15,D00,0,0,0
2636,0.67,1645184397.859375,P15,D00,0,0,0
2637,0.75,1645184397.875,P15,D00,0,0,0
2638,0.86,1645184397.890625,P15,D00,0,0,0
2639,0.92,1645184397.90625,P15,D00,0,0,0
2640,0.89,1645184397.921875,P15,D00,0,0,0
2641,0.81,1645184397.9375,P15,D00,0,0,0
2642,0.75,1645184397.953125,P15,D00,0,0,0
2643,0.79,1645184397.96875,P15,D00,0,0,0
2644,0.93,1645184397.984375,P15,D00,0,0,0
2645,1.09,1645184398.0,P15,D00,0,0,0
2646,1.14,1645184398.015625,P15,D00,0,0,0
2647,0.99,1645184398.03125,P15,D00,0,0,0
2648,0.64,1645184398.046875,P15,D00,0,0,0
2649,0.21,1645184398.0625,P15,D00,0,0,0
2650,-0.22,1645184398.078125,P15,D00,0,0,0
2651,-0.56,1645184398.09375,P15,D00,0,0,0
2652,-0.8,1645184398.109375,P15,D00,0,0,0
2653,-0.96,1645184398.125,P15,D00,0,0,0
2654,-1.05,1645184398.140625,P15,D00,0,0,0
2655,-1.03,1645184398.15625,P15,D00,0,0,0
2656,-0.87,1645184398.171875,P15,D00,0,0,0
2657,-0.59,1645184398.1875,P15,D00,0,0,0
2658,-0.29,1645184398.203125,P15,D00,0,0,0
2659,-0.11,1645184398.21875,P15,D00,0,0,0
2660,-0.18,1645184398.234375,P15,D00,0,0,0
2661,-0.49,1645184398.25,P15,D00,0,0,0
2662,-0.94,1645184398.265625,P15,D00,0,0,0
2663,-1.36,1645184398.28125,P15,D00,0,0,0
2664,-1.6,1645184398.296875,P15,D00,0,0,0
2665,-1.56,1645184398.3125,P15,D00,0,0,0
2666,-1.28,1645184398.328125,P15,D00,0,0,0
2667,-0.87,1645184398.34375,P15,D00,0,0,0
2668,-0.44,1645184398.359375,P15,D00,0,0,0
2669,-0.08,1645184398.375,P15,D00,0,0,0
2670,0.17,1645184398.390625,P15,D00,0,0,0
2671,0.31,1645184398.40625,P15,D00,0,0,0
2672,0.36,1645184398.421875,P15,D00,0,0,0
2673,0.33,1645184398.4375,P15,D00,0,0,0
2674,0.28,1645184398.453125,P15,D00,0,0,0
2675,0.22,1645184398.46875,P15,D00,0,0,0
2676,0.19,1645184398.484375,P15,D00,0,0,0
2677,0.19,1645184398.5,P15,D00,0,0,0
2678,0.22,1645184398.515625,P15,D00,0,0,0
2679,0.26,1645184398.53125,P15,D00,0,0,0
2680,0.29,1645184398.546875,P15,D00,0,0,0
2681,0.3,1645184398.5625,P15,D00,0,0,0
2682,0.29,1645184398.578125,P15,D00,0,0,0
2683,0.28,1645184398.59375,P15,D00,0,0,0
2684,0.33,1645184398.609375,P15,D00,0,0,0
2685,0.47,1645184398.625,P15,D00,0,0,0
2686,0.71,1645184398.640625,P15,D00,0,0,0
2687,0.98,1645184398.65625,P15,D00,0,0,0
2688,1.23,1645184398.671875,P15,D00,0,0,0
2689,1.35,1645184398.6875,P15,D00,0,0,0
2690,1.29,1645184398.703125,P15,D00,0,0,0
2691,1.07,1645184398.71875,P15,D00,0,0,0
2692,0.76,1645184398.734375,P15,D00,0,0,0
2693,0.47,1645184398.75,P15,D00,0,0,0
2694,0.32,1645184398.765625,P15,D00,0,0,0
2695,0.36,1645184398.78125,P15,D00,0,0,0
2696,0.56,1645184398.796875,P15,D00,0,0,0
2697,0.8,1645184398.8125,P15,D00,0,0,0
2698,0.95,1645184398.828125,P15,D00,0,0,0
2699,0.89,1645184398.84375,P15,D00,0,0,0
2700,0.6,1645184398.859375,P15,D00,0,0,0
2701,0.14,1645184398.875,P15,D00,0,0,0
2702,-0.33,1645184398.890625,P15,D00,0,0,0
2703,-0.69,1645184398.90625,P15,D00,0,0,0
2704,-0.88,1645184398.921875,P15,D00,0,0,0
2705,-0.9,1645184398.9375,P15,D00,0,0,0
2706,-0.85,1645184398.953125,P15,D00,0,0,0
2707,-0.82,1645184398.96875,P15,D00,0,0,0
2708,-0.84,1645184398.984375,P15,D00,0,0,0
2709,-0.89,1645184399.0,P15,D00,0,0,0
2710,-0.91,1645184399.015625,P15,D00,0,0,0
2711,-0.87,1645184399.03125,P15,D00,0,0,0
2712,-0.78,1645184399.046875,P15,D00,0,0,0
2713,-0.71,1645184399.0625,P15,D00,0,0,0
2714,-0.7,1645184399.078125,P15,D00,0,0,0
2715,-0.79,1645184399.09375,P15,D00,0,0,0
2716,-0.93,1645184399.109375,P15,D00,0,0,0
2717,-1.05,1645184399.125,P15,D00,0,0,0
2718,-1.1,1645184399.140625,P15,D00,0,0,0
2719,-1.05,1645184399.15625,P15,D00,0,0,0
2720,-0.97,1645184399.171875,P15,D00,0,0,0
2721,-0.9,1645184399.1875,P15,D00,0,0,0
2722,-0.87,1645184399.203125,P15,D00,0,0,0
2723,-0.82,1645184399.21875,P15,D00,0,0,0
2724,-0.67,1645184399.234375,P15,D00,0,0,0
2725,-0.33,1645184399.25,P15,D00,0,0,0
2726,0.21,1645184399.265625,P15,D00,0,0,0
2727,0.86,1645184399.28125,P15,D00,0,0,0
2728,1.48,1645184399.296875,P15,D00,0,0,0
2729,1.94,1645184399.3125,P15,D00,0,0,0
2730,2.14,1645184399.328125,P15,D00,0,0,0
2731,2.1,1645184399.34375,P15,D00,0,0,0
2732,1.88,1645184399.359375,P15,D00,0,0,0
2733,1.59,1645184399.375,P15,D00,0,0,0
2734,1.32,1645184399.390625,P15,D00,0,0,0
2735,1.12,1645184399.40625,P15,D00,0,0,0
2736,1.01,1645184399.421875,P15,D00,0,0,0
2737,0.99,1645184399.4375,P15,D00,0,0,0
2738,1.04,1645184399.453125,P15,D00,0,0,0
2739,1.13,1645184399.46875,P15,D00,0,0,0
2740,1.22,1645184399.484375,P15,D00,0,0,0
2741,1.24,1645184399.5,P15,D00,0,0,0
2742,1.15,1645184399.515625,P15,D00,0,0,0
2743,0.96,1645184399.53125,P15,D00,0,0,0
2744,0.71,1645184399.546875,P15,D00,0,0,0
2745,0.51,1645184399.5625,P15,D00,0,0,0
2746,0.44,1645184399.578125,P15,D00,0,0,0
2747,0.5,1645184399.59375,P15,D00,0,0,0
2748,0.63,1645184399.609375,P15,D00,0,0,0
2749,0.75,1645184399.625,P15,D00,0,0,0
2750,0.77,1645184399.640625,P15,D00,0,0,0
2751,0.71,1645184399.65625,P15,D00,0,0,0
2752,0.59,1645184399.671875,P15,D00,0,0,0
2753,0.44,1645184399.6875,P15,D00,0,0,0
2754,0.27,1645184399.703125,P15,D00,0,0,0
2755,0.08,1645184399.71875,P15,D00,0,0,0
2756,-0.12,1645184399.734375,P15,D00,0,0,0
2757,-0.29,1645184399.75,P15,D00,0,0,0
2758,-0.39,1645184399.765625,P15,D00,0,0,0
2759,-0.39,1645184399.78125,P15,D00,0,0,0
2760,-0.32,1645184399.796875,P15,D00,0,0,0
2761,-0.25,1645184399.8125,P15,D00,0,0,0
2762,-0.24,1645184399.828125,P15,D00,0,0,0
2763,-0.25,1645184399.84375,P15,D00,0,0,0
2764,-0.22,1645184399.859375,P15,D00,0,0,0
2765,-0.08,1645184399.875,P15,D00,0,0,0
2766,0.18,1645184399.890625,P15,D00,0,0,0
2767,0.46,1645184399.90625,P15,D00,0,0,0
2768,0.61,1645184399.921875,P15,D00,0,0,0
2769,0.54,1645184399.9375,P15,D00,0,0,0
2770,0.24,1645184399.953125,P15,D00,0,0,0
2771,-0.17,1645184399.96875,P15,D00,0,0,0
2772,-0.52,1645184399.984375,P15,D00,0,0,0
2773,-0.69,1645184400.0,P15,D00,0,0,0
2774,-0.65,1645184400.015625,P15,D00,0,0,0
2775,-0.49,1645184400.03125,P15,D00,0,0,0
2776,-0.36,1645184400.046875,P15,D00,0,0,0
2777,-0.39,1645184400.0625,P15,D00,0,0,0
2778,-0.63,1645184400.078125,P15,D00,0,0,0
2779,-1.02,1645184400.09375,P15,D00,0,0,0
2780,-1.4,1645184400.109375,P15,D00,0,0,0
2781,-1.65,1645184400.125,P15,D00,0,0,0
2782,-1.66,1645184400.140625,P15,D00,0,0,0
2783,-1.46,1645184400.15625,P15,D00,0,0,0
2784,-1.17,1645184400.171875,P15,D00,0,0,0
2785,-0.91,1645184400.1875,P15,D00,0,0,0
2786,-0.76,1645184400.203125,P15,D00,0,0,0
2787,-0.7,1645184400.21875,P15,D00,0,0,0
2788,-0.65,1645184400.234375,P15,D00,0,0,0
2789,-0.53,1645184400.25,P15,D00,0,0,0
2790,-0.32,1645184400.265625,P15,D00,0,0,0
2791,-0.09,1645184400.28125,P15,D00,0,0,0
2792,0.08,1645184400.296875,P15,D00,0,0,0
2793,0.14,1645184400.3125,P15,D00,0,0,0
2794,0.14,1645184400.328125,P15,D00,0,0,0
2795,0.15,1645184400.34375,P15,D00,0,0,0
2796,0.26,1645184400.359375,P15,D00,0,0,0
2797,0.5,1645184400.375,P15,D00,0,0,0
2798,0.81,1645184400.390625,P15,D00,0,0,0
2799,1.11,1645184400.40625,P15,D00,0,0,0
2800,1.32,1645184400.421875,P15,D00,0,0,0
2801,1.41,1645184400.4375,P15,D00,0,0,0
2802,1.39,1645184400.453125,P15,D00,0,0,0
2803,1.32,1645184400.46875,P15,D00,0,0,0
2804,1.24,1645184400.484375,P15,D00,0,0,0
2805,1.17,1645184400.5,P15,D00,0,0,0
2806,1.1,1645184400.515625,P15,D00,0,0,0
2807,1.02,1645184400.53125,P15,D00,0,0,0
2808,0.92,1645184400.546875,P15,D00,0,0,0
2809,0.8,1645184400.5625,P15,D00,0,0,0
2810,0.68,1645184400.578125,P15,D00,0,0,0
2811,0.58,1645184400.59375,P15,D00,0,0,0
2812,0.47,1645184400.609375,P15,D00,0,0,0
2813,0.32,1645184400.625,P15,D00,0,0,0
2814,0.07,1645184400.640625,P15,D00,0,0,0
2815,-0.27,1645184400.65625,P15,D00,0,0,0
2816,-0.64,1645184400.671875,P15,D00,0,0,0
2817,-0.93,1645184400.6875,P15,D00,0,0,0
2818,-0.99,1645184400.703125,P15,D00,0,0,0
2819,-0.73,1645184400.71875,P15,D00,0,0,0
2820,-0.19,1645184400.734375,P15,D00,0,0,0
2821,0.47,1645184400.75,P15,D00,0,0,0
2822,1.0,1645184400.765625,P15,D00,0,0,0
2823,1.17,1645184400.78125,P15,D00,0,0,0
2824,0.9,1645184400.796875,P15,D00,0,0,0
2825,0.22,1645184400.8125,P15,D00,0,0,0
2826,-0.63,1645184400.828125,P15,D00,0,0,0
2827,-1.35,1645184400.84375,P15,D00,0,0,0
2828,-1.73,1645184400.859375,P15,D00,0,0,0
2829,-1.69,1645184400.875,P15,D00,0,0,0
2830,-1.36,1645184400.890625,P15,D00,0,0,0
2831,-0.98,1645184400.90625,P15,D00,0,0,0
2832,-0.8,1645184400.921875,P15,D00,0,0,0
2833,-0.91,1645184400.9375,P15,D00,0,0,0
2834,-1.26,1645184400.953125,P15,D00,0,0,0
2835,-1.66,1645184400.96875,P15,D00,0,0,0
2836,-1.88,1645184400.984375,P15,D00,0,0,0
2837,-1.82,1645184401.0,P15,D00,0,0,0
2838,-1.51,1645184401.015625,P15,D00,0,0,0
2839,-1.06,1645184401.03125,P15,D00,0,0,0
2840,-0.66,1645184401.046875,P15,D00,0,0,0
2841,-0.4,1645184401.0625,P15,D00,0,0,0
2842,-0.29,1645184401.078125,P15,D00,0,0,0
2843,-0.29,1645184401.09375,P15,D00,0,0,0
2844,-0.32,1645184401.109375,P15,D00,0,0,0
2845,-0.34,1645184401.125,P15,D00,0,0,0
2846,-0.35,1645184401.140625,P15,D00,0,0,0
2847,-0.34,1645184401.15625,P15,D00,0,0,0
2848,-0.33,1645184401.171875,P15,D00,0,0,0
2849,-0.31,1645184401.1875,P15,D00,0,0,0
2850,-0.3,1645184401.203125,P15,D00,0,0,0
2851,-0.29,1645184401.21875,P15,D00,0,0,0
2852,-0.31,1645184401.234375,P15,D00,0,0,0
2853,-0.37,1645184401.25,P15,D00,0,0,0
2854,-0.44,1645184401.265625,P15,D00,0,0,0
2855,-0.47,1645184401.28125,P15,D00,0,0,0
2856,-0.39,1645184401.296875,P15,D00,0,0,0
2857,-0.17,1645184401.3125,P15,D00,0,0,0
2858,0.2,1645184401.328125,P15,D00,0,0,0
2859,0.64,1645184401.34375,P15,D00,0,0,0
2860,1.04,1645184401.359375,P15,D00,0,0,0
2861,1.23,1645184401.375,P15,D00,0,0,0
2862,1.12,1645184401.390625,P15,D00,0,0,0
2863,0.68,1645184401.40625,P15,D00,0,0,0
2864,0.02,1645184401.421875,P15,D00,0,0,0
2865,-0.68,1645184401.4375,P15,D00,0,0,0
2866,-1.21,1645184401.453125,P15,D00,0,0,0
2867,-1.42,1645184401.46875,P15,D00,0,0,0
2868,-1.33,1645184401.484375,P15,D00,0,0,0
2869,-1.04,1645184401.5,P15,D00,0,0,0
2870,-0.75,1645184401.515625,P15,D00,0,0,0
2871,-0.6,1645184401.53125,P15,D00,0,0,0
2872,-0.65,1645184401.546875,P15,D00,0,0,0
2873,-0.82,1645184401.5625,P15,D00,0,0,0
2874,-1.02,1645184401.578125,P15,D00,0,0,0
2875,-1.13,1645184401.59375,P15,D00,0,0,0
2876,-1.12,1645184401.609375,P15,D00,0,0,0
2877,-1.02,1645184401.625,P15,D00,0,0,0
2878,-0.87,1645184401.640625,P15,D00,0,0,0
2879,-0.68,1645184401.65625,P15,D00,0,0,0
2880,-0.4,1645184401.671875,P15,D00,0,0,0
2881,0.03,1645184401.6875,P15,D00,0,0,0
2882,0.65,1645184401.703125,P15,D00,0,0,0
2883,1.39,1645184401.71875,P15,D00,0,0,0
2884,2.11,1645184401.734375,P15,D00,0,0,0
2885,2.68,1645184401.75,P15,D00,0,0,0
2886,3.02,1645184401.765625,P15,D00,0,0,0
2887,3.18,1645184401.78125,P15,D00,0,0,0
2888,3.31,1645184401.796875,P15,D00,0,0,0
2889,3.54,1645184401.8125,P15,D00,0,0,0
2890,3.94,1645184401.828125,P15,D00,0,0,0
2891,4.46,1645184401.84375,P15,D00,0,0,0
2892,4.95,1645184401.859375,P15,D00,0,0,0
2893,5.27,1645184401.875,P15,D00,0,0,0
2894,5.32,1645184401.890625,P15,D00,0,0,0
2895,5.08,1645184401.90625,P15,D00,0,0,0
2896,4.57,1645184401.921875,P15,D00,0,0,0
2897,3.83,1645184401.9375,P15,D00,0,0,0
2898,2.9,1645184401.953125,P15,D00,0,0,0
2899,1.9,1645184401.96875,P15,D00,0,0,0
2900,0.96,1645184401.984375,P15,D00,0,0,0
2901,0.27,1645184402.0,P15,D00,0,0,0
2902,-0.03,1645184402.015625,P15,D00,0,0,0
2903,0.07,1645184402.03125,P15,D00,0,0,0
2904,0.39,1645184402.046875,P15,D00,0,0,0
2905,0.66,1645184402.0625,P15,D00,0,0,0
2906,0.65,1645184402.078125,P15,D00,0,0,0
2907,0.26,1645184402.09375,P15,D00,0,0,0
2908,-0.46,1645184402.109375,P15,D00,0,0,0
2909,-1.28,1645184402.125,P15,D00,0,0,0
2910,-2.02,1645184402.140625,P15,D00,0,0,0
2911,-2.54,1645184402.15625,P15,D00,0,0,0
2912,-2.82,1645184402.171875,P15,D00,0,0,0
2913,-2.94,1645184402.1875,P15,D00,0,0,0
2914,-2.99,1645184402.203125,P15,D00,0,0,0
2915,-3.02,1645184402.21875,P15,D00,0,0,0
2916,-3.07,1645184402.234375,P15,D00,0,0,0
2917,-3.16,1645184402.25,P15,D00,0,0,0
2918,-3.29,1645184402.265625,P15,D00,0,0,0
2919,-3.47,1645184402.28125,P15,D00,0,0,0
2920,-3.63,1645184402.296875,P15,D00,0,0,0
2921,-3.67,1645184402.3125,P15,D00,0,0,0
