,data,timestamp,participant,document,val,arou,eng
0,0.23,1644835865.203125,P07,D03,1,0,1
1,0.4,1644835865.21875,P07,D03,1,0,1
2,0.36,1644835865.234375,P07,D03,1,0,1
3,0.2,1644835865.25,P07,D03,1,0,1
4,0.01,1644835865.265625,P07,D03,1,0,1
5,-0.13,1644835865.28125,P07,D03,1,0,1
6,-0.16,1644835865.296875,P07,D03,1,0,1
7,-0.09,1644835865.3125,P07,D03,1,0,1
8,0.09,1644835865.328125,P07,D03,1,0,1
9,0.35,1644835865.34375,P07,D03,1,0,1
10,0.67,1644835865.359375,P07,D03,1,0,1
11,1.02,1644835865.375,P07,D03,1,0,1
12,1.32,1644835865.390625,P07,D03,1,0,1
13,1.49,1644835865.40625,P07,D03,1,0,1
14,1.47,1644835865.421875,P07,D03,1,0,1
15,1.21,1644835865.4375,P07,D03,1,0,1
16,0.76,1644835865.453125,P07,D03,1,0,1
17,0.2,1644835865.46875,P07,D03,1,0,1
18,-0.34,1644835865.484375,P07,D03,1,0,1
19,-0.72,1644835865.5,P07,D03,1,0,1
20,-0.86,1644835865.515625,P07,D03,1,0,1
21,-0.76,1644835865.53125,P07,D03,1,0,1
22,-0.49,1644835865.546875,P07,D03,1,0,1
23,-0.17,1644835865.5625,P07,D03,1,0,1
24,0.05,1644835865.578125,P07,D03,1,0,1
25,0.11,1644835865.59375,P07,D03,1,0,1
26,-0.01,1644835865.609375,P07,D03,1,0,1
27,-0.23,1644835865.625,P07,D03,1,0,1
28,-0.48,1644835865.640625,P07,D03,1,0,1
29,-0.66,1644835865.65625,P07,D03,1,0,1
30,-0.72,1644835865.671875,P07,D03,1,0,1
31,-0.63,1644835865.6875,P07,D03,1,0,1
32,-0.42,1644835865.703125,P07,D03,1,0,1
33,-0.16,1644835865.71875,P07,D03,1,0,1
34,0.06,1644835865.734375,P07,D03,1,0,1
35,0.13,1644835865.75,P07,D03,1,0,1
36,0.0,1644835865.765625,P07,D03,1,0,1
37,-0.29,1644835865.78125,P07,D03,1,0,1
38,-0.63,1644835865.796875,P07,D03,1,0,1
39,-0.84,1644835865.8125,P07,D03,1,0,1
40,-0.79,1644835865.828125,P07,D03,1,0,1
41,-0.46,1644835865.84375,P07,D03,1,0,1
42,0.09,1644835865.859375,P07,D03,1,0,1
43,0.7,1644835865.875,P07,D03,1,0,1
44,1.21,1644835865.890625,P07,D03,1,0,1
45,1.53,1644835865.90625,P07,D03,1,0,1
46,1.6,1644835865.921875,P07,D03,1,0,1
47,1.45,1644835865.9375,P07,D03,1,0,1
48,1.14,1644835865.953125,P07,D03,1,0,1
49,0.73,1644835865.96875,P07,D03,1,0,1
50,0.31,1644835865.984375,P07,D03,1,0,1
51,-0.03,1644835866.0,P07,D03,1,0,1
52,-0.24,1644835866.015625,P07,D03,1,0,1
53,-0.32,1644835866.03125,P07,D03,1,0,1
54,-0.31,1644835866.046875,P07,D03,1,0,1
55,-0.27,1644835866.0625,P07,D03,1,0,1
56,-0.24,1644835866.078125,P07,D03,1,0,1
57,-0.27,1644835866.09375,P07,D03,1,0,1
58,-0.33,1644835866.109375,P07,D03,1,0,1
59,-0.45,1644835866.125,P07,D03,1,0,1
60,-0.61,1644835866.140625,P07,D03,1,0,1
61,-0.8,1644835866.15625,P07,D03,1,0,1
62,-0.99,1644835866.171875,P07,D03,1,0,1
63,-1.12,1644835866.1875,P07,D03,1,0,1
64,-1.15,1644835866.203125,P07,D03,1,0,1
65,-1.05,1644835866.21875,P07,D03,1,0,1
66,-0.89,1644835866.234375,P07,D03,1,0,1
67,-0.75,1644835866.25,P07,D03,1,0,1
68,-0.7,1644835866.265625,P07,D03,1,0,1
69,-0.75,1644835866.28125,P07,D03,1,0,1
70,-0.86,1644835866.296875,P07,D03,1,0,1
71,-0.93,1644835866.3125,P07,D03,1,0,1
72,-0.85,1644835866.328125,P07,D03,1,0,1
73,-0.6,1644835866.34375,P07,D03,1,0,1
74,-0.18,1644835866.359375,P07,D03,1,0,1
75,0.32,1644835866.375,P07,D03,1,0,1
76,0.79,1644835866.390625,P07,D03,1,0,1
77,1.11,1644835866.40625,P07,D03,1,0,1
78,1.19,1644835866.421875,P07,D03,1,0,1
79,1.04,1644835866.4375,P07,D03,1,0,1
80,0.75,1644835866.453125,P07,D03,1,0,1
81,0.44,1644835866.46875,P07,D03,1,0,1
82,0.23,1644835866.484375,P07,D03,1,0,1
83,0.19,1644835866.5,P07,D03,1,0,1
84,0.29,1644835866.515625,P07,D03,1,0,1
85,0.44,1644835866.53125,P07,D03,1,0,1
86,0.52,1644835866.546875,P07,D03,1,0,1
87,0.47,1644835866.5625,P07,D03,1,0,1
88,0.3,1644835866.578125,P07,D03,1,0,1
89,0.05,1644835866.59375,P07,D03,1,0,1
90,-0.17,1644835866.609375,P07,D03,1,0,1
91,-0.3,1644835866.625,P07,D03,1,0,1
92,-0.29,1644835866.640625,P07,D03,1,0,1
93,-0.14,1644835866.65625,P07,D03,1,0,1
94,0.13,1644835866.671875,P07,D03,1,0,1
95,0.45,1644835866.6875,P07,D03,1,0,1
96,0.77,1644835866.703125,P07,D03,1,0,1
97,1.01,1644835866.71875,P07,D03,1,0,1
98,1.15,1644835866.734375,P07,D03,1,0,1
99,1.2,1644835866.75,P07,D03,1,0,1
100,1.19,1644835866.765625,P07,D03,1,0,1
101,1.17,1644835866.78125,P07,D03,1,0,1
102,1.17,1644835866.796875,P07,D03,1,0,1
103,1.18,1644835866.8125,P07,D03,1,0,1
104,1.2,1644835866.828125,P07,D03,1,0,1
105,1.22,1644835866.84375,P07,D03,1,0,1
106,1.26,1644835866.859375,P07,D03,1,0,1
107,1.39,1644835866.875,P07,D03,1,0,1
108,1.61,1644835866.890625,P07,D03,1,0,1
109,1.89,1644835866.90625,P07,D03,1,0,1
110,2.12,1644835866.921875,P07,D03,1,0,1
111,2.23,1644835866.9375,P07,D03,1,0,1
112,2.2,1644835866.953125,P07,D03,1,0,1
113,2.08,1644835866.96875,P07,D03,1,0,1
114,2.01,1644835866.984375,P07,D03,1,0,1
115,2.08,1644835867.0,P07,D03,1,0,1
116,2.29,1644835867.015625,P07,D03,1,0,1
117,2.6,1644835867.03125,P07,D03,1,0,1
118,2.92,1644835867.046875,P07,D03,1,0,1
119,3.25,1644835867.0625,P07,D03,1,0,1
120,3.63,1644835867.078125,P07,D03,1,0,1
121,4.05,1644835867.09375,P07,D03,1,0,1
122,4.33,1644835867.109375,P07,D03,1,0,1
123,4.17,1644835867.125,P07,D03,1,0,1
124,3.26,1644835867.140625,P07,D03,1,0,1
125,1.45,1644835867.15625,P07,D03,1,0,1
126,-1.08,1644835867.171875,P07,D03,1,0,1
127,-3.83,1644835867.1875,P07,D03,1,0,1
128,-6.19,1644835867.203125,P07,D03,1,0,1
129,-7.66,1644835867.21875,P07,D03,1,0,1
130,-8.04,1644835867.234375,P07,D03,1,0,1
131,-7.48,1644835867.25,P07,D03,1,0,1
132,-6.33,1644835867.265625,P07,D03,1,0,1
133,-4.98,1644835867.28125,P07,D03,1,0,1
134,-3.71,1644835867.296875,P07,D03,1,0,1
135,-2.65,1644835867.3125,P07,D03,1,0,1
136,-1.78,1644835867.328125,P07,D03,1,0,1
137,-1.06,1644835867.34375,P07,D03,1,0,1
138,-0.49,1644835867.359375,P07,D03,1,0,1
139,-0.08,1644835867.375,P07,D03,1,0,1
140,0.15,1644835867.390625,P07,D03,1,0,1
141,0.2,1644835867.40625,P07,D03,1,0,1
142,0.12,1644835867.421875,P07,D03,1,0,1
143,0.04,1644835867.4375,P07,D03,1,0,1
144,0.06,1644835867.453125,P07,D03,1,0,1
145,0.24,1644835867.46875,P07,D03,1,0,1
146,0.52,1644835867.484375,P07,D03,1,0,1
147,0.75,1644835867.5,P07,D03,1,0,1
148,0.77,1644835867.515625,P07,D03,1,0,1
149,0.46,1644835867.53125,P07,D03,1,0,1
150,-0.18,1644835867.546875,P07,D03,1,0,1
151,-1.05,1644835867.5625,P07,D03,1,0,1
152,-1.94,1644835867.578125,P07,D03,1,0,1
153,-2.68,1644835867.59375,P07,D03,1,0,1
154,-3.1,1644835867.609375,P07,D03,1,0,1
155,-3.17,1644835867.625,P07,D03,1,0,1
156,-2.94,1644835867.640625,P07,D03,1,0,1
157,-2.53,1644835867.65625,P07,D03,1,0,1
158,-2.1,1644835867.671875,P07,D03,1,0,1
159,-1.75,1644835867.6875,P07,D03,1,0,1
160,-1.54,1644835867.703125,P07,D03,1,0,1
161,-1.45,1644835867.71875,P07,D03,1,0,1
162,-1.41,1644835867.734375,P07,D03,1,0,1
163,-1.37,1644835867.75,P07,D03,1,0,1
164,-1.31,1644835867.765625,P07,D03,1,0,1
165,-1.28,1644835867.78125,P07,D03,1,0,1
166,-1.32,1644835867.796875,P07,D03,1,0,1
167,-1.47,1644835867.8125,P07,D03,1,0,1
168,-1.7,1644835867.828125,P07,D03,1,0,1
169,-1.88,1644835867.84375,P07,D03,1,0,1
170,-1.89,1644835867.859375,P07,D03,1,0,1
171,-1.63,1644835867.875,P07,D03,1,0,1
172,-1.11,1644835867.890625,P07,D03,1,0,1
173,-0.44,1644835867.90625,P07,D03,1,0,1
174,0.2,1644835867.921875,P07,D03,1,0,1
175,0.64,1644835867.9375,P07,D03,1,0,1
176,0.77,1644835867.953125,P07,D03,1,0,1
177,0.59,1644835867.96875,P07,D03,1,0,1
178,0.23,1644835867.984375,P07,D03,1,0,1
179,-0.15,1644835868.0,P07,D03,1,0,1
180,-0.44,1644835868.015625,P07,D03,1,0,1
181,-0.53,1644835868.03125,P07,D03,1,0,1
182,-0.44,1644835868.046875,P07,D03,1,0,1
183,-0.22,1644835868.0625,P07,D03,1,0,1
184,0.07,1644835868.078125,P07,D03,1,0,1
185,0.38,1644835868.09375,P07,D03,1,0,1
186,0.7,1644835868.109375,P07,D03,1,0,1
187,1.04,1644835868.125,P07,D03,1,0,1
188,1.41,1644835868.140625,P07,D03,1,0,1
189,1.8,1644835868.15625,P07,D03,1,0,1
190,2.16,1644835868.171875,P07,D03,1,0,1
191,2.38,1644835868.1875,P07,D03,1,0,1
192,2.41,1644835868.203125,P07,D03,1,0,1
193,2.2,1644835868.21875,P07,D03,1,0,1
194,1.82,1644835868.234375,P07,D03,1,0,1
195,1.38,1644835868.25,P07,D03,1,0,1
196,0.97,1644835868.265625,P07,D03,1,0,1
197,0.65,1644835868.28125,P07,D03,1,0,1
198,0.39,1644835868.296875,P07,D03,1,0,1
199,0.15,1644835868.3125,P07,D03,1,0,1
200,-0.08,1644835868.328125,P07,D03,1,0,1
201,-0.25,1644835868.34375,P07,D03,1,0,1
202,-0.3,1644835868.359375,P07,D03,1,0,1
203,-0.17,1644835868.375,P07,D03,1,0,1
204,0.13,1644835868.390625,P07,D03,1,0,1
205,0.5,1644835868.40625,P07,D03,1,0,1
206,0.84,1644835868.421875,P07,D03,1,0,1
207,1.08,1644835868.4375,P07,D03,1,0,1
208,1.2,1644835868.453125,P07,D03,1,0,1
209,1.22,1644835868.46875,P07,D03,1,0,1
210,1.18,1644835868.484375,P07,D03,1,0,1
211,1.09,1644835868.5,P07,D03,1,0,1
212,0.93,1644835868.515625,P07,D03,1,0,1
213,0.73,1644835868.53125,P07,D03,1,0,1
214,0.53,1644835868.546875,P07,D03,1,0,1
215,0.4,1644835868.5625,P07,D03,1,0,1
216,0.39,1644835868.578125,P07,D03,1,0,1
217,0.49,1644835868.59375,P07,D03,1,0,1
218,0.66,1644835868.609375,P07,D03,1,0,1
219,0.83,1644835868.625,P07,D03,1,0,1
220,0.95,1644835868.640625,P07,D03,1,0,1
221,1.01,1644835868.65625,P07,D03,1,0,1
222,1.01,1644835868.671875,P07,D03,1,0,1
223,0.91,1644835868.6875,P07,D03,1,0,1
224,0.7,1644835868.703125,P07,D03,1,0,1
225,0.39,1644835868.71875,P07,D03,1,0,1
226,0.03,1644835868.734375,P07,D03,1,0,1
227,-0.26,1644835868.75,P07,D03,1,0,1
228,-0.39,1644835868.765625,P07,D03,1,0,1
229,-0.34,1644835868.78125,P07,D03,1,0,1
230,-0.18,1644835868.796875,P07,D03,1,0,1
231,-0.07,1644835868.8125,P07,D03,1,0,1
232,-0.11,1644835868.828125,P07,D03,1,0,1
233,-0.33,1644835868.84375,P07,D03,1,0,1
234,-0.64,1644835868.859375,P07,D03,1,0,1
235,-0.92,1644835868.875,P07,D03,1,0,1
236,-1.08,1644835868.890625,P07,D03,1,0,1
237,-1.12,1644835868.90625,P07,D03,1,0,1
238,-1.1,1644835868.921875,P07,D03,1,0,1
239,-1.1,1644835868.9375,P07,D03,1,0,1
240,-1.13,1644835868.953125,P07,D03,1,0,1
241,-1.14,1644835868.96875,P07,D03,1,0,1
242,-1.05,1644835868.984375,P07,D03,1,0,1
243,-0.83,1644835869.0,P07,D03,1,0,1
244,-0.5,1644835869.015625,P07,D03,1,0,1
245,-0.17,1644835869.03125,P07,D03,1,0,1
246,0.06,1644835869.046875,P07,D03,1,0,1
247,0.11,1644835869.0625,P07,D03,1,0,1
248,0.02,1644835869.078125,P07,D03,1,0,1
249,-0.19,1644835869.09375,P07,D03,1,0,1
250,-0.42,1644835869.109375,P07,D03,1,0,1
251,-0.64,1644835869.125,P07,D03,1,0,1
252,-0.84,1644835869.140625,P07,D03,1,0,1
253,-1.01,1644835869.15625,P07,D03,1,0,1
254,-1.16,1644835869.171875,P07,D03,1,0,1
255,-1.25,1644835869.1875,P07,D03,1,0,1
256,-1.26,1644835869.203125,P07,D03,1,0,1
257,-1.16,1644835869.21875,P07,D03,1,0,1
258,-0.95,1644835869.234375,P07,D03,1,0,1
259,-0.65,1644835869.25,P07,D03,1,0,1
260,-0.3,1644835869.265625,P07,D03,1,0,1
261,0.03,1644835869.28125,P07,D03,1,0,1
262,0.28,1644835869.296875,P07,D03,1,0,1
263,0.39,1644835869.3125,P07,D03,1,0,1
264,0.34,1644835869.328125,P07,D03,1,0,1
265,0.15,1644835869.34375,P07,D03,1,0,1
266,-0.11,1644835869.359375,P07,D03,1,0,1
267,-0.33,1644835869.375,P07,D03,1,0,1
268,-0.42,1644835869.390625,P07,D03,1,0,1
269,-0.34,1644835869.40625,P07,D03,1,0,1
270,-0.15,1644835869.421875,P07,D03,1,0,1
271,0.08,1644835869.4375,P07,D03,1,0,1
272,0.24,1644835869.453125,P07,D03,1,0,1
273,0.29,1644835869.46875,P07,D03,1,0,1
274,0.26,1644835869.484375,P07,D03,1,0,1
275,0.22,1644835869.5,P07,D03,1,0,1
276,0.19,1644835869.515625,P07,D03,1,0,1
277,0.18,1644835869.53125,P07,D03,1,0,1
278,0.17,1644835869.546875,P07,D03,1,0,1
279,0.13,1644835869.5625,P07,D03,1,0,1
280,0.1,1644835869.578125,P07,D03,1,0,1
281,0.11,1644835869.59375,P07,D03,1,0,1
282,0.22,1644835869.609375,P07,D03,1,0,1
283,0.4,1644835869.625,P07,D03,1,0,1
284,0.56,1644835869.640625,P07,D03,1,0,1
285,0.6,1644835869.65625,P07,D03,1,0,1
286,0.51,1644835869.671875,P07,D03,1,0,1
287,0.37,1644835869.6875,P07,D03,1,0,1
288,0.29,1644835869.703125,P07,D03,1,0,1
289,0.4,1644835869.71875,P07,D03,1,0,1
290,0.68,1644835869.734375,P07,D03,1,0,1
291,0.99,1644835869.75,P07,D03,1,0,1
292,1.12,1644835869.765625,P07,D03,1,0,1
293,0.95,1644835869.78125,P07,D03,1,0,1
294,0.5,1644835869.796875,P07,D03,1,0,1
295,-0.04,1644835869.8125,P07,D03,1,0,1
296,-0.47,1644835869.828125,P07,D03,1,0,1
297,-0.63,1644835869.84375,P07,D03,1,0,1
298,-0.54,1644835869.859375,P07,D03,1,0,1
299,-0.35,1644835869.875,P07,D03,1,0,1
300,-0.21,1644835869.890625,P07,D03,1,0,1
301,-0.18,1644835869.90625,P07,D03,1,0,1
302,-0.21,1644835869.921875,P07,D03,1,0,1
303,-0.15,1644835869.9375,P07,D03,1,0,1
304,0.08,1644835869.953125,P07,D03,1,0,1
305,0.44,1644835869.96875,P07,D03,1,0,1
306,0.76,1644835869.984375,P07,D03,1,0,1
307,0.91,1644835870.0,P07,D03,1,0,1
308,0.82,1644835870.015625,P07,D03,1,0,1
309,0.6,1644835870.03125,P07,D03,1,0,1
310,0.41,1644835870.046875,P07,D03,1,0,1
311,0.37,1644835870.0625,P07,D03,1,0,1
312,0.53,1644835870.078125,P07,D03,1,0,1
313,0.78,1644835870.09375,P07,D03,1,0,1
314,1.01,1644835870.109375,P07,D03,1,0,1
315,1.1,1644835870.125,P07,D03,1,0,1
316,1.05,1644835870.140625,P07,D03,1,0,1
317,0.88,1644835870.15625,P07,D03,1,0,1
318,0.69,1644835870.171875,P07,D03,1,0,1
319,0.53,1644835870.1875,P07,D03,1,0,1
320,0.41,1644835870.203125,P07,D03,1,0,1
321,0.35,1644835870.21875,P07,D03,1,0,1
322,0.28,1644835870.234375,P07,D03,1,0,1
323,0.15,1644835870.25,P07,D03,1,0,1
324,-0.09,1644835870.265625,P07,D03,1,0,1
325,-0.43,1644835870.28125,P07,D03,1,0,1
326,-0.83,1644835870.296875,P07,D03,1,0,1
327,-1.15,1644835870.3125,P07,D03,1,0,1
328,-1.31,1644835870.328125,P07,D03,1,0,1
329,-1.26,1644835870.34375,P07,D03,1,0,1
330,-1.02,1644835870.359375,P07,D03,1,0,1
331,-0.7,1644835870.375,P07,D03,1,0,1
332,-0.41,1644835870.390625,P07,D03,1,0,1
333,-0.2,1644835870.40625,P07,D03,1,0,1
334,-0.11,1644835870.421875,P07,D03,1,0,1
335,-0.09,1644835870.4375,P07,D03,1,0,1
336,-0.1,1644835870.453125,P07,D03,1,0,1
337,-0.1,1644835870.46875,P07,D03,1,0,1
338,-0.07,1644835870.484375,P07,D03,1,0,1
339,-0.01,1644835870.5,P07,D03,1,0,1
340,0.07,1644835870.515625,P07,D03,1,0,1
341,0.15,1644835870.53125,P07,D03,1,0,1
342,0.2,1644835870.546875,P07,D03,1,0,1
343,0.2,1644835870.5625,P07,D03,1,0,1
344,0.16,1644835870.578125,P07,D03,1,0,1
345,0.1,1644835870.59375,P07,D03,1,0,1
346,0.06,1644835870.609375,P07,D03,1,0,1
347,0.04,1644835870.625,P07,D03,1,0,1
348,0.04,1644835870.640625,P07,D03,1,0,1
349,0.09,1644835870.65625,P07,D03,1,0,1
350,0.21,1644835870.671875,P07,D03,1,0,1
351,0.4,1644835870.6875,P07,D03,1,0,1
352,0.62,1644835870.703125,P07,D03,1,0,1
353,0.79,1644835870.71875,P07,D03,1,0,1
354,0.84,1644835870.734375,P07,D03,1,0,1
355,0.69,1644835870.75,P07,D03,1,0,1
356,0.39,1644835870.765625,P07,D03,1,0,1
357,0.01,1644835870.78125,P07,D03,1,0,1
358,-0.32,1644835870.796875,P07,D03,1,0,1
359,-0.54,1644835870.8125,P07,D03,1,0,1
360,-0.66,1644835870.828125,P07,D03,1,0,1
361,-0.74,1644835870.84375,P07,D03,1,0,1
362,-0.85,1644835870.859375,P07,D03,1,0,1
363,-0.97,1644835870.875,P07,D03,1,0,1
364,-1.04,1644835870.890625,P07,D03,1,0,1
365,-0.96,1644835870.90625,P07,D03,1,0,1
366,-0.72,1644835870.921875,P07,D03,1,0,1
367,-0.37,1644835870.9375,P07,D03,1,0,1
368,-0.05,1644835870.953125,P07,D03,1,0,1
369,0.11,1644835870.96875,P07,D03,1,0,1
370,0.05,1644835870.984375,P07,D03,1,0,1
371,-0.19,1644835871.0,P07,D03,1,0,1
372,-0.49,1644835871.015625,P07,D03,1,0,1
373,-0.69,1644835871.03125,P07,D03,1,0,1
374,-0.71,1644835871.046875,P07,D03,1,0,1
375,-0.52,1644835871.0625,P07,D03,1,0,1
376,-0.21,1644835871.078125,P07,D03,1,0,1
377,0.11,1644835871.09375,P07,D03,1,0,1
378,0.33,1644835871.109375,P07,D03,1,0,1
379,0.38,1644835871.125,P07,D03,1,0,1
380,0.23,1644835871.140625,P07,D03,1,0,1
381,-0.08,1644835871.15625,P07,D03,1,0,1
382,-0.44,1644835871.171875,P07,D03,1,0,1
383,-0.71,1644835871.1875,P07,D03,1,0,1
384,-0.78,1644835871.203125,P07,D03,1,0,1
385,-0.6,1644835871.21875,P07,D03,1,0,1
386,-0.22,1644835871.234375,P07,D03,1,0,1
387,0.21,1644835871.25,P07,D03,1,0,1
388,0.55,1644835871.265625,P07,D03,1,0,1
389,0.69,1644835871.28125,P07,D03,1,0,1
390,0.65,1644835871.296875,P07,D03,1,0,1
391,0.5,1644835871.3125,P07,D03,1,0,1
392,0.38,1644835871.328125,P07,D03,1,0,1
393,0.35,1644835871.34375,P07,D03,1,0,1
394,0.38,1644835871.359375,P07,D03,1,0,1
395,0.41,1644835871.375,P07,D03,1,0,1
396,0.38,1644835871.390625,P07,D03,1,0,1
397,0.27,1644835871.40625,P07,D03,1,0,1
398,0.11,1644835871.421875,P07,D03,1,0,1
399,-0.04,1644835871.4375,P07,D03,1,0,1
400,-0.13,1644835871.453125,P07,D03,1,0,1
401,-0.14,1644835871.46875,P07,D03,1,0,1
402,-0.11,1644835871.484375,P07,D03,1,0,1
403,-0.05,1644835871.5,P07,D03,1,0,1
404,-0.01,1644835871.515625,P07,D03,1,0,1
405,0.01,1644835871.53125,P07,D03,1,0,1
406,-0.02,1644835871.546875,P07,D03,1,0,1
407,-0.09,1644835871.5625,P07,D03,1,0,1
408,-0.18,1644835871.578125,P07,D03,1,0,1
409,-0.28,1644835871.59375,P07,D03,1,0,1
410,-0.33,1644835871.609375,P07,D03,1,0,1
411,-0.31,1644835871.625,P07,D03,1,0,1
412,-0.19,1644835871.640625,P07,D03,1,0,1
413,-0.02,1644835871.65625,P07,D03,1,0,1
414,0.13,1644835871.671875,P07,D03,1,0,1
415,0.22,1644835871.6875,P07,D03,1,0,1
416,0.2,1644835871.703125,P07,D03,1,0,1
417,0.08,1644835871.71875,P07,D03,1,0,1
418,-0.07,1644835871.734375,P07,D03,1,0,1
419,-0.2,1644835871.75,P07,D03,1,0,1
420,-0.26,1644835871.765625,P07,D03,1,0,1
421,-0.24,1644835871.78125,P07,D03,1,0,1
422,-0.14,1644835871.796875,P07,D03,1,0,1
423,0.01,1644835871.8125,P07,D03,1,0,1
424,0.18,1644835871.828125,P07,D03,1,0,1
425,0.34,1644835871.84375,P07,D03,1,0,1
426,0.48,1644835871.859375,P07,D03,1,0,1
427,0.57,1644835871.875,P07,D03,1,0,1
428,0.62,1644835871.890625,P07,D03,1,0,1
429,0.62,1644835871.90625,P07,D03,1,0,1
430,0.59,1644835871.921875,P07,D03,1,0,1
431,0.56,1644835871.9375,P07,D03,1,0,1
432,0.58,1644835871.953125,P07,D03,1,0,1
433,0.65,1644835871.96875,P07,D03,1,0,1
434,0.76,1644835871.984375,P07,D03,1,0,1
435,0.88,1644835872.0,P07,D03,1,0,1
436,0.94,1644835872.015625,P07,D03,1,0,1
437,0.88,1644835872.03125,P07,D03,1,0,1
438,0.67,1644835872.046875,P07,D03,1,0,1
439,0.38,1644835872.0625,P07,D03,1,0,1
440,0.06,1644835872.078125,P07,D03,1,0,1
441,-0.18,1644835872.09375,P07,D03,1,0,1
442,-0.27,1644835872.109375,P07,D03,1,0,1
443,-0.23,1644835872.125,P07,D03,1,0,1
444,-0.1,1644835872.140625,P07,D03,1,0,1
445,0.04,1644835872.15625,P07,D03,1,0,1
446,0.14,1644835872.171875,P07,D03,1,0,1
447,0.23,1644835872.1875,P07,D03,1,0,1
448,0.34,1644835872.203125,P07,D03,1,0,1
449,0.48,1644835872.21875,P07,D03,1,0,1
450,0.62,1644835872.234375,P07,D03,1,0,1
451,0.71,1644835872.25,P07,D03,1,0,1
452,0.68,1644835872.265625,P07,D03,1,0,1
453,0.53,1644835872.28125,P07,D03,1,0,1
454,0.29,1644835872.296875,P07,D03,1,0,1
455,0.05,1644835872.3125,P07,D03,1,0,1
456,-0.18,1644835872.328125,P07,D03,1,0,1
457,-0.39,1644835872.34375,P07,D03,1,0,1
458,-0.64,1644835872.359375,P07,D03,1,0,1
459,-0.95,1644835872.375,P07,D03,1,0,1
460,-1.27,1644835872.390625,P07,D03,1,0,1
461,-1.49,1644835872.40625,P07,D03,1,0,1
462,-1.52,1644835872.421875,P07,D03,1,0,1
463,-1.3,1644835872.4375,P07,D03,1,0,1
464,-0.91,1644835872.453125,P07,D03,1,0,1
465,-0.49,1644835872.46875,P07,D03,1,0,1
466,-0.2,1644835872.484375,P07,D03,1,0,1
467,-0.12,1644835872.5,P07,D03,1,0,1
468,-0.22,1644835872.515625,P07,D03,1,0,1
469,-0.38,1644835872.53125,P07,D03,1,0,1
470,-0.48,1644835872.546875,P07,D03,1,0,1
471,-0.47,1644835872.5625,P07,D03,1,0,1
472,-0.42,1644835872.578125,P07,D03,1,0,1
473,-0.4,1644835872.59375,P07,D03,1,0,1
474,-0.51,1644835872.609375,P07,D03,1,0,1
475,-0.72,1644835872.625,P07,D03,1,0,1
476,-0.95,1644835872.640625,P07,D03,1,0,1
477,-1.05,1644835872.65625,P07,D03,1,0,1
478,-0.96,1644835872.671875,P07,D03,1,0,1
479,-0.67,1644835872.6875,P07,D03,1,0,1
480,-0.3,1644835872.703125,P07,D03,1,0,1
481,0.05,1644835872.71875,P07,D03,1,0,1
482,0.29,1644835872.734375,P07,D03,1,0,1
483,0.41,1644835872.75,P07,D03,1,0,1
484,0.45,1644835872.765625,P07,D03,1,0,1
485,0.46,1644835872.78125,P07,D03,1,0,1
486,0.5,1644835872.796875,P07,D03,1,0,1
487,0.58,1644835872.8125,P07,D03,1,0,1
488,0.68,1644835872.828125,P07,D03,1,0,1
489,0.78,1644835872.84375,P07,D03,1,0,1
490,0.86,1644835872.859375,P07,D03,1,0,1
491,0.89,1644835872.875,P07,D03,1,0,1
492,0.86,1644835872.890625,P07,D03,1,0,1
493,0.78,1644835872.90625,P07,D03,1,0,1
494,0.66,1644835872.921875,P07,D03,1,0,1
495,0.52,1644835872.9375,P07,D03,1,0,1
496,0.4,1644835872.953125,P07,D03,1,0,1
497,0.32,1644835872.96875,P07,D03,1,0,1
498,0.26,1644835872.984375,P07,D03,1,0,1
499,0.2,1644835873.0,P07,D03,1,0,1
500,0.13,1644835873.015625,P07,D03,1,0,1
501,0.05,1644835873.03125,P07,D03,1,0,1
502,-0.03,1644835873.046875,P07,D03,1,0,1
503,-0.09,1644835873.0625,P07,D03,1,0,1
504,-0.14,1644835873.078125,P07,D03,1,0,1
505,-0.18,1644835873.09375,P07,D03,1,0,1
506,-0.24,1644835873.109375,P07,D03,1,0,1
507,-0.34,1644835873.125,P07,D03,1,0,1
508,-0.46,1644835873.140625,P07,D03,1,0,1
509,-0.58,1644835873.15625,P07,D03,1,0,1
510,-0.69,1644835873.171875,P07,D03,1,0,1
511,-0.77,1644835873.1875,P07,D03,1,0,1
512,-0.81,1644835873.203125,P07,D03,1,0,1
513,-0.81,1644835873.21875,P07,D03,1,0,1
514,-0.73,1644835873.234375,P07,D03,1,0,1
515,-0.57,1644835873.25,P07,D03,1,0,1
516,-0.35,1644835873.265625,P07,D03,1,0,1
517,-0.12,1644835873.28125,P07,D03,1,0,1
518,0.07,1644835873.296875,P07,D03,1,0,1
519,0.2,1644835873.3125,P07,D03,1,0,1
520,0.26,1644835873.328125,P07,D03,1,0,1
521,0.27,1644835873.34375,P07,D03,1,0,1
522,0.24,1644835873.359375,P07,D03,1,0,1
523,0.19,1644835873.375,P07,D03,1,0,1
524,0.14,1644835873.390625,P07,D03,1,0,1
525,0.14,1644835873.40625,P07,D03,1,0,1
526,0.22,1644835873.421875,P07,D03,1,0,1
527,0.4,1644835873.4375,P07,D03,1,0,1
528,0.62,1644835873.453125,P07,D03,1,0,1
529,0.79,1644835873.46875,P07,D03,1,0,1
530,0.8,1644835873.484375,P07,D03,1,0,1
531,0.64,1644835873.5,P07,D03,1,0,1
532,0.32,1644835873.515625,P07,D03,1,0,1
533,-0.04,1644835873.53125,P07,D03,1,0,1
534,-0.33,1644835873.546875,P07,D03,1,0,1
535,-0.48,1644835873.5625,P07,D03,1,0,1
536,-0.48,1644835873.578125,P07,D03,1,0,1
537,-0.37,1644835873.59375,P07,D03,1,0,1
538,-0.2,1644835873.609375,P07,D03,1,0,1
539,-0.04,1644835873.625,P07,D03,1,0,1
540,0.05,1644835873.640625,P07,D03,1,0,1
541,0.02,1644835873.65625,P07,D03,1,0,1
542,-0.14,1644835873.671875,P07,D03,1,0,1
543,-0.38,1644835873.6875,P07,D03,1,0,1
544,-0.64,1644835873.703125,P07,D03,1,0,1
545,-0.83,1644835873.71875,P07,D03,1,0,1
546,-0.91,1644835873.734375,P07,D03,1,0,1
547,-0.89,1644835873.75,P07,D03,1,0,1
548,-0.82,1644835873.765625,P07,D03,1,0,1
549,-0.73,1644835873.78125,P07,D03,1,0,1
550,-0.65,1644835873.796875,P07,D03,1,0,1
551,-0.53,1644835873.8125,P07,D03,1,0,1
552,-0.34,1644835873.828125,P07,D03,1,0,1
553,-0.1,1644835873.84375,P07,D03,1,0,1
554,0.15,1644835873.859375,P07,D03,1,0,1
555,0.33,1644835873.875,P07,D03,1,0,1
556,0.39,1644835873.890625,P07,D03,1,0,1
557,0.36,1644835873.90625,P07,D03,1,0,1
558,0.31,1644835873.921875,P07,D03,1,0,1
559,0.32,1644835873.9375,P07,D03,1,0,1
560,0.44,1644835873.953125,P07,D03,1,0,1
561,0.62,1644835873.96875,P07,D03,1,0,1
562,0.79,1644835873.984375,P07,D03,1,0,1
563,0.88,1644835874.0,P07,D03,1,0,1
564,0.91,1644835874.015625,P07,D03,1,0,1
565,0.92,1644835874.03125,P07,D03,1,0,1
566,0.95,1644835874.046875,P07,D03,1,0,1
567,1.01,1644835874.0625,P07,D03,1,0,1
568,1.05,1644835874.078125,P07,D03,1,0,1
569,1.0,1644835874.09375,P07,D03,1,0,1
570,0.83,1644835874.109375,P07,D03,1,0,1
571,0.56,1644835874.125,P07,D03,1,0,1
572,0.24,1644835874.140625,P07,D03,1,0,1
573,-0.05,1644835874.15625,P07,D03,1,0,1
574,-0.25,1644835874.171875,P07,D03,1,0,1
575,-0.31,1644835874.1875,P07,D03,1,0,1
576,-0.22,1644835874.203125,P07,D03,1,0,1
577,0.0,1644835874.21875,P07,D03,1,0,1
578,0.3,1644835874.234375,P07,D03,1,0,1
579,0.56,1644835874.25,P07,D03,1,0,1
580,0.65,1644835874.265625,P07,D03,1,0,1
581,0.5,1644835874.28125,P07,D03,1,0,1
582,0.15,1644835874.296875,P07,D03,1,0,1
583,-0.28,1644835874.3125,P07,D03,1,0,1
584,-0.65,1644835874.328125,P07,D03,1,0,1
585,-0.84,1644835874.34375,P07,D03,1,0,1
586,-0.86,1644835874.359375,P07,D03,1,0,1
587,-0.74,1644835874.375,P07,D03,1,0,1
588,-0.55,1644835874.390625,P07,D03,1,0,1
589,-0.32,1644835874.40625,P07,D03,1,0,1
590,-0.04,1644835874.421875,P07,D03,1,0,1
591,0.27,1644835874.4375,P07,D03,1,0,1
592,0.57,1644835874.453125,P07,D03,1,0,1
593,0.74,1644835874.46875,P07,D03,1,0,1
594,0.72,1644835874.484375,P07,D03,1,0,1
595,0.5,1644835874.5,P07,D03,1,0,1
596,0.19,1644835874.515625,P07,D03,1,0,1
597,-0.1,1644835874.53125,P07,D03,1,0,1
598,-0.26,1644835874.546875,P07,D03,1,0,1
599,-0.29,1644835874.5625,P07,D03,1,0,1
600,-0.24,1644835874.578125,P07,D03,1,0,1
601,-0.16,1644835874.59375,P07,D03,1,0,1
602,-0.06,1644835874.609375,P07,D03,1,0,1
603,0.03,1644835874.625,P07,D03,1,0,1
604,0.12,1644835874.640625,P07,D03,1,0,1
605,0.17,1644835874.65625,P07,D03,1,0,1
606,0.13,1644835874.671875,P07,D03,1,0,1
607,-0.02,1644835874.6875,P07,D03,1,0,1
608,-0.25,1644835874.703125,P07,D03,1,0,1
609,-0.47,1644835874.71875,P07,D03,1,0,1
610,-0.62,1644835874.734375,P07,D03,1,0,1
611,-0.65,1644835874.75,P07,D03,1,0,1
612,-0.58,1644835874.765625,P07,D03,1,0,1
613,-0.45,1644835874.78125,P07,D03,1,0,1
614,-0.28,1644835874.796875,P07,D03,1,0,1
615,-0.05,1644835874.8125,P07,D03,1,0,1
616,0.22,1644835874.828125,P07,D03,1,0,1
617,0.49,1644835874.84375,P07,D03,1,0,1
618,0.67,1644835874.859375,P07,D03,1,0,1
619,0.68,1644835874.875,P07,D03,1,0,1
620,0.5,1644835874.890625,P07,D03,1,0,1
621,0.2,1644835874.90625,P07,D03,1,0,1
622,-0.07,1644835874.921875,P07,D03,1,0,1
623,-0.19,1644835874.9375,P07,D03,1,0,1
624,-0.11,1644835874.953125,P07,D03,1,0,1
625,0.09,1644835874.96875,P07,D03,1,0,1
626,0.28,1644835874.984375,P07,D03,1,0,1
627,0.3,1644835875.0,P07,D03,1,0,1
628,0.1,1644835875.015625,P07,D03,1,0,1
629,-0.26,1644835875.03125,P07,D03,1,0,1
630,-0.64,1644835875.046875,P07,D03,1,0,1
631,-0.88,1644835875.0625,P07,D03,1,0,1
632,-0.89,1644835875.078125,P07,D03,1,0,1
633,-0.69,1644835875.09375,P07,D03,1,0,1
634,-0.42,1644835875.109375,P07,D03,1,0,1
635,-0.27,1644835875.125,P07,D03,1,0,1
636,-0.34,1644835875.140625,P07,D03,1,0,1
637,-0.64,1644835875.15625,P07,D03,1,0,1
638,-1.0,1644835875.171875,P07,D03,1,0,1
639,-1.23,1644835875.1875,P07,D03,1,0,1
640,-1.17,1644835875.203125,P07,D03,1,0,1
641,-0.81,1644835875.21875,P07,D03,1,0,1
642,-0.26,1644835875.234375,P07,D03,1,0,1
643,0.29,1644835875.25,P07,D03,1,0,1
644,0.7,1644835875.265625,P07,D03,1,0,1
645,0.9,1644835875.28125,P07,D03,1,0,1
646,0.9,1644835875.296875,P07,D03,1,0,1
647,0.8,1644835875.3125,P07,D03,1,0,1
648,0.66,1644835875.328125,P07,D03,1,0,1
649,0.52,1644835875.34375,P07,D03,1,0,1
650,0.41,1644835875.359375,P07,D03,1,0,1
651,0.33,1644835875.375,P07,D03,1,0,1
652,0.25,1644835875.390625,P07,D03,1,0,1
653,0.16,1644835875.40625,P07,D03,1,0,1
654,0.06,1644835875.421875,P07,D03,1,0,1
655,-0.04,1644835875.4375,P07,D03,1,0,1
656,-0.13,1644835875.453125,P07,D03,1,0,1
657,-0.16,1644835875.46875,P07,D03,1,0,1
658,-0.11,1644835875.484375,P07,D03,1,0,1
659,0.02,1644835875.5,P07,D03,1,0,1
660,0.22,1644835875.515625,P07,D03,1,0,1
661,0.43,1644835875.53125,P07,D03,1,0,1
662,0.6,1644835875.546875,P07,D03,1,0,1
663,0.69,1644835875.5625,P07,D03,1,0,1
664,0.7,1644835875.578125,P07,D03,1,0,1
665,0.67,1644835875.59375,P07,D03,1,0,1
666,0.61,1644835875.609375,P07,D03,1,0,1
667,0.53,1644835875.625,P07,D03,1,0,1
668,0.43,1644835875.640625,P07,D03,1,0,1
669,0.3,1644835875.65625,P07,D03,1,0,1
670,0.16,1644835875.671875,P07,D03,1,0,1
671,0.07,1644835875.6875,P07,D03,1,0,1
672,0.08,1644835875.703125,P07,D03,1,0,1
673,0.19,1644835875.71875,P07,D03,1,0,1
674,0.38,1644835875.734375,P07,D03,1,0,1
675,0.56,1644835875.75,P07,D03,1,0,1
676,0.64,1644835875.765625,P07,D03,1,0,1
677,0.6,1644835875.78125,P07,D03,1,0,1
678,0.46,1644835875.796875,P07,D03,1,0,1
679,0.3,1644835875.8125,P07,D03,1,0,1
680,0.17,1644835875.828125,P07,D03,1,0,1
681,0.07,1644835875.84375,P07,D03,1,0,1
682,0.0,1644835875.859375,P07,D03,1,0,1
683,-0.08,1644835875.875,P07,D03,1,0,1
684,-0.17,1644835875.890625,P07,D03,1,0,1
685,-0.26,1644835875.90625,P07,D03,1,0,1
686,-0.29,1644835875.921875,P07,D03,1,0,1
687,-0.27,1644835875.9375,P07,D03,1,0,1
688,-0.2,1644835875.953125,P07,D03,1,0,1
689,-0.07,1644835875.96875,P07,D03,1,0,1
690,0.08,1644835875.984375,P07,D03,1,0,1
691,0.23,1644835876.0,P07,D03,1,0,1
692,0.37,1644835876.015625,P07,D03,1,0,1
693,0.45,1644835876.03125,P07,D03,1,0,1
694,0.46,1644835876.046875,P07,D03,1,0,1
695,0.43,1644835876.0625,P07,D03,1,0,1
696,0.38,1644835876.078125,P07,D03,1,0,1
697,0.32,1644835876.09375,P07,D03,1,0,1
698,0.23,1644835876.109375,P07,D03,1,0,1
699,0.07,1644835876.125,P07,D03,1,0,1
700,-0.18,1644835876.140625,P07,D03,1,0,1
701,-0.49,1644835876.15625,P07,D03,1,0,1
702,-0.8,1644835876.171875,P07,D03,1,0,1
703,-1.02,1644835876.1875,P07,D03,1,0,1
704,-1.08,1644835876.203125,P07,D03,1,0,1
705,-1.01,1644835876.21875,P07,D03,1,0,1
706,-0.85,1644835876.234375,P07,D03,1,0,1
707,-0.67,1644835876.25,P07,D03,1,0,1
708,-0.49,1644835876.265625,P07,D03,1,0,1
709,-0.3,1644835876.28125,P07,D03,1,0,1
710,-0.08,1644835876.296875,P07,D03,1,0,1
711,0.15,1644835876.3125,P07,D03,1,0,1
712,0.31,1644835876.328125,P07,D03,1,0,1
713,0.33,1644835876.34375,P07,D03,1,0,1
714,0.18,1644835876.359375,P07,D03,1,0,1
715,-0.09,1644835876.375,P07,D03,1,0,1
716,-0.37,1644835876.390625,P07,D03,1,0,1
717,-0.54,1644835876.40625,P07,D03,1,0,1
718,-0.55,1644835876.421875,P07,D03,1,0,1
719,-0.41,1644835876.4375,P07,D03,1,0,1
720,-0.22,1644835876.453125,P07,D03,1,0,1
721,-0.05,1644835876.46875,P07,D03,1,0,1
722,0.07,1644835876.484375,P07,D03,1,0,1
723,0.13,1644835876.5,P07,D03,1,0,1
724,0.18,1644835876.515625,P07,D03,1,0,1
725,0.27,1644835876.53125,P07,D03,1,0,1
726,0.36,1644835876.546875,P07,D03,1,0,1
727,0.4,1644835876.5625,P07,D03,1,0,1
728,0.34,1644835876.578125,P07,D03,1,0,1
729,0.16,1644835876.59375,P07,D03,1,0,1
730,-0.1,1644835876.609375,P07,D03,1,0,1
731,-0.33,1644835876.625,P07,D03,1,0,1
732,-0.43,1644835876.640625,P07,D03,1,0,1
733,-0.35,1644835876.65625,P07,D03,1,0,1
734,-0.09,1644835876.671875,P07,D03,1,0,1
735,0.27,1644835876.6875,P07,D03,1,0,1
736,0.66,1644835876.703125,P07,D03,1,0,1
737,0.99,1644835876.71875,P07,D03,1,0,1
738,1.22,1644835876.734375,P07,D03,1,0,1
739,1.31,1644835876.75,P07,D03,1,0,1
740,1.25,1644835876.765625,P07,D03,1,0,1
741,1.04,1644835876.78125,P07,D03,1,0,1
742,0.69,1644835876.796875,P07,D03,1,0,1
743,0.23,1644835876.8125,P07,D03,1,0,1
744,-0.25,1644835876.828125,P07,D03,1,0,1
745,-0.64,1644835876.84375,P07,D03,1,0,1
746,-0.85,1644835876.859375,P07,D03,1,0,1
747,-0.84,1644835876.875,P07,D03,1,0,1
748,-0.65,1644835876.890625,P07,D03,1,0,1
749,-0.4,1644835876.90625,P07,D03,1,0,1
750,-0.21,1644835876.921875,P07,D03,1,0,1
751,-0.16,1644835876.9375,P07,D03,1,0,1
752,-0.23,1644835876.953125,P07,D03,1,0,1
753,-0.36,1644835876.96875,P07,D03,1,0,1
754,-0.47,1644835876.984375,P07,D03,1,0,1
755,-0.51,1644835877.0,P07,D03,1,0,1
756,-0.52,1644835877.015625,P07,D03,1,0,1
757,-0.53,1644835877.03125,P07,D03,1,0,1
758,-0.58,1644835877.046875,P07,D03,1,0,1
759,-0.65,1644835877.0625,P07,D03,1,0,1
760,-0.7,1644835877.078125,P07,D03,1,0,1
761,-0.67,1644835877.09375,P07,D03,1,0,1
762,-0.58,1644835877.109375,P07,D03,1,0,1
763,-0.46,1644835877.125,P07,D03,1,0,1
764,-0.38,1644835877.140625,P07,D03,1,0,1
765,-0.36,1644835877.15625,P07,D03,1,0,1
766,-0.37,1644835877.171875,P07,D03,1,0,1
767,-0.37,1644835877.1875,P07,D03,1,0,1
768,-0.32,1644835877.203125,P07,D03,1,0,1
769,-0.23,1644835877.21875,P07,D03,1,0,1
770,-0.11,1644835877.234375,P07,D03,1,0,1
771,-0.0,1644835877.25,P07,D03,1,0,1
772,0.09,1644835877.265625,P07,D03,1,0,1
773,0.18,1644835877.28125,P07,D03,1,0,1
774,0.26,1644835877.296875,P07,D03,1,0,1
775,0.34,1644835877.3125,P07,D03,1,0,1
776,0.38,1644835877.328125,P07,D03,1,0,1
777,0.34,1644835877.34375,P07,D03,1,0,1
778,0.25,1644835877.359375,P07,D03,1,0,1
779,0.12,1644835877.375,P07,D03,1,0,1
780,-0.01,1644835877.390625,P07,D03,1,0,1
781,-0.09,1644835877.40625,P07,D03,1,0,1
782,-0.14,1644835877.421875,P07,D03,1,0,1
783,-0.17,1644835877.4375,P07,D03,1,0,1
784,-0.21,1644835877.453125,P07,D03,1,0,1
785,-0.26,1644835877.46875,P07,D03,1,0,1
786,-0.31,1644835877.484375,P07,D03,1,0,1
787,-0.34,1644835877.5,P07,D03,1,0,1
788,-0.3,1644835877.515625,P07,D03,1,0,1
789,-0.21,1644835877.53125,P07,D03,1,0,1
790,-0.07,1644835877.546875,P07,D03,1,0,1
791,0.11,1644835877.5625,P07,D03,1,0,1
792,0.28,1644835877.578125,P07,D03,1,0,1
793,0.42,1644835877.59375,P07,D03,1,0,1
794,0.45,1644835877.609375,P07,D03,1,0,1
795,0.35,1644835877.625,P07,D03,1,0,1
796,0.12,1644835877.640625,P07,D03,1,0,1
797,-0.15,1644835877.65625,P07,D03,1,0,1
798,-0.34,1644835877.671875,P07,D03,1,0,1
799,-0.34,1644835877.6875,P07,D03,1,0,1
800,-0.12,1644835877.703125,P07,D03,1,0,1
801,0.29,1644835877.71875,P07,D03,1,0,1
802,0.76,1644835877.734375,P07,D03,1,0,1
803,1.18,1644835877.75,P07,D03,1,0,1
804,1.44,1644835877.765625,P07,D03,1,0,1
805,1.51,1644835877.78125,P07,D03,1,0,1
806,1.42,1644835877.796875,P07,D03,1,0,1
807,1.24,1644835877.8125,P07,D03,1,0,1
808,1.02,1644835877.828125,P07,D03,1,0,1
809,0.78,1644835877.84375,P07,D03,1,0,1
810,0.5,1644835877.859375,P07,D03,1,0,1
811,0.13,1644835877.875,P07,D03,1,0,1
812,-0.34,1644835877.890625,P07,D03,1,0,1
813,-0.89,1644835877.90625,P07,D03,1,0,1
814,-1.44,1644835877.921875,P07,D03,1,0,1
815,-1.9,1644835877.9375,P07,D03,1,0,1
816,-2.19,1644835877.953125,P07,D03,1,0,1
817,-2.24,1644835877.96875,P07,D03,1,0,1
818,-2.11,1644835877.984375,P07,D03,1,0,1
819,-1.87,1644835878.0,P07,D03,1,0,1
820,-1.62,1644835878.015625,P07,D03,1,0,1
821,-1.41,1644835878.03125,P07,D03,1,0,1
822,-1.28,1644835878.046875,P07,D03,1,0,1
823,-1.2,1644835878.0625,P07,D03,1,0,1
824,-1.16,1644835878.078125,P07,D03,1,0,1
825,-1.14,1644835878.09375,P07,D03,1,0,1
826,-1.16,1644835878.109375,P07,D03,1,0,1
827,-1.21,1644835878.125,P07,D03,1,0,1
828,-1.28,1644835878.140625,P07,D03,1,0,1
829,-1.29,1644835878.15625,P07,D03,1,0,1
830,-1.17,1644835878.171875,P07,D03,1,0,1
831,-0.89,1644835878.1875,P07,D03,1,0,1
832,-0.43,1644835878.203125,P07,D03,1,0,1
833,0.17,1644835878.21875,P07,D03,1,0,1
834,0.84,1644835878.234375,P07,D03,1,0,1
835,1.49,1644835878.25,P07,D03,1,0,1
836,2.02,1644835878.265625,P07,D03,1,0,1
837,2.34,1644835878.28125,P07,D03,1,0,1
838,2.4,1644835878.296875,P07,D03,1,0,1
839,2.2,1644835878.3125,P07,D03,1,0,1
840,1.81,1644835878.328125,P07,D03,1,0,1
841,1.35,1644835878.34375,P07,D03,1,0,1
842,0.97,1644835878.359375,P07,D03,1,0,1
843,0.76,1644835878.375,P07,D03,1,0,1
844,0.74,1644835878.390625,P07,D03,1,0,1
845,0.82,1644835878.40625,P07,D03,1,0,1
846,0.88,1644835878.421875,P07,D03,1,0,1
847,0.78,1644835878.4375,P07,D03,1,0,1
848,0.46,1644835878.453125,P07,D03,1,0,1
849,-0.05,1644835878.46875,P07,D03,1,0,1
850,-0.65,1644835878.484375,P07,D03,1,0,1
851,-1.18,1644835878.5,P07,D03,1,0,1
852,-1.53,1644835878.515625,P07,D03,1,0,1
853,-1.67,1644835878.53125,P07,D03,1,0,1
854,-1.62,1644835878.546875,P07,D03,1,0,1
855,-1.44,1644835878.5625,P07,D03,1,0,1
856,-1.21,1644835878.578125,P07,D03,1,0,1
857,-0.94,1644835878.59375,P07,D03,1,0,1
858,-0.65,1644835878.609375,P07,D03,1,0,1
859,-0.34,1644835878.625,P07,D03,1,0,1
860,-0.07,1644835878.640625,P07,D03,1,0,1
861,0.11,1644835878.65625,P07,D03,1,0,1
862,0.16,1644835878.671875,P07,D03,1,0,1
863,0.1,1644835878.6875,P07,D03,1,0,1
864,0.0,1644835878.703125,P07,D03,1,0,1
865,-0.04,1644835878.71875,P07,D03,1,0,1
866,0.04,1644835878.734375,P07,D03,1,0,1
867,0.22,1644835878.75,P07,D03,1,0,1
868,0.45,1644835878.765625,P07,D03,1,0,1
869,0.63,1644835878.78125,P07,D03,1,0,1
870,0.74,1644835878.796875,P07,D03,1,0,1
871,0.79,1644835878.8125,P07,D03,1,0,1
872,0.81,1644835878.828125,P07,D03,1,0,1
873,0.83,1644835878.84375,P07,D03,1,0,1
874,0.84,1644835878.859375,P07,D03,1,0,1
875,0.79,1644835878.875,P07,D03,1,0,1
876,0.67,1644835878.890625,P07,D03,1,0,1
877,0.5,1644835878.90625,P07,D03,1,0,1
878,0.34,1644835878.921875,P07,D03,1,0,1
879,0.25,1644835878.9375,P07,D03,1,0,1
880,0.28,1644835878.953125,P07,D03,1,0,1
881,0.41,1644835878.96875,P07,D03,1,0,1
882,0.54,1644835878.984375,P07,D03,1,0,1
883,0.59,1644835879.0,P07,D03,1,0,1
884,0.47,1644835879.015625,P07,D03,1,0,1
885,0.2,1644835879.03125,P07,D03,1,0,1
886,-0.15,1644835879.046875,P07,D03,1,0,1
887,-0.45,1644835879.0625,P07,D03,1,0,1
888,-0.61,1644835879.078125,P07,D03,1,0,1
889,-0.6,1644835879.09375,P07,D03,1,0,1
890,-0.47,1644835879.109375,P07,D03,1,0,1
891,-0.32,1644835879.125,P07,D03,1,0,1
892,-0.25,1644835879.140625,P07,D03,1,0,1
893,-0.31,1644835879.15625,P07,D03,1,0,1
894,-0.49,1644835879.171875,P07,D03,1,0,1
895,-0.71,1644835879.1875,P07,D03,1,0,1
896,-0.87,1644835879.203125,P07,D03,1,0,1
897,-0.91,1644835879.21875,P07,D03,1,0,1
898,-0.82,1644835879.234375,P07,D03,1,0,1
899,-0.6,1644835879.25,P07,D03,1,0,1
900,-0.27,1644835879.265625,P07,D03,1,0,1
901,0.15,1644835879.28125,P07,D03,1,0,1
902,0.62,1644835879.296875,P07,D03,1,0,1
903,1.06,1644835879.3125,P07,D03,1,0,1
904,1.39,1644835879.328125,P07,D03,1,0,1
905,1.5,1644835879.34375,P07,D03,1,0,1
906,1.36,1644835879.359375,P07,D03,1,0,1
907,1.03,1644835879.375,P07,D03,1,0,1
908,0.66,1644835879.390625,P07,D03,1,0,1
909,0.39,1644835879.40625,P07,D03,1,0,1
910,0.3,1644835879.421875,P07,D03,1,0,1
911,0.38,1644835879.4375,P07,D03,1,0,1
912,0.52,1644835879.453125,P07,D03,1,0,1
913,0.6,1644835879.46875,P07,D03,1,0,1
914,0.52,1644835879.484375,P07,D03,1,0,1
915,0.28,1644835879.5,P07,D03,1,0,1
916,-0.07,1644835879.515625,P07,D03,1,0,1
917,-0.4,1644835879.53125,P07,D03,1,0,1
918,-0.62,1644835879.546875,P07,D03,1,0,1
919,-0.62,1644835879.5625,P07,D03,1,0,1
920,-0.38,1644835879.578125,P07,D03,1,0,1
921,0.06,1644835879.59375,P07,D03,1,0,1
922,0.59,1644835879.609375,P07,D03,1,0,1
923,1.07,1644835879.625,P07,D03,1,0,1
924,1.37,1644835879.640625,P07,D03,1,0,1
925,1.44,1644835879.65625,P07,D03,1,0,1
926,1.32,1644835879.671875,P07,D03,1,0,1
927,1.1,1644835879.6875,P07,D03,1,0,1
928,0.87,1644835879.703125,P07,D03,1,0,1
929,0.66,1644835879.71875,P07,D03,1,0,1
930,0.45,1644835879.734375,P07,D03,1,0,1
931,0.23,1644835879.75,P07,D03,1,0,1
932,-0.01,1644835879.765625,P07,D03,1,0,1
933,-0.22,1644835879.78125,P07,D03,1,0,1
934,-0.31,1644835879.796875,P07,D03,1,0,1
935,-0.26,1644835879.8125,P07,D03,1,0,1
936,-0.15,1644835879.828125,P07,D03,1,0,1
937,-0.07,1644835879.84375,P07,D03,1,0,1
938,-0.1,1644835879.859375,P07,D03,1,0,1
939,-0.25,1644835879.875,P07,D03,1,0,1
940,-0.4,1644835879.890625,P07,D03,1,0,1
941,-0.44,1644835879.90625,P07,D03,1,0,1
942,-0.32,1644835879.921875,P07,D03,1,0,1
943,-0.13,1644835879.9375,P07,D03,1,0,1
944,-0.02,1644835879.953125,P07,D03,1,0,1
945,-0.14,1644835879.96875,P07,D03,1,0,1
946,-0.52,1644835879.984375,P07,D03,1,0,1
947,-1.02,1644835880.0,P07,D03,1,0,1
948,-1.44,1644835880.015625,P07,D03,1,0,1
949,-1.57,1644835880.03125,P07,D03,1,0,1
950,-1.38,1644835880.046875,P07,D03,1,0,1
951,-1.01,1644835880.0625,P07,D03,1,0,1
952,-0.66,1644835880.078125,P07,D03,1,0,1
953,-0.48,1644835880.09375,P07,D03,1,0,1
954,-0.47,1644835880.109375,P07,D03,1,0,1
955,-0.51,1644835880.125,P07,D03,1,0,1
956,-0.41,1644835880.140625,P07,D03,1,0,1
957,-0.1,1644835880.15625,P07,D03,1,0,1
958,0.4,1644835880.171875,P07,D03,1,0,1
959,0.91,1644835880.1875,P07,D03,1,0,1
960,1.27,1644835880.203125,P07,D03,1,0,1
961,1.38,1644835880.21875,P07,D03,1,0,1
962,1.26,1644835880.234375,P07,D03,1,0,1
963,1.0,1644835880.25,P07,D03,1,0,1
964,0.71,1644835880.265625,P07,D03,1,0,1
965,0.46,1644835880.28125,P07,D03,1,0,1
966,0.27,1644835880.296875,P07,D03,1,0,1
967,0.16,1644835880.3125,P07,D03,1,0,1
968,0.14,1644835880.328125,P07,D03,1,0,1
969,0.22,1644835880.34375,P07,D03,1,0,1
970,0.38,1644835880.359375,P07,D03,1,0,1
971,0.54,1644835880.375,P07,D03,1,0,1
972,0.63,1644835880.390625,P07,D03,1,0,1
973,0.57,1644835880.40625,P07,D03,1,0,1
974,0.36,1644835880.421875,P07,D03,1,0,1
975,0.07,1644835880.4375,P07,D03,1,0,1
976,-0.21,1644835880.453125,P07,D03,1,0,1
977,-0.45,1644835880.46875,P07,D03,1,0,1
978,-0.64,1644835880.484375,P07,D03,1,0,1
979,-0.82,1644835880.5,P07,D03,1,0,1
980,-0.98,1644835880.515625,P07,D03,1,0,1
981,-1.1,1644835880.53125,P07,D03,1,0,1
982,-1.11,1644835880.546875,P07,D03,1,0,1
983,-0.97,1644835880.5625,P07,D03,1,0,1
984,-0.67,1644835880.578125,P07,D03,1,0,1
985,-0.27,1644835880.59375,P07,D03,1,0,1
986,0.13,1644835880.609375,P07,D03,1,0,1
987,0.43,1644835880.625,P07,D03,1,0,1
988,0.61,1644835880.640625,P07,D03,1,0,1
989,0.64,1644835880.65625,P07,D03,1,0,1
990,0.57,1644835880.671875,P07,D03,1,0,1
991,0.43,1644835880.6875,P07,D03,1,0,1
992,0.25,1644835880.703125,P07,D03,1,0,1
993,0.07,1644835880.71875,P07,D03,1,0,1
994,-0.07,1644835880.734375,P07,D03,1,0,1
995,-0.14,1644835880.75,P07,D03,1,0,1
996,-0.15,1644835880.765625,P07,D03,1,0,1
997,-0.13,1644835880.78125,P07,D03,1,0,1
998,-0.08,1644835880.796875,P07,D03,1,0,1
999,-0.03,1644835880.8125,P07,D03,1,0,1
1000,0.06,1644835880.828125,P07,D03,1,0,1
1001,0.19,1644835880.84375,P07,D03,1,0,1
1002,0.36,1644835880.859375,P07,D03,1,0,1
1003,0.53,1644835880.875,P07,D03,1,0,1
1004,0.62,1644835880.890625,P07,D03,1,0,1
1005,0.6,1644835880.90625,P07,D03,1,0,1
1006,0.44,1644835880.921875,P07,D03,1,0,1
1007,0.19,1644835880.9375,P07,D03,1,0,1
1008,-0.12,1644835880.953125,P07,D03,1,0,1
1009,-0.44,1644835880.96875,P07,D03,1,0,1
1010,-0.73,1644835880.984375,P07,D03,1,0,1
1011,-0.94,1644835881.0,P07,D03,1,0,1
1012,-1.06,1644835881.015625,P07,D03,1,0,1
1013,-1.04,1644835881.03125,P07,D03,1,0,1
1014,-0.88,1644835881.046875,P07,D03,1,0,1
1015,-0.61,1644835881.0625,P07,D03,1,0,1
1016,-0.3,1644835881.078125,P07,D03,1,0,1
1017,-0.01,1644835881.09375,P07,D03,1,0,1
1018,0.22,1644835881.109375,P07,D03,1,0,1
1019,0.36,1644835881.125,P07,D03,1,0,1
1020,0.41,1644835881.140625,P07,D03,1,0,1
1021,0.39,1644835881.15625,P07,D03,1,0,1
1022,0.33,1644835881.171875,P07,D03,1,0,1
1023,0.25,1644835881.1875,P07,D03,1,0,1
1024,0.17,1644835881.203125,P07,D03,1,0,1
1025,0.1,1644835881.21875,P07,D03,1,0,1
1026,0.04,1644835881.234375,P07,D03,1,0,1
1027,-0.03,1644835881.25,P07,D03,1,0,1
1028,-0.09,1644835881.265625,P07,D03,1,0,1
1029,-0.13,1644835881.28125,P07,D03,1,0,1
1030,-0.1,1644835881.296875,P07,D03,1,0,1
1031,-0.0,1644835881.3125,P07,D03,1,0,1
1032,0.16,1644835881.328125,P07,D03,1,0,1
1033,0.36,1644835881.34375,P07,D03,1,0,1
1034,0.55,1644835881.359375,P07,D03,1,0,1
1035,0.7,1644835881.375,P07,D03,1,0,1
1036,0.81,1644835881.390625,P07,D03,1,0,1
1037,0.85,1644835881.40625,P07,D03,1,0,1
1038,0.77,1644835881.421875,P07,D03,1,0,1
1039,0.55,1644835881.4375,P07,D03,1,0,1
1040,0.15,1644835881.453125,P07,D03,1,0,1
1041,-0.36,1644835881.46875,P07,D03,1,0,1
1042,-0.88,1644835881.484375,P07,D03,1,0,1
1043,-1.24,1644835881.5,P07,D03,1,0,1
1044,-1.36,1644835881.515625,P07,D03,1,0,1
1045,-1.17,1644835881.53125,P07,D03,1,0,1
1046,-0.74,1644835881.546875,P07,D03,1,0,1
1047,-0.23,1644835881.5625,P07,D03,1,0,1
1048,0.22,1644835881.578125,P07,D03,1,0,1
1049,0.48,1644835881.59375,P07,D03,1,0,1
1050,0.5,1644835881.609375,P07,D03,1,0,1
1051,0.34,1644835881.625,P07,D03,1,0,1
1052,0.11,1644835881.640625,P07,D03,1,0,1
1053,-0.07,1644835881.65625,P07,D03,1,0,1
1054,-0.14,1644835881.671875,P07,D03,1,0,1
1055,-0.08,1644835881.6875,P07,D03,1,0,1
1056,0.04,1644835881.703125,P07,D03,1,0,1
1057,0.15,1644835881.71875,P07,D03,1,0,1
1058,0.19,1644835881.734375,P07,D03,1,0,1
1059,0.15,1644835881.75,P07,D03,1,0,1
1060,0.05,1644835881.765625,P07,D03,1,0,1
1061,-0.06,1644835881.78125,P07,D03,1,0,1
1062,-0.2,1644835881.796875,P07,D03,1,0,1
1063,-0.37,1644835881.8125,P07,D03,1,0,1
1064,-0.59,1644835881.828125,P07,D03,1,0,1
1065,-0.86,1644835881.84375,P07,D03,1,0,1
1066,-1.12,1644835881.859375,P07,D03,1,0,1
1067,-1.3,1644835881.875,P07,D03,1,0,1
1068,-1.33,1644835881.890625,P07,D03,1,0,1
1069,-1.23,1644835881.90625,P07,D03,1,0,1
1070,-1.04,1644835881.921875,P07,D03,1,0,1
1071,-0.86,1644835881.9375,P07,D03,1,0,1
1072,-0.75,1644835881.953125,P07,D03,1,0,1
1073,-0.71,1644835881.96875,P07,D03,1,0,1
1074,-0.69,1644835881.984375,P07,D03,1,0,1
1075,-0.63,1644835882.0,P07,D03,1,0,1
1076,-0.47,1644835882.015625,P07,D03,1,0,1
1077,-0.23,1644835882.03125,P07,D03,1,0,1
1078,0.03,1644835882.046875,P07,D03,1,0,1
1079,0.24,1644835882.0625,P07,D03,1,0,1
1080,0.34,1644835882.078125,P07,D03,1,0,1
1081,0.31,1644835882.09375,P07,D03,1,0,1
1082,0.21,1644835882.109375,P07,D03,1,0,1
1083,0.08,1644835882.125,P07,D03,1,0,1
1084,-0.0,1644835882.140625,P07,D03,1,0,1
1085,-0.02,1644835882.15625,P07,D03,1,0,1
1086,0.05,1644835882.171875,P07,D03,1,0,1
1087,0.21,1644835882.1875,P07,D03,1,0,1
1088,0.46,1644835882.203125,P07,D03,1,0,1
1089,0.8,1644835882.21875,P07,D03,1,0,1
1090,1.16,1644835882.234375,P07,D03,1,0,1
1091,1.43,1644835882.25,P07,D03,1,0,1
1092,1.52,1644835882.265625,P07,D03,1,0,1
1093,1.39,1644835882.28125,P07,D03,1,0,1
1094,1.09,1644835882.296875,P07,D03,1,0,1
1095,0.75,1644835882.3125,P07,D03,1,0,1
1096,0.46,1644835882.328125,P07,D03,1,0,1
1097,0.3,1644835882.34375,P07,D03,1,0,1
1098,0.22,1644835882.359375,P07,D03,1,0,1
1099,0.15,1644835882.375,P07,D03,1,0,1
1100,0.04,1644835882.390625,P07,D03,1,0,1
1101,-0.12,1644835882.40625,P07,D03,1,0,1
1102,-0.24,1644835882.421875,P07,D03,1,0,1
1103,-0.25,1644835882.4375,P07,D03,1,0,1
1104,-0.13,1644835882.453125,P07,D03,1,0,1
1105,0.11,1644835882.46875,P07,D03,1,0,1
1106,0.37,1644835882.484375,P07,D03,1,0,1
1107,0.58,1644835882.5,P07,D03,1,0,1
1108,0.69,1644835882.515625,P07,D03,1,0,1
1109,0.67,1644835882.53125,P07,D03,1,0,1
1110,0.55,1644835882.546875,P07,D03,1,0,1
1111,0.33,1644835882.5625,P07,D03,1,0,1
1112,0.06,1644835882.578125,P07,D03,1,0,1
1113,-0.21,1644835882.59375,P07,D03,1,0,1
1114,-0.41,1644835882.609375,P07,D03,1,0,1
1115,-0.46,1644835882.625,P07,D03,1,0,1
1116,-0.35,1644835882.640625,P07,D03,1,0,1
1117,-0.13,1644835882.65625,P07,D03,1,0,1
1118,0.13,1644835882.671875,P07,D03,1,0,1
1119,0.39,1644835882.6875,P07,D03,1,0,1
1120,0.6,1644835882.703125,P07,D03,1,0,1
1121,0.79,1644835882.71875,P07,D03,1,0,1
1122,0.99,1644835882.734375,P07,D03,1,0,1
1123,1.18,1644835882.75,P07,D03,1,0,1
1124,1.32,1644835882.765625,P07,D03,1,0,1
1125,1.33,1644835882.78125,P07,D03,1,0,1
1126,1.15,1644835882.796875,P07,D03,1,0,1
1127,0.78,1644835882.8125,P07,D03,1,0,1
1128,0.28,1644835882.828125,P07,D03,1,0,1
1129,-0.23,1644835882.84375,P07,D03,1,0,1
1130,-0.62,1644835882.859375,P07,D03,1,0,1
1131,-0.82,1644835882.875,P07,D03,1,0,1
1132,-0.79,1644835882.890625,P07,D03,1,0,1
1133,-0.58,1644835882.90625,P07,D03,1,0,1
1134,-0.29,1644835882.921875,P07,D03,1,0,1
1135,-0.04,1644835882.9375,P07,D03,1,0,1
1136,0.07,1644835882.953125,P07,D03,1,0,1
1137,0.0,1644835882.96875,P07,D03,1,0,1
1138,-0.23,1644835882.984375,P07,D03,1,0,1
1139,-0.56,1644835883.0,P07,D03,1,0,1
1140,-0.87,1644835883.015625,P07,D03,1,0,1
1141,-1.07,1644835883.03125,P07,D03,1,0,1
1142,-1.1,1644835883.046875,P07,D03,1,0,1
1143,-0.97,1644835883.0625,P07,D03,1,0,1
1144,-0.73,1644835883.078125,P07,D03,1,0,1
1145,-0.43,1644835883.09375,P07,D03,1,0,1
1146,-0.14,1644835883.109375,P07,D03,1,0,1
1147,0.09,1644835883.125,P07,D03,1,0,1
1148,0.23,1644835883.140625,P07,D03,1,0,1
1149,0.27,1644835883.15625,P07,D03,1,0,1
1150,0.22,1644835883.171875,P07,D03,1,0,1
1151,0.07,1644835883.1875,P07,D03,1,0,1
1152,-0.12,1644835883.203125,P07,D03,1,0,1
1153,-0.36,1644835883.21875,P07,D03,1,0,1
1154,-0.6,1644835883.234375,P07,D03,1,0,1
1155,-0.84,1644835883.25,P07,D03,1,0,1
1156,-1.03,1644835883.265625,P07,D03,1,0,1
1157,-1.14,1644835883.28125,P07,D03,1,0,1
1158,-1.12,1644835883.296875,P07,D03,1,0,1
1159,-0.94,1644835883.3125,P07,D03,1,0,1
1160,-0.63,1644835883.328125,P07,D03,1,0,1
1161,-0.31,1644835883.34375,P07,D03,1,0,1
1162,-0.07,1644835883.359375,P07,D03,1,0,1
1163,0.01,1644835883.375,P07,D03,1,0,1
1164,-0.05,1644835883.390625,P07,D03,1,0,1
1165,-0.16,1644835883.40625,P07,D03,1,0,1
1166,-0.23,1644835883.421875,P07,D03,1,0,1
1167,-0.21,1644835883.4375,P07,D03,1,0,1
1168,-0.11,1644835883.453125,P07,D03,1,0,1
1169,-0.01,1644835883.46875,P07,D03,1,0,1
1170,0.06,1644835883.484375,P07,D03,1,0,1
1171,0.1,1644835883.5,P07,D03,1,0,1
1172,0.18,1644835883.515625,P07,D03,1,0,1
1173,0.35,1644835883.53125,P07,D03,1,0,1
1174,0.61,1644835883.546875,P07,D03,1,0,1
1175,0.87,1644835883.5625,P07,D03,1,0,1
1176,1.02,1644835883.578125,P07,D03,1,0,1
1177,1.0,1644835883.59375,P07,D03,1,0,1
1178,0.8,1644835883.609375,P07,D03,1,0,1
1179,0.47,1644835883.625,P07,D03,1,0,1
1180,0.1,1644835883.640625,P07,D03,1,0,1
1181,-0.27,1644835883.65625,P07,D03,1,0,1
1182,-0.56,1644835883.671875,P07,D03,1,0,1
1183,-0.77,1644835883.6875,P07,D03,1,0,1
1184,-0.86,1644835883.703125,P07,D03,1,0,1
1185,-0.82,1644835883.71875,P07,D03,1,0,1
1186,-0.67,1644835883.734375,P07,D03,1,0,1
1187,-0.47,1644835883.75,P07,D03,1,0,1
1188,-0.28,1644835883.765625,P07,D03,1,0,1
1189,-0.12,1644835883.78125,P07,D03,1,0,1
1190,-0.01,1644835883.796875,P07,D03,1,0,1
1191,0.06,1644835883.8125,P07,D03,1,0,1
1192,0.12,1644835883.828125,P07,D03,1,0,1
1193,0.14,1644835883.84375,P07,D03,1,0,1
1194,0.13,1644835883.859375,P07,D03,1,0,1
1195,0.1,1644835883.875,P07,D03,1,0,1
1196,0.08,1644835883.890625,P07,D03,1,0,1
1197,0.12,1644835883.90625,P07,D03,1,0,1
1198,0.23,1644835883.921875,P07,D03,1,0,1
1199,0.39,1644835883.9375,P07,D03,1,0,1
1200,0.55,1644835883.953125,P07,D03,1,0,1
1201,0.65,1644835883.96875,P07,D03,1,0,1
1202,0.67,1644835883.984375,P07,D03,1,0,1
1203,0.61,1644835884.0,P07,D03,1,0,1
1204,0.48,1644835884.015625,P07,D03,1,0,1
1205,0.3,1644835884.03125,P07,D03,1,0,1
1206,0.08,1644835884.046875,P07,D03,1,0,1
1207,-0.17,1644835884.0625,P07,D03,1,0,1
1208,-0.43,1644835884.078125,P07,D03,1,0,1
1209,-0.68,1644835884.09375,P07,D03,1,0,1
1210,-0.9,1644835884.109375,P07,D03,1,0,1
1211,-1.09,1644835884.125,P07,D03,1,0,1
1212,-1.24,1644835884.140625,P07,D03,1,0,1
1213,-1.35,1644835884.15625,P07,D03,1,0,1
1214,-1.4,1644835884.171875,P07,D03,1,0,1
1215,-1.34,1644835884.1875,P07,D03,1,0,1
1216,-1.14,1644835884.203125,P07,D03,1,0,1
1217,-0.82,1644835884.21875,P07,D03,1,0,1
1218,-0.43,1644835884.234375,P07,D03,1,0,1
1219,-0.06,1644835884.25,P07,D03,1,0,1
1220,0.23,1644835884.265625,P07,D03,1,0,1
1221,0.4,1644835884.28125,P07,D03,1,0,1
1222,0.45,1644835884.296875,P07,D03,1,0,1
1223,0.45,1644835884.3125,P07,D03,1,0,1
1224,0.45,1644835884.328125,P07,D03,1,0,1
1225,0.49,1644835884.34375,P07,D03,1,0,1
1226,0.57,1644835884.359375,P07,D03,1,0,1
1227,0.63,1644835884.375,P07,D03,1,0,1
1228,0.64,1644835884.390625,P07,D03,1,0,1
1229,0.56,1644835884.40625,P07,D03,1,0,1
1230,0.44,1644835884.421875,P07,D03,1,0,1
1231,0.32,1644835884.4375,P07,D03,1,0,1
1232,0.3,1644835884.453125,P07,D03,1,0,1
1233,0.39,1644835884.46875,P07,D03,1,0,1
1234,0.58,1644835884.484375,P07,D03,1,0,1
1235,0.77,1644835884.5,P07,D03,1,0,1
1236,0.88,1644835884.515625,P07,D03,1,0,1
1237,0.83,1644835884.53125,P07,D03,1,0,1
1238,0.67,1644835884.546875,P07,D03,1,0,1
1239,0.49,1644835884.5625,P07,D03,1,0,1
1240,0.4,1644835884.578125,P07,D03,1,0,1
1241,0.45,1644835884.59375,P07,D03,1,0,1
1242,0.62,1644835884.609375,P07,D03,1,0,1
1243,0.8,1644835884.625,P07,D03,1,0,1
1244,0.84,1644835884.640625,P07,D03,1,0,1
1245,0.69,1644835884.65625,P07,D03,1,0,1
1246,0.38,1644835884.671875,P07,D03,1,0,1
1247,0.03,1644835884.6875,P07,D03,1,0,1
1248,-0.26,1644835884.703125,P07,D03,1,0,1
1249,-0.4,1644835884.71875,P07,D03,1,0,1
1250,-0.39,1644835884.734375,P07,D03,1,0,1
1251,-0.29,1644835884.75,P07,D03,1,0,1
1252,-0.12,1644835884.765625,P07,D03,1,0,1
1253,0.09,1644835884.78125,P07,D03,1,0,1
1254,0.33,1644835884.796875,P07,D03,1,0,1
1255,0.55,1644835884.8125,P07,D03,1,0,1
1256,0.68,1644835884.828125,P07,D03,1,0,1
1257,0.62,1644835884.84375,P07,D03,1,0,1
1258,0.33,1644835884.859375,P07,D03,1,0,1
1259,-0.14,1644835884.875,P07,D03,1,0,1
1260,-0.68,1644835884.890625,P07,D03,1,0,1
1261,-1.11,1644835884.90625,P07,D03,1,0,1
1262,-1.35,1644835884.921875,P07,D03,1,0,1
1263,-1.35,1644835884.9375,P07,D03,1,0,1
1264,-1.17,1644835884.953125,P07,D03,1,0,1
1265,-0.92,1644835884.96875,P07,D03,1,0,1
1266,-0.69,1644835884.984375,P07,D03,1,0,1
1267,-0.55,1644835885.0,P07,D03,1,0,1
1268,-0.48,1644835885.015625,P07,D03,1,0,1
1269,-0.46,1644835885.03125,P07,D03,1,0,1
1270,-0.46,1644835885.046875,P07,D03,1,0,1
1271,-0.47,1644835885.0625,P07,D03,1,0,1
1272,-0.47,1644835885.078125,P07,D03,1,0,1
1273,-0.44,1644835885.09375,P07,D03,1,0,1
1274,-0.34,1644835885.109375,P07,D03,1,0,1
1275,-0.13,1644835885.125,P07,D03,1,0,1
1276,0.2,1644835885.140625,P07,D03,1,0,1
1277,0.58,1644835885.15625,P07,D03,1,0,1
1278,0.91,1644835885.171875,P07,D03,1,0,1
1279,1.09,1644835885.1875,P07,D03,1,0,1
1280,1.04,1644835885.203125,P07,D03,1,0,1
1281,0.77,1644835885.21875,P07,D03,1,0,1
1282,0.38,1644835885.234375,P07,D03,1,0,1
1283,0.02,1644835885.25,P07,D03,1,0,1
1284,-0.21,1644835885.265625,P07,D03,1,0,1
1285,-0.25,1644835885.28125,P07,D03,1,0,1
1286,-0.12,1644835885.296875,P07,D03,1,0,1
1287,0.08,1644835885.3125,P07,D03,1,0,1
1288,0.29,1644835885.328125,P07,D03,1,0,1
1289,0.45,1644835885.34375,P07,D03,1,0,1
1290,0.59,1644835885.359375,P07,D03,1,0,1
1291,0.71,1644835885.375,P07,D03,1,0,1
1292,0.86,1644835885.390625,P07,D03,1,0,1
1293,1.03,1644835885.40625,P07,D03,1,0,1
1294,1.17,1644835885.421875,P07,D03,1,0,1
1295,1.2,1644835885.4375,P07,D03,1,0,1
1296,1.07,1644835885.453125,P07,D03,1,0,1
1297,0.79,1644835885.46875,P07,D03,1,0,1
1298,0.43,1644835885.484375,P07,D03,1,0,1
1299,0.08,1644835885.5,P07,D03,1,0,1
1300,-0.16,1644835885.515625,P07,D03,1,0,1
1301,-0.3,1644835885.53125,P07,D03,1,0,1
1302,-0.39,1644835885.546875,P07,D03,1,0,1
1303,-0.5,1644835885.5625,P07,D03,1,0,1
1304,-0.67,1644835885.578125,P07,D03,1,0,1
1305,-0.84,1644835885.59375,P07,D03,1,0,1
1306,-0.94,1644835885.609375,P07,D03,1,0,1
1307,-0.87,1644835885.625,P07,D03,1,0,1
1308,-0.65,1644835885.640625,P07,D03,1,0,1
1309,-0.36,1644835885.65625,P07,D03,1,0,1
1310,-0.13,1644835885.671875,P07,D03,1,0,1
1311,-0.04,1644835885.6875,P07,D03,1,0,1
1312,-0.1,1644835885.703125,P07,D03,1,0,1
1313,-0.24,1644835885.71875,P07,D03,1,0,1
1314,-0.35,1644835885.734375,P07,D03,1,0,1
1315,-0.37,1644835885.75,P07,D03,1,0,1
1316,-0.27,1644835885.765625,P07,D03,1,0,1
1317,-0.11,1644835885.78125,P07,D03,1,0,1
1318,0.06,1644835885.796875,P07,D03,1,0,1
1319,0.22,1644835885.8125,P07,D03,1,0,1
1320,0.36,1644835885.828125,P07,D03,1,0,1
1321,0.5,1644835885.84375,P07,D03,1,0,1
1322,0.62,1644835885.859375,P07,D03,1,0,1
1323,0.69,1644835885.875,P07,D03,1,0,1
1324,0.67,1644835885.890625,P07,D03,1,0,1
1325,0.51,1644835885.90625,P07,D03,1,0,1
1326,0.22,1644835885.921875,P07,D03,1,0,1
1327,-0.13,1644835885.9375,P07,D03,1,0,1
1328,-0.44,1644835885.953125,P07,D03,1,0,1
1329,-0.63,1644835885.96875,P07,D03,1,0,1
1330,-0.61,1644835885.984375,P07,D03,1,0,1
1331,-0.4,1644835886.0,P07,D03,1,0,1
1332,-0.06,1644835886.015625,P07,D03,1,0,1
1333,0.28,1644835886.03125,P07,D03,1,0,1
1334,0.52,1644835886.046875,P07,D03,1,0,1
1335,0.56,1644835886.0625,P07,D03,1,0,1
1336,0.41,1644835886.078125,P07,D03,1,0,1
1337,0.12,1644835886.09375,P07,D03,1,0,1
1338,-0.21,1644835886.109375,P07,D03,1,0,1
1339,-0.53,1644835886.125,P07,D03,1,0,1
1340,-0.77,1644835886.140625,P07,D03,1,0,1
1341,-0.92,1644835886.15625,P07,D03,1,0,1
1342,-0.99,1644835886.171875,P07,D03,1,0,1
1343,-0.96,1644835886.1875,P07,D03,1,0,1
1344,-0.82,1644835886.203125,P07,D03,1,0,1
1345,-0.58,1644835886.21875,P07,D03,1,0,1
1346,-0.27,1644835886.234375,P07,D03,1,0,1
1347,0.02,1644835886.25,P07,D03,1,0,1
1348,0.24,1644835886.265625,P07,D03,1,0,1
1349,0.33,1644835886.28125,P07,D03,1,0,1
1350,0.28,1644835886.296875,P07,D03,1,0,1
1351,0.1,1644835886.3125,P07,D03,1,0,1
1352,-0.17,1644835886.328125,P07,D03,1,0,1
1353,-0.45,1644835886.34375,P07,D03,1,0,1
1354,-0.7,1644835886.359375,P07,D03,1,0,1
1355,-0.82,1644835886.375,P07,D03,1,0,1
1356,-0.79,1644835886.390625,P07,D03,1,0,1
1357,-0.59,1644835886.40625,P07,D03,1,0,1
1358,-0.28,1644835886.421875,P07,D03,1,0,1
1359,0.01,1644835886.4375,P07,D03,1,0,1
1360,0.19,1644835886.453125,P07,D03,1,0,1
1361,0.19,1644835886.46875,P07,D03,1,0,1
1362,0.01,1644835886.484375,P07,D03,1,0,1
1363,-0.25,1644835886.5,P07,D03,1,0,1
1364,-0.47,1644835886.515625,P07,D03,1,0,1
1365,-0.52,1644835886.53125,P07,D03,1,0,1
1366,-0.37,1644835886.546875,P07,D03,1,0,1
1367,-0.05,1644835886.5625,P07,D03,1,0,1
1368,0.32,1644835886.578125,P07,D03,1,0,1
1369,0.6,1644835886.59375,P07,D03,1,0,1
1370,0.7,1644835886.609375,P07,D03,1,0,1
1371,0.63,1644835886.625,P07,D03,1,0,1
1372,0.45,1644835886.640625,P07,D03,1,0,1
1373,0.27,1644835886.65625,P07,D03,1,0,1
1374,0.16,1644835886.671875,P07,D03,1,0,1
1375,0.1,1644835886.6875,P07,D03,1,0,1
1376,0.03,1644835886.703125,P07,D03,1,0,1
1377,-0.11,1644835886.71875,P07,D03,1,0,1
1378,-0.33,1644835886.734375,P07,D03,1,0,1
1379,-0.56,1644835886.75,P07,D03,1,0,1
1380,-0.66,1644835886.765625,P07,D03,1,0,1
1381,-0.54,1644835886.78125,P07,D03,1,0,1
1382,-0.18,1644835886.796875,P07,D03,1,0,1
1383,0.32,1644835886.8125,P07,D03,1,0,1
1384,0.81,1644835886.828125,P07,D03,1,0,1
1385,1.16,1644835886.84375,P07,D03,1,0,1
1386,1.31,1644835886.859375,P07,D03,1,0,1
1387,1.29,1644835886.875,P07,D03,1,0,1
1388,1.21,1644835886.890625,P07,D03,1,0,1
1389,1.18,1644835886.90625,P07,D03,1,0,1
1390,1.25,1644835886.921875,P07,D03,1,0,1
1391,1.39,1644835886.9375,P07,D03,1,0,1
1392,1.51,1644835886.953125,P07,D03,1,0,1
1393,1.48,1644835886.96875,P07,D03,1,0,1
1394,1.26,1644835886.984375,P07,D03,1,0,1
1395,0.89,1644835887.0,P07,D03,1,0,1
1396,0.49,1644835887.015625,P07,D03,1,0,1
1397,0.2,1644835887.03125,P07,D03,1,0,1
1398,0.08,1644835887.046875,P07,D03,1,0,1
1399,0.07,1644835887.0625,P07,D03,1,0,1
1400,0.05,1644835887.078125,P07,D03,1,0,1
1401,-0.13,1644835887.09375,P07,D03,1,0,1
1402,-0.48,1644835887.109375,P07,D03,1,0,1
1403,-0.93,1644835887.125,P07,D03,1,0,1
1404,-1.31,1644835887.140625,P07,D03,1,0,1
1405,-1.48,1644835887.15625,P07,D03,1,0,1
1406,-1.38,1644835887.171875,P07,D03,1,0,1
1407,-1.09,1644835887.1875,P07,D03,1,0,1
1408,-0.74,1644835887.203125,P07,D03,1,0,1
1409,-0.42,1644835887.21875,P07,D03,1,0,1
1410,-0.2,1644835887.234375,P07,D03,1,0,1
1411,-0.05,1644835887.25,P07,D03,1,0,1
1412,0.07,1644835887.265625,P07,D03,1,0,1
1413,0.16,1644835887.28125,P07,D03,1,0,1
1414,0.2,1644835887.296875,P07,D03,1,0,1
1415,0.13,1644835887.3125,P07,D03,1,0,1
1416,-0.04,1644835887.328125,P07,D03,1,0,1
1417,-0.25,1644835887.34375,P07,D03,1,0,1
1418,-0.39,1644835887.359375,P07,D03,1,0,1
1419,-0.36,1644835887.375,P07,D03,1,0,1
1420,-0.16,1644835887.390625,P07,D03,1,0,1
1421,0.12,1644835887.40625,P07,D03,1,0,1
1422,0.34,1644835887.421875,P07,D03,1,0,1
1423,0.36,1644835887.4375,P07,D03,1,0,1
1424,0.17,1644835887.453125,P07,D03,1,0,1
1425,-0.16,1644835887.46875,P07,D03,1,0,1
1426,-0.47,1644835887.484375,P07,D03,1,0,1
1427,-0.62,1644835887.5,P07,D03,1,0,1
1428,-0.57,1644835887.515625,P07,D03,1,0,1
1429,-0.4,1644835887.53125,P07,D03,1,0,1
1430,-0.21,1644835887.546875,P07,D03,1,0,1
1431,-0.13,1644835887.5625,P07,D03,1,0,1
1432,-0.17,1644835887.578125,P07,D03,1,0,1
1433,-0.26,1644835887.59375,P07,D03,1,0,1
1434,-0.3,1644835887.609375,P07,D03,1,0,1
1435,-0.21,1644835887.625,P07,D03,1,0,1
1436,-0.03,1644835887.640625,P07,D03,1,0,1
1437,0.15,1644835887.65625,P07,D03,1,0,1
1438,0.22,1644835887.671875,P07,D03,1,0,1
1439,0.08,1644835887.6875,P07,D03,1,0,1
1440,-0.21,1644835887.703125,P07,D03,1,0,1
1441,-0.52,1644835887.71875,P07,D03,1,0,1
1442,-0.7,1644835887.734375,P07,D03,1,0,1
1443,-0.63,1644835887.75,P07,D03,1,0,1
1444,-0.31,1644835887.765625,P07,D03,1,0,1
1445,0.17,1644835887.78125,P07,D03,1,0,1
1446,0.64,1644835887.796875,P07,D03,1,0,1
1447,0.94,1644835887.8125,P07,D03,1,0,1
1448,0.96,1644835887.828125,P07,D03,1,0,1
1449,0.74,1644835887.84375,P07,D03,1,0,1
1450,0.39,1644835887.859375,P07,D03,1,0,1
1451,0.05,1644835887.875,P07,D03,1,0,1
1452,-0.15,1644835887.890625,P07,D03,1,0,1
1453,-0.18,1644835887.90625,P07,D03,1,0,1
1454,-0.1,1644835887.921875,P07,D03,1,0,1
1455,0.01,1644835887.9375,P07,D03,1,0,1
1456,0.07,1644835887.953125,P07,D03,1,0,1
1457,0.02,1644835887.96875,P07,D03,1,0,1
1458,-0.15,1644835887.984375,P07,D03,1,0,1
1459,-0.39,1644835888.0,P07,D03,1,0,1
1460,-0.65,1644835888.015625,P07,D03,1,0,1
1461,-0.9,1644835888.03125,P07,D03,1,0,1
1462,-1.06,1644835888.046875,P07,D03,1,0,1
1463,-1.11,1644835888.0625,P07,D03,1,0,1
1464,-1.03,1644835888.078125,P07,D03,1,0,1
1465,-0.83,1644835888.09375,P07,D03,1,0,1
1466,-0.55,1644835888.109375,P07,D03,1,0,1
1467,-0.24,1644835888.125,P07,D03,1,0,1
1468,0.09,1644835888.140625,P07,D03,1,0,1
1469,0.43,1644835888.15625,P07,D03,1,0,1
1470,0.79,1644835888.171875,P07,D03,1,0,1
1471,1.14,1644835888.1875,P07,D03,1,0,1
1472,1.43,1644835888.203125,P07,D03,1,0,1
1473,1.61,1644835888.21875,P07,D03,1,0,1
1474,1.62,1644835888.234375,P07,D03,1,0,1
1475,1.5,1644835888.25,P07,D03,1,0,1
1476,1.34,1644835888.265625,P07,D03,1,0,1
1477,1.2,1644835888.28125,P07,D03,1,0,1
1478,1.13,1644835888.296875,P07,D03,1,0,1
1479,1.07,1644835888.3125,P07,D03,1,0,1
1480,0.95,1644835888.328125,P07,D03,1,0,1
1481,0.72,1644835888.34375,P07,D03,1,0,1
1482,0.39,1644835888.359375,P07,D03,1,0,1
1483,0.03,1644835888.375,P07,D03,1,0,1
1484,-0.24,1644835888.390625,P07,D03,1,0,1
1485,-0.34,1644835888.40625,P07,D03,1,0,1
1486,-0.3,1644835888.421875,P07,D03,1,0,1
1487,-0.2,1644835888.4375,P07,D03,1,0,1
1488,-0.12,1644835888.453125,P07,D03,1,0,1
1489,-0.12,1644835888.46875,P07,D03,1,0,1
1490,-0.22,1644835888.484375,P07,D03,1,0,1
1491,-0.36,1644835888.5,P07,D03,1,0,1
1492,-0.49,1644835888.515625,P07,D03,1,0,1
1493,-0.58,1644835888.53125,P07,D03,1,0,1
1494,-0.68,1644835888.546875,P07,D03,1,0,1
1495,-0.81,1644835888.5625,P07,D03,1,0,1
1496,-0.99,1644835888.578125,P07,D03,1,0,1
1497,-1.18,1644835888.59375,P07,D03,1,0,1
1498,-1.31,1644835888.609375,P07,D03,1,0,1
1499,-1.31,1644835888.625,P07,D03,1,0,1
1500,-1.15,1644835888.640625,P07,D03,1,0,1
1501,-0.91,1644835888.65625,P07,D03,1,0,1
1502,-0.67,1644835888.671875,P07,D03,1,0,1
1503,-0.53,1644835888.6875,P07,D03,1,0,1
1504,-0.5,1644835888.703125,P07,D03,1,0,1
1505,-0.56,1644835888.71875,P07,D03,1,0,1
1506,-0.62,1644835888.734375,P07,D03,1,0,1
1507,-0.66,1644835888.75,P07,D03,1,0,1
1508,-0.68,1644835888.765625,P07,D03,1,0,1
1509,-0.72,1644835888.78125,P07,D03,1,0,1
1510,-0.8,1644835888.796875,P07,D03,1,0,1
1511,-0.86,1644835888.8125,P07,D03,1,0,1
1512,-0.82,1644835888.828125,P07,D03,1,0,1
1513,-0.61,1644835888.84375,P07,D03,1,0,1
1514,-0.25,1644835888.859375,P07,D03,1,0,1
1515,0.17,1644835888.875,P07,D03,1,0,1
1516,0.5,1644835888.890625,P07,D03,1,0,1
1517,0.66,1644835888.90625,P07,D03,1,0,1
1518,0.63,1644835888.921875,P07,D03,1,0,1
1519,0.5,1644835888.9375,P07,D03,1,0,1
1520,0.37,1644835888.953125,P07,D03,1,0,1
1521,0.34,1644835888.96875,P07,D03,1,0,1
1522,0.43,1644835888.984375,P07,D03,1,0,1
1523,0.62,1644835889.0,P07,D03,1,0,1
1524,0.85,1644835889.015625,P07,D03,1,0,1
1525,1.04,1644835889.03125,P07,D03,1,0,1
1526,1.16,1644835889.046875,P07,D03,1,0,1
1527,1.16,1644835889.0625,P07,D03,1,0,1
1528,1.03,1644835889.078125,P07,D03,1,0,1
1529,0.8,1644835889.09375,P07,D03,1,0,1
1530,0.53,1644835889.109375,P07,D03,1,0,1
1531,0.25,1644835889.125,P07,D03,1,0,1
1532,-0.01,1644835889.140625,P07,D03,1,0,1
1533,-0.28,1644835889.15625,P07,D03,1,0,1
1534,-0.55,1644835889.171875,P07,D03,1,0,1
1535,-0.83,1644835889.1875,P07,D03,1,0,1
1536,-1.05,1644835889.203125,P07,D03,1,0,1
1537,-1.12,1644835889.21875,P07,D03,1,0,1
1538,-1.0,1644835889.234375,P07,D03,1,0,1
1539,-0.71,1644835889.25,P07,D03,1,0,1
1540,-0.34,1644835889.265625,P07,D03,1,0,1
1541,-0.03,1644835889.28125,P07,D03,1,0,1
1542,0.16,1644835889.296875,P07,D03,1,0,1
1543,0.26,1644835889.3125,P07,D03,1,0,1
1544,0.32,1644835889.328125,P07,D03,1,0,1
1545,0.42,1644835889.34375,P07,D03,1,0,1
1546,0.55,1644835889.359375,P07,D03,1,0,1
1547,0.65,1644835889.375,P07,D03,1,0,1
1548,0.66,1644835889.390625,P07,D03,1,0,1
1549,0.55,1644835889.40625,P07,D03,1,0,1
1550,0.38,1644835889.421875,P07,D03,1,0,1
1551,0.24,1644835889.4375,P07,D03,1,0,1
1552,0.16,1644835889.453125,P07,D03,1,0,1
1553,0.12,1644835889.46875,P07,D03,1,0,1
1554,0.07,1644835889.484375,P07,D03,1,0,1
1555,-0.05,1644835889.5,P07,D03,1,0,1
1556,-0.23,1644835889.515625,P07,D03,1,0,1
1557,-0.39,1644835889.53125,P07,D03,1,0,1
1558,-0.44,1644835889.546875,P07,D03,1,0,1
1559,-0.34,1644835889.5625,P07,D03,1,0,1
1560,-0.14,1644835889.578125,P07,D03,1,0,1
1561,0.07,1644835889.59375,P07,D03,1,0,1
1562,0.23,1644835889.609375,P07,D03,1,0,1
1563,0.29,1644835889.625,P07,D03,1,0,1
1564,0.28,1644835889.640625,P07,D03,1,0,1
1565,0.24,1644835889.65625,P07,D03,1,0,1
1566,0.2,1644835889.671875,P07,D03,1,0,1
1567,0.16,1644835889.6875,P07,D03,1,0,1
1568,0.09,1644835889.703125,P07,D03,1,0,1
1569,-0.01,1644835889.71875,P07,D03,1,0,1
1570,-0.12,1644835889.734375,P07,D03,1,0,1
1571,-0.19,1644835889.75,P07,D03,1,0,1
1572,-0.14,1644835889.765625,P07,D03,1,0,1
1573,0.03,1644835889.78125,P07,D03,1,0,1
1574,0.32,1644835889.796875,P07,D03,1,0,1
1575,0.62,1644835889.8125,P07,D03,1,0,1
1576,0.85,1644835889.828125,P07,D03,1,0,1
1577,0.92,1644835889.84375,P07,D03,1,0,1
1578,0.82,1644835889.859375,P07,D03,1,0,1
1579,0.6,1644835889.875,P07,D03,1,0,1
1580,0.36,1644835889.890625,P07,D03,1,0,1
1581,0.16,1644835889.90625,P07,D03,1,0,1
1582,0.02,1644835889.921875,P07,D03,1,0,1
1583,-0.1,1644835889.9375,P07,D03,1,0,1
1584,-0.23,1644835889.953125,P07,D03,1,0,1
1585,-0.36,1644835889.96875,P07,D03,1,0,1
1586,-0.46,1644835889.984375,P07,D03,1,0,1
1587,-0.47,1644835890.0,P07,D03,1,0,1
1588,-0.38,1644835890.015625,P07,D03,1,0,1
1589,-0.2,1644835890.03125,P07,D03,1,0,1
1590,-0.04,1644835890.046875,P07,D03,1,0,1
1591,0.01,1644835890.0625,P07,D03,1,0,1
1592,-0.07,1644835890.078125,P07,D03,1,0,1
1593,-0.22,1644835890.09375,P07,D03,1,0,1
1594,-0.35,1644835890.109375,P07,D03,1,0,1
1595,-0.33,1644835890.125,P07,D03,1,0,1
1596,-0.16,1644835890.140625,P07,D03,1,0,1
1597,0.11,1644835890.15625,P07,D03,1,0,1
1598,0.35,1644835890.171875,P07,D03,1,0,1
1599,0.44,1644835890.1875,P07,D03,1,0,1
1600,0.34,1644835890.203125,P07,D03,1,0,1
1601,0.11,1644835890.21875,P07,D03,1,0,1
1602,-0.15,1644835890.234375,P07,D03,1,0,1
1603,-0.32,1644835890.25,P07,D03,1,0,1
1604,-0.37,1644835890.265625,P07,D03,1,0,1
1605,-0.33,1644835890.28125,P07,D03,1,0,1
1606,-0.29,1644835890.296875,P07,D03,1,0,1
1607,-0.34,1644835890.3125,P07,D03,1,0,1
1608,-0.47,1644835890.328125,P07,D03,1,0,1
1609,-0.65,1644835890.34375,P07,D03,1,0,1
1610,-0.82,1644835890.359375,P07,D03,1,0,1
1611,-0.96,1644835890.375,P07,D03,1,0,1
1612,-1.07,1644835890.390625,P07,D03,1,0,1
1613,-1.15,1644835890.40625,P07,D03,1,0,1
1614,-1.17,1644835890.421875,P07,D03,1,0,1
1615,-1.1,1644835890.4375,P07,D03,1,0,1
1616,-0.9,1644835890.453125,P07,D03,1,0,1
1617,-0.62,1644835890.46875,P07,D03,1,0,1
1618,-0.34,1644835890.484375,P07,D03,1,0,1
1619,-0.16,1644835890.5,P07,D03,1,0,1
1620,-0.09,1644835890.515625,P07,D03,1,0,1
1621,-0.05,1644835890.53125,P07,D03,1,0,1
1622,0.04,1644835890.546875,P07,D03,1,0,1
1623,0.24,1644835890.5625,P07,D03,1,0,1
1624,0.5,1644835890.578125,P07,D03,1,0,1
1625,0.71,1644835890.59375,P07,D03,1,0,1
1626,0.75,1644835890.609375,P07,D03,1,0,1
1627,0.61,1644835890.625,P07,D03,1,0,1
1628,0.38,1644835890.640625,P07,D03,1,0,1
1629,0.2,1644835890.65625,P07,D03,1,0,1
1630,0.15,1644835890.671875,P07,D03,1,0,1
1631,0.21,1644835890.6875,P07,D03,1,0,1
1632,0.28,1644835890.703125,P07,D03,1,0,1
1633,0.25,1644835890.71875,P07,D03,1,0,1
1634,0.09,1644835890.734375,P07,D03,1,0,1
1635,-0.13,1644835890.75,P07,D03,1,0,1
1636,-0.29,1644835890.765625,P07,D03,1,0,1
1637,-0.29,1644835890.78125,P07,D03,1,0,1
1638,-0.13,1644835890.796875,P07,D03,1,0,1
1639,0.15,1644835890.8125,P07,D03,1,0,1
1640,0.45,1644835890.828125,P07,D03,1,0,1
1641,0.66,1644835890.84375,P07,D03,1,0,1
1642,0.74,1644835890.859375,P07,D03,1,0,1
1643,0.68,1644835890.875,P07,D03,1,0,1
1644,0.54,1644835890.890625,P07,D03,1,0,1
1645,0.41,1644835890.90625,P07,D03,1,0,1
1646,0.37,1644835890.921875,P07,D03,1,0,1
1647,0.47,1644835890.9375,P07,D03,1,0,1
1648,0.67,1644835890.953125,P07,D03,1,0,1
1649,0.87,1644835890.96875,P07,D03,1,0,1
1650,0.98,1644835890.984375,P07,D03,1,0,1
1651,0.91,1644835891.0,P07,D03,1,0,1
1652,0.68,1644835891.015625,P07,D03,1,0,1
1653,0.39,1644835891.03125,P07,D03,1,0,1
1654,0.15,1644835891.046875,P07,D03,1,0,1
1655,0.04,1644835891.0625,P07,D03,1,0,1
1656,0.05,1644835891.078125,P07,D03,1,0,1
1657,0.09,1644835891.09375,P07,D03,1,0,1
1658,0.12,1644835891.109375,P07,D03,1,0,1
1659,0.11,1644835891.125,P07,D03,1,0,1
1660,0.13,1644835891.140625,P07,D03,1,0,1
1661,0.27,1644835891.15625,P07,D03,1,0,1
1662,0.55,1644835891.171875,P07,D03,1,0,1
1663,0.9,1644835891.1875,P07,D03,1,0,1
1664,1.16,1644835891.203125,P07,D03,1,0,1
1665,1.19,1644835891.21875,P07,D03,1,0,1
1666,0.96,1644835891.234375,P07,D03,1,0,1
1667,0.55,1644835891.25,P07,D03,1,0,1
1668,0.17,1644835891.265625,P07,D03,1,0,1
1669,-0.04,1644835891.28125,P07,D03,1,0,1
1670,-0.03,1644835891.296875,P07,D03,1,0,1
1671,0.15,1644835891.3125,P07,D03,1,0,1
1672,0.38,1644835891.328125,P07,D03,1,0,1
1673,0.53,1644835891.34375,P07,D03,1,0,1
1674,0.54,1644835891.359375,P07,D03,1,0,1
1675,0.43,1644835891.375,P07,D03,1,0,1
1676,0.25,1644835891.390625,P07,D03,1,0,1
1677,0.03,1644835891.40625,P07,D03,1,0,1
1678,-0.2,1644835891.421875,P07,D03,1,0,1
1679,-0.43,1644835891.4375,P07,D03,1,0,1
1680,-0.63,1644835891.453125,P07,D03,1,0,1
1681,-0.78,1644835891.46875,P07,D03,1,0,1
1682,-0.81,1644835891.484375,P07,D03,1,0,1
1683,-0.75,1644835891.5,P07,D03,1,0,1
1684,-0.63,1644835891.515625,P07,D03,1,0,1
1685,-0.52,1644835891.53125,P07,D03,1,0,1
1686,-0.49,1644835891.546875,P07,D03,1,0,1
1687,-0.55,1644835891.5625,P07,D03,1,0,1
1688,-0.65,1644835891.578125,P07,D03,1,0,1
1689,-0.7,1644835891.59375,P07,D03,1,0,1
1690,-0.61,1644835891.609375,P07,D03,1,0,1
1691,-0.37,1644835891.625,P07,D03,1,0,1
1692,-0.06,1644835891.640625,P07,D03,1,0,1
1693,0.23,1644835891.65625,P07,D03,1,0,1
1694,0.4,1644835891.671875,P07,D03,1,0,1
1695,0.44,1644835891.6875,P07,D03,1,0,1
1696,0.41,1644835891.703125,P07,D03,1,0,1
1697,0.4,1644835891.71875,P07,D03,1,0,1
1698,0.42,1644835891.734375,P07,D03,1,0,1
1699,0.41,1644835891.75,P07,D03,1,0,1
1700,0.28,1644835891.765625,P07,D03,1,0,1
1701,0.0,1644835891.78125,P07,D03,1,0,1
1702,-0.37,1644835891.796875,P07,D03,1,0,1
1703,-0.66,1644835891.8125,P07,D03,1,0,1
1704,-0.72,1644835891.828125,P07,D03,1,0,1
1705,-0.5,1644835891.84375,P07,D03,1,0,1
1706,-0.1,1644835891.859375,P07,D03,1,0,1
1707,0.28,1644835891.875,P07,D03,1,0,1
1708,0.45,1644835891.890625,P07,D03,1,0,1
1709,0.36,1644835891.90625,P07,D03,1,0,1
1710,0.08,1644835891.921875,P07,D03,1,0,1
1711,-0.21,1644835891.9375,P07,D03,1,0,1
1712,-0.38,1644835891.953125,P07,D03,1,0,1
1713,-0.37,1644835891.96875,P07,D03,1,0,1
1714,-0.25,1644835891.984375,P07,D03,1,0,1
1715,-0.12,1644835892.0,P07,D03,1,0,1
1716,-0.07,1644835892.015625,P07,D03,1,0,1
1717,-0.13,1644835892.03125,P07,D03,1,0,1
1718,-0.28,1644835892.046875,P07,D03,1,0,1
1719,-0.46,1644835892.0625,P07,D03,1,0,1
1720,-0.65,1644835892.078125,P07,D03,1,0,1
1721,-0.77,1644835892.09375,P07,D03,1,0,1
1722,-0.78,1644835892.109375,P07,D03,1,0,1
1723,-0.63,1644835892.125,P07,D03,1,0,1
1724,-0.33,1644835892.140625,P07,D03,1,0,1
1725,0.09,1644835892.15625,P07,D03,1,0,1
1726,0.51,1644835892.171875,P07,D03,1,0,1
1727,0.8,1644835892.1875,P07,D03,1,0,1
1728,0.86,1644835892.203125,P07,D03,1,0,1
1729,0.67,1644835892.21875,P07,D03,1,0,1
1730,0.29,1644835892.234375,P07,D03,1,0,1
1731,-0.19,1644835892.25,P07,D03,1,0,1
1732,-0.66,1644835892.265625,P07,D03,1,0,1
1733,-1.03,1644835892.28125,P07,D03,1,0,1
1734,-1.26,1644835892.296875,P07,D03,1,0,1
1735,-1.31,1644835892.3125,P07,D03,1,0,1
1736,-1.17,1644835892.328125,P07,D03,1,0,1
1737,-0.87,1644835892.34375,P07,D03,1,0,1
1738,-0.47,1644835892.359375,P07,D03,1,0,1
1739,-0.08,1644835892.375,P07,D03,1,0,1
1740,0.2,1644835892.390625,P07,D03,1,0,1
1741,0.29,1644835892.40625,P07,D03,1,0,1
1742,0.21,1644835892.421875,P07,D03,1,0,1
1743,0.04,1644835892.4375,P07,D03,1,0,1
1744,-0.12,1644835892.453125,P07,D03,1,0,1
1745,-0.16,1644835892.46875,P07,D03,1,0,1
1746,-0.06,1644835892.484375,P07,D03,1,0,1
1747,0.12,1644835892.5,P07,D03,1,0,1
1748,0.3,1644835892.515625,P07,D03,1,0,1
1749,0.38,1644835892.53125,P07,D03,1,0,1
1750,0.36,1644835892.546875,P07,D03,1,0,1
1751,0.29,1644835892.5625,P07,D03,1,0,1
1752,0.24,1644835892.578125,P07,D03,1,0,1
1753,0.26,1644835892.59375,P07,D03,1,0,1
1754,0.34,1644835892.609375,P07,D03,1,0,1
1755,0.4,1644835892.625,P07,D03,1,0,1
1756,0.4,1644835892.640625,P07,D03,1,0,1
1757,0.34,1644835892.65625,P07,D03,1,0,1
1758,0.28,1644835892.671875,P07,D03,1,0,1
1759,0.29,1644835892.6875,P07,D03,1,0,1
1760,0.4,1644835892.703125,P07,D03,1,0,1
1761,0.53,1644835892.71875,P07,D03,1,0,1
1762,0.58,1644835892.734375,P07,D03,1,0,1
1763,0.46,1644835892.75,P07,D03,1,0,1
1764,0.15,1644835892.765625,P07,D03,1,0,1
1765,-0.27,1644835892.78125,P07,D03,1,0,1
1766,-0.67,1644835892.796875,P07,D03,1,0,1
1767,-0.94,1644835892.8125,P07,D03,1,0,1
1768,-1.01,1644835892.828125,P07,D03,1,0,1
1769,-0.91,1644835892.84375,P07,D03,1,0,1
1770,-0.7,1644835892.859375,P07,D03,1,0,1
1771,-0.49,1644835892.875,P07,D03,1,0,1
1772,-0.32,1644835892.890625,P07,D03,1,0,1
1773,-0.23,1644835892.90625,P07,D03,1,0,1
1774,-0.19,1644835892.921875,P07,D03,1,0,1
1775,-0.14,1644835892.9375,P07,D03,1,0,1
1776,-0.05,1644835892.953125,P07,D03,1,0,1
1777,0.06,1644835892.96875,P07,D03,1,0,1
1778,0.17,1644835892.984375,P07,D03,1,0,1
1779,0.24,1644835893.0,P07,D03,1,0,1
1780,0.23,1644835893.015625,P07,D03,1,0,1
1781,0.18,1644835893.03125,P07,D03,1,0,1
1782,0.12,1644835893.046875,P07,D03,1,0,1
1783,0.11,1644835893.0625,P07,D03,1,0,1
1784,0.15,1644835893.078125,P07,D03,1,0,1
1785,0.22,1644835893.09375,P07,D03,1,0,1
1786,0.25,1644835893.109375,P07,D03,1,0,1
1787,0.24,1644835893.125,P07,D03,1,0,1
1788,0.18,1644835893.140625,P07,D03,1,0,1
1789,0.14,1644835893.15625,P07,D03,1,0,1
1790,0.17,1644835893.171875,P07,D03,1,0,1
1791,0.29,1644835893.1875,P07,D03,1,0,1
1792,0.44,1644835893.203125,P07,D03,1,0,1
1793,0.55,1644835893.21875,P07,D03,1,0,1
1794,0.57,1644835893.234375,P07,D03,1,0,1
1795,0.48,1644835893.25,P07,D03,1,0,1
1796,0.34,1644835893.265625,P07,D03,1,0,1
1797,0.2,1644835893.28125,P07,D03,1,0,1
1798,0.12,1644835893.296875,P07,D03,1,0,1
1799,0.09,1644835893.3125,P07,D03,1,0,1
1800,0.08,1644835893.328125,P07,D03,1,0,1
1801,0.04,1644835893.34375,P07,D03,1,0,1
1802,-0.04,1644835893.359375,P07,D03,1,0,1
1803,-0.13,1644835893.375,P07,D03,1,0,1
1804,-0.17,1644835893.390625,P07,D03,1,0,1
1805,-0.13,1644835893.40625,P07,D03,1,0,1
1806,-0.06,1644835893.421875,P07,D03,1,0,1
1807,-0.04,1644835893.4375,P07,D03,1,0,1
1808,-0.16,1644835893.453125,P07,D03,1,0,1
1809,-0.41,1644835893.46875,P07,D03,1,0,1
1810,-0.71,1644835893.484375,P07,D03,1,0,1
1811,-0.88,1644835893.5,P07,D03,1,0,1
1812,-0.78,1644835893.515625,P07,D03,1,0,1
1813,-0.38,1644835893.53125,P07,D03,1,0,1
1814,0.21,1644835893.546875,P07,D03,1,0,1
1815,0.79,1644835893.5625,P07,D03,1,0,1
1816,1.16,1644835893.578125,P07,D03,1,0,1
1817,1.18,1644835893.59375,P07,D03,1,0,1
1818,0.89,1644835893.609375,P07,D03,1,0,1
1819,0.41,1644835893.625,P07,D03,1,0,1
1820,-0.09,1644835893.640625,P07,D03,1,0,1
1821,-0.48,1644835893.65625,P07,D03,1,0,1
1822,-0.7,1644835893.671875,P07,D03,1,0,1
1823,-0.78,1644835893.6875,P07,D03,1,0,1
1824,-0.75,1644835893.703125,P07,D03,1,0,1
1825,-0.67,1644835893.71875,P07,D03,1,0,1
1826,-0.55,1644835893.734375,P07,D03,1,0,1
1827,-0.41,1644835893.75,P07,D03,1,0,1
1828,-0.3,1644835893.765625,P07,D03,1,0,1
1829,-0.22,1644835893.78125,P07,D03,1,0,1
1830,-0.23,1644835893.796875,P07,D03,1,0,1
1831,-0.34,1644835893.8125,P07,D03,1,0,1
1832,-0.54,1644835893.828125,P07,D03,1,0,1
1833,-0.79,1644835893.84375,P07,D03,1,0,1
1834,-0.99,1644835893.859375,P07,D03,1,0,1
1835,-1.08,1644835893.875,P07,D03,1,0,1
1836,-1.01,1644835893.890625,P07,D03,1,0,1
1837,-0.79,1644835893.90625,P07,D03,1,0,1
1838,-0.48,1644835893.921875,P07,D03,1,0,1
1839,-0.17,1644835893.9375,P07,D03,1,0,1
1840,0.06,1644835893.953125,P07,D03,1,0,1
1841,0.18,1644835893.96875,P07,D03,1,0,1
1842,0.17,1644835893.984375,P07,D03,1,0,1
1843,0.11,1644835894.0,P07,D03,1,0,1
1844,0.04,1644835894.015625,P07,D03,1,0,1
1845,0.02,1644835894.03125,P07,D03,1,0,1
1846,0.08,1644835894.046875,P07,D03,1,0,1
1847,0.25,1644835894.0625,P07,D03,1,0,1
1848,0.51,1644835894.078125,P07,D03,1,0,1
1849,0.82,1644835894.09375,P07,D03,1,0,1
1850,1.16,1644835894.109375,P07,D03,1,0,1
1851,1.44,1644835894.125,P07,D03,1,0,1
1852,1.59,1644835894.140625,P07,D03,1,0,1
1853,1.54,1644835894.15625,P07,D03,1,0,1
1854,1.28,1644835894.171875,P07,D03,1,0,1
1855,0.88,1644835894.1875,P07,D03,1,0,1
1856,0.47,1644835894.203125,P07,D03,1,0,1
1857,0.19,1644835894.21875,P07,D03,1,0,1
1858,0.12,1644835894.234375,P07,D03,1,0,1
1859,0.28,1644835894.25,P07,D03,1,0,1
1860,0.6,1644835894.265625,P07,D03,1,0,1
1861,0.9,1644835894.28125,P07,D03,1,0,1
1862,1.04,1644835894.296875,P07,D03,1,0,1
1863,0.92,1644835894.3125,P07,D03,1,0,1
1864,0.56,1644835894.328125,P07,D03,1,0,1
1865,0.06,1644835894.34375,P07,D03,1,0,1
1866,-0.41,1644835894.359375,P07,D03,1,0,1
1867,-0.71,1644835894.375,P07,D03,1,0,1
1868,-0.82,1644835894.390625,P07,D03,1,0,1
1869,-0.77,1644835894.40625,P07,D03,1,0,1
1870,-0.63,1644835894.421875,P07,D03,1,0,1
1871,-0.46,1644835894.4375,P07,D03,1,0,1
1872,-0.28,1644835894.453125,P07,D03,1,0,1
1873,-0.12,1644835894.46875,P07,D03,1,0,1
1874,0.01,1644835894.484375,P07,D03,1,0,1
1875,0.07,1644835894.5,P07,D03,1,0,1
1876,0.04,1644835894.515625,P07,D03,1,0,1
1877,-0.08,1644835894.53125,P07,D03,1,0,1
1878,-0.19,1644835894.546875,P07,D03,1,0,1
1879,-0.21,1644835894.5625,P07,D03,1,0,1
1880,-0.1,1644835894.578125,P07,D03,1,0,1
1881,0.12,1644835894.59375,P07,D03,1,0,1
1882,0.35,1644835894.609375,P07,D03,1,0,1
1883,0.49,1644835894.625,P07,D03,1,0,1
1884,0.5,1644835894.640625,P07,D03,1,0,1
1885,0.42,1644835894.65625,P07,D03,1,0,1
1886,0.33,1644835894.671875,P07,D03,1,0,1
1887,0.27,1644835894.6875,P07,D03,1,0,1
1888,0.21,1644835894.703125,P07,D03,1,0,1
1889,0.1,1644835894.71875,P07,D03,1,0,1
1890,-0.12,1644835894.734375,P07,D03,1,0,1
1891,-0.41,1644835894.75,P07,D03,1,0,1
1892,-0.67,1644835894.765625,P07,D03,1,0,1
1893,-0.8,1644835894.78125,P07,D03,1,0,1
1894,-0.73,1644835894.796875,P07,D03,1,0,1
1895,-0.49,1644835894.8125,P07,D03,1,0,1
1896,-0.2,1644835894.828125,P07,D03,1,0,1
1897,0.03,1644835894.84375,P07,D03,1,0,1
1898,0.13,1644835894.859375,P07,D03,1,0,1
1899,0.13,1644835894.875,P07,D03,1,0,1
1900,0.09,1644835894.890625,P07,D03,1,0,1
1901,0.1,1644835894.90625,P07,D03,1,0,1
1902,0.19,1644835894.921875,P07,D03,1,0,1
1903,0.31,1644835894.9375,P07,D03,1,0,1
1904,0.39,1644835894.953125,P07,D03,1,0,1
1905,0.37,1644835894.96875,P07,D03,1,0,1
1906,0.27,1644835894.984375,P07,D03,1,0,1
1907,0.13,1644835895.0,P07,D03,1,0,1
1908,0.0,1644835895.015625,P07,D03,1,0,1
1909,-0.06,1644835895.03125,P07,D03,1,0,1
1910,-0.06,1644835895.046875,P07,D03,1,0,1
1911,-0.05,1644835895.0625,P07,D03,1,0,1
1912,-0.05,1644835895.078125,P07,D03,1,0,1
1913,-0.08,1644835895.09375,P07,D03,1,0,1
1914,-0.13,1644835895.109375,P07,D03,1,0,1
1915,-0.17,1644835895.125,P07,D03,1,0,1
1916,-0.19,1644835895.140625,P07,D03,1,0,1
1917,-0.16,1644835895.15625,P07,D03,1,0,1
1918,-0.09,1644835895.171875,P07,D03,1,0,1
1919,0.01,1644835895.1875,P07,D03,1,0,1
1920,0.14,1644835895.203125,P07,D03,1,0,1
1921,0.24,1644835895.21875,P07,D03,1,0,1
1922,0.3,1644835895.234375,P07,D03,1,0,1
1923,0.29,1644835895.25,P07,D03,1,0,1
1924,0.23,1644835895.265625,P07,D03,1,0,1
1925,0.18,1644835895.28125,P07,D03,1,0,1
1926,0.16,1644835895.296875,P07,D03,1,0,1
1927,0.16,1644835895.3125,P07,D03,1,0,1
1928,0.11,1644835895.328125,P07,D03,1,0,1
1929,-0.08,1644835895.34375,P07,D03,1,0,1
1930,-0.44,1644835895.359375,P07,D03,1,0,1
1931,-0.9,1644835895.375,P07,D03,1,0,1
1932,-1.31,1644835895.390625,P07,D03,1,0,1
1933,-1.5,1644835895.40625,P07,D03,1,0,1
1934,-1.41,1644835895.421875,P07,D03,1,0,1
1935,-1.07,1644835895.4375,P07,D03,1,0,1
1936,-0.62,1644835895.453125,P07,D03,1,0,1
1937,-0.2,1644835895.46875,P07,D03,1,0,1
1938,0.09,1644835895.484375,P07,D03,1,0,1
1939,0.25,1644835895.5,P07,D03,1,0,1
1940,0.32,1644835895.515625,P07,D03,1,0,1
1941,0.35,1644835895.53125,P07,D03,1,0,1
1942,0.32,1644835895.546875,P07,D03,1,0,1
1943,0.23,1644835895.5625,P07,D03,1,0,1
1944,0.09,1644835895.578125,P07,D03,1,0,1
1945,-0.07,1644835895.59375,P07,D03,1,0,1
1946,-0.19,1644835895.609375,P07,D03,1,0,1
1947,-0.23,1644835895.625,P07,D03,1,0,1
1948,-0.18,1644835895.640625,P07,D03,1,0,1
1949,-0.08,1644835895.65625,P07,D03,1,0,1
1950,0.01,1644835895.671875,P07,D03,1,0,1
1951,0.06,1644835895.6875,P07,D03,1,0,1
1952,0.06,1644835895.703125,P07,D03,1,0,1
1953,0.04,1644835895.71875,P07,D03,1,0,1
1954,0.06,1644835895.734375,P07,D03,1,0,1
1955,0.15,1644835895.75,P07,D03,1,0,1
1956,0.33,1644835895.765625,P07,D03,1,0,1
1957,0.56,1644835895.78125,P07,D03,1,0,1
1958,0.75,1644835895.796875,P07,D03,1,0,1
1959,0.84,1644835895.8125,P07,D03,1,0,1
1960,0.78,1644835895.828125,P07,D03,1,0,1
1961,0.62,1644835895.84375,P07,D03,1,0,1
1962,0.45,1644835895.859375,P07,D03,1,0,1
1963,0.39,1644835895.875,P07,D03,1,0,1
1964,0.46,1644835895.890625,P07,D03,1,0,1
1965,0.59,1644835895.90625,P07,D03,1,0,1
1966,0.65,1644835895.921875,P07,D03,1,0,1
1967,0.53,1644835895.9375,P07,D03,1,0,1
1968,0.22,1644835895.953125,P07,D03,1,0,1
1969,-0.17,1644835895.96875,P07,D03,1,0,1
1970,-0.48,1644835895.984375,P07,D03,1,0,1
1971,-0.6,1644835896.0,P07,D03,1,0,1
1972,-0.52,1644835896.015625,P07,D03,1,0,1
1973,-0.34,1644835896.03125,P07,D03,1,0,1
1974,-0.17,1644835896.046875,P07,D03,1,0,1
1975,-0.09,1644835896.0625,P07,D03,1,0,1
1976,-0.09,1644835896.078125,P07,D03,1,0,1
1977,-0.12,1644835896.09375,P07,D03,1,0,1
1978,-0.15,1644835896.109375,P07,D03,1,0,1
1979,-0.18,1644835896.125,P07,D03,1,0,1
1980,-0.24,1644835896.140625,P07,D03,1,0,1
1981,-0.34,1644835896.15625,P07,D03,1,0,1
1982,-0.45,1644835896.171875,P07,D03,1,0,1
1983,-0.49,1644835896.1875,P07,D03,1,0,1
1984,-0.4,1644835896.203125,P07,D03,1,0,1
1985,-0.17,1644835896.21875,P07,D03,1,0,1
1986,0.14,1644835896.234375,P07,D03,1,0,1
1987,0.44,1644835896.25,P07,D03,1,0,1
1988,0.63,1644835896.265625,P07,D03,1,0,1
1989,0.7,1644835896.28125,P07,D03,1,0,1
1990,0.65,1644835896.296875,P07,D03,1,0,1
1991,0.54,1644835896.3125,P07,D03,1,0,1
1992,0.39,1644835896.328125,P07,D03,1,0,1
1993,0.23,1644835896.34375,P07,D03,1,0,1
1994,0.03,1644835896.359375,P07,D03,1,0,1
1995,-0.2,1644835896.375,P07,D03,1,0,1
1996,-0.41,1644835896.390625,P07,D03,1,0,1
1997,-0.55,1644835896.40625,P07,D03,1,0,1
1998,-0.57,1644835896.421875,P07,D03,1,0,1
1999,-0.47,1644835896.4375,P07,D03,1,0,1
2000,-0.29,1644835896.453125,P07,D03,1,0,1
2001,-0.12,1644835896.46875,P07,D03,1,0,1
2002,-0.01,1644835896.484375,P07,D03,1,0,1
2003,0.01,1644835896.5,P07,D03,1,0,1
2004,-0.02,1644835896.515625,P07,D03,1,0,1
2005,-0.06,1644835896.53125,P07,D03,1,0,1
2006,-0.08,1644835896.546875,P07,D03,1,0,1
2007,-0.07,1644835896.5625,P07,D03,1,0,1
2008,-0.07,1644835896.578125,P07,D03,1,0,1
2009,-0.07,1644835896.59375,P07,D03,1,0,1
2010,-0.04,1644835896.609375,P07,D03,1,0,1
2011,0.04,1644835896.625,P07,D03,1,0,1
2012,0.19,1644835896.640625,P07,D03,1,0,1
2013,0.39,1644835896.65625,P07,D03,1,0,1
2014,0.6,1644835896.671875,P07,D03,1,0,1
2015,0.78,1644835896.6875,P07,D03,1,0,1
2016,0.93,1644835896.703125,P07,D03,1,0,1
2017,1.06,1644835896.71875,P07,D03,1,0,1
2018,1.14,1644835896.734375,P07,D03,1,0,1
2019,1.12,1644835896.75,P07,D03,1,0,1
2020,0.94,1644835896.765625,P07,D03,1,0,1
2021,0.55,1644835896.78125,P07,D03,1,0,1
2022,0.01,1644835896.796875,P07,D03,1,0,1
2023,-0.54,1644835896.8125,P07,D03,1,0,1
2024,-0.98,1644835896.828125,P07,D03,1,0,1
2025,-1.21,1644835896.84375,P07,D03,1,0,1
2026,-1.24,1644835896.859375,P07,D03,1,0,1
2027,-1.16,1644835896.875,P07,D03,1,0,1
2028,-1.07,1644835896.890625,P07,D03,1,0,1
2029,-1.01,1644835896.90625,P07,D03,1,0,1
2030,-0.95,1644835896.921875,P07,D03,1,0,1
2031,-0.82,1644835896.9375,P07,D03,1,0,1
2032,-0.63,1644835896.953125,P07,D03,1,0,1
2033,-0.42,1644835896.96875,P07,D03,1,0,1
2034,-0.27,1644835896.984375,P07,D03,1,0,1
2035,-0.25,1644835897.0,P07,D03,1,0,1
2036,-0.34,1644835897.015625,P07,D03,1,0,1
2037,-0.46,1644835897.03125,P07,D03,1,0,1
2038,-0.49,1644835897.046875,P07,D03,1,0,1
2039,-0.38,1644835897.0625,P07,D03,1,0,1
2040,-0.14,1644835897.078125,P07,D03,1,0,1
2041,0.13,1644835897.09375,P07,D03,1,0,1
2042,0.36,1644835897.109375,P07,D03,1,0,1
2043,0.51,1644835897.125,P07,D03,1,0,1
2044,0.6,1644835897.140625,P07,D03,1,0,1
2045,0.66,1644835897.15625,P07,D03,1,0,1
2046,0.71,1644835897.171875,P07,D03,1,0,1
2047,0.74,1644835897.1875,P07,D03,1,0,1
2048,0.72,1644835897.203125,P07,D03,1,0,1
2049,0.62,1644835897.21875,P07,D03,1,0,1
2050,0.48,1644835897.234375,P07,D03,1,0,1
2051,0.35,1644835897.25,P07,D03,1,0,1
2052,0.27,1644835897.265625,P07,D03,1,0,1
2053,0.26,1644835897.28125,P07,D03,1,0,1
2054,0.27,1644835897.296875,P07,D03,1,0,1
2055,0.26,1644835897.3125,P07,D03,1,0,1
2056,0.16,1644835897.328125,P07,D03,1,0,1
2057,-0.02,1644835897.34375,P07,D03,1,0,1
2058,-0.26,1644835897.359375,P07,D03,1,0,1
2059,-0.51,1644835897.375,P07,D03,1,0,1
2060,-0.72,1644835897.390625,P07,D03,1,0,1
2061,-0.83,1644835897.40625,P07,D03,1,0,1
2062,-0.83,1644835897.421875,P07,D03,1,0,1
2063,-0.69,1644835897.4375,P07,D03,1,0,1
2064,-0.44,1644835897.453125,P07,D03,1,0,1
2065,-0.11,1644835897.46875,P07,D03,1,0,1
2066,0.22,1644835897.484375,P07,D03,1,0,1
2067,0.51,1644835897.5,P07,D03,1,0,1
2068,0.71,1644835897.515625,P07,D03,1,0,1
2069,0.81,1644835897.53125,P07,D03,1,0,1
2070,0.84,1644835897.546875,P07,D03,1,0,1
2071,0.8,1644835897.5625,P07,D03,1,0,1
2072,0.7,1644835897.578125,P07,D03,1,0,1
2073,0.52,1644835897.59375,P07,D03,1,0,1
2074,0.25,1644835897.609375,P07,D03,1,0,1
2075,-0.07,1644835897.625,P07,D03,1,0,1
2076,-0.37,1644835897.640625,P07,D03,1,0,1
2077,-0.55,1644835897.65625,P07,D03,1,0,1
2078,-0.55,1644835897.671875,P07,D03,1,0,1
2079,-0.31,1644835897.6875,P07,D03,1,0,1
2080,0.14,1644835897.703125,P07,D03,1,0,1
2081,0.7,1644835897.71875,P07,D03,1,0,1
2082,1.25,1644835897.734375,P07,D03,1,0,1
2083,1.65,1644835897.75,P07,D03,1,0,1
2084,1.8,1644835897.765625,P07,D03,1,0,1
2085,1.66,1644835897.78125,P07,D03,1,0,1
2086,1.29,1644835897.796875,P07,D03,1,0,1
2087,0.82,1644835897.8125,P07,D03,1,0,1
2088,0.4,1644835897.828125,P07,D03,1,0,1
2089,0.13,1644835897.84375,P07,D03,1,0,1
2090,0.03,1644835897.859375,P07,D03,1,0,1
2091,0.02,1644835897.875,P07,D03,1,0,1
2092,0.01,1644835897.890625,P07,D03,1,0,1
2093,-0.07,1644835897.90625,P07,D03,1,0,1
2094,-0.23,1644835897.921875,P07,D03,1,0,1
2095,-0.44,1644835897.9375,P07,D03,1,0,1
2096,-0.65,1644835897.953125,P07,D03,1,0,1
2097,-0.82,1644835897.96875,P07,D03,1,0,1
2098,-0.93,1644835897.984375,P07,D03,1,0,1
2099,-0.94,1644835898.0,P07,D03,1,0,1
2100,-0.85,1644835898.015625,P07,D03,1,0,1
2101,-0.66,1644835898.03125,P07,D03,1,0,1
2102,-0.41,1644835898.046875,P07,D03,1,0,1
2103,-0.2,1644835898.0625,P07,D03,1,0,1
2104,-0.11,1644835898.078125,P07,D03,1,0,1
2105,-0.21,1644835898.09375,P07,D03,1,0,1
2106,-0.54,1644835898.109375,P07,D03,1,0,1
2107,-1.07,1644835898.125,P07,D03,1,0,1
2108,-1.72,1644835898.140625,P07,D03,1,0,1
2109,-2.38,1644835898.15625,P07,D03,1,0,1
2110,-2.92,1644835898.171875,P07,D03,1,0,1
2111,-3.25,1644835898.1875,P07,D03,1,0,1
2112,-3.28,1644835898.203125,P07,D03,1,0,1
2113,-3.02,1644835898.21875,P07,D03,1,0,1
2114,-2.53,1644835898.234375,P07,D03,1,0,1
2115,-1.87,1644835898.25,P07,D03,1,0,1
2116,-1.13,1644835898.265625,P07,D03,1,0,1
2117,-0.36,1644835898.28125,P07,D03,1,0,1
2118,0.43,1644835898.296875,P07,D03,1,0,1
2119,1.19,1644835898.3125,P07,D03,1,0,1
2120,1.84,1644835898.328125,P07,D03,1,0,1
2121,2.26,1644835898.34375,P07,D03,1,0,1
2122,2.39,1644835898.359375,P07,D03,1,0,1
2123,2.25,1644835898.375,P07,D03,1,0,1
2124,1.93,1644835898.390625,P07,D03,1,0,1
2125,1.61,1644835898.40625,P07,D03,1,0,1
2126,1.4,1644835898.421875,P07,D03,1,0,1
2127,1.35,1644835898.4375,P07,D03,1,0,1
2128,1.4,1644835898.453125,P07,D03,1,0,1
2129,1.47,1644835898.46875,P07,D03,1,0,1
2130,1.47,1644835898.484375,P07,D03,1,0,1
2131,1.35,1644835898.5,P07,D03,1,0,1
2132,1.15,1644835898.515625,P07,D03,1,0,1
2133,0.95,1644835898.53125,P07,D03,1,0,1
2134,0.79,1644835898.546875,P07,D03,1,0,1
2135,0.71,1644835898.5625,P07,D03,1,0,1
2136,0.72,1644835898.578125,P07,D03,1,0,1
2137,0.8,1644835898.59375,P07,D03,1,0,1
2138,0.94,1644835898.609375,P07,D03,1,0,1
2139,1.13,1644835898.625,P07,D03,1,0,1
2140,1.34,1644835898.640625,P07,D03,1,0,1
2141,1.49,1644835898.65625,P07,D03,1,0,1
2142,1.51,1644835898.671875,P07,D03,1,0,1
2143,1.35,1644835898.6875,P07,D03,1,0,1
2144,1.0,1644835898.703125,P07,D03,1,0,1
2145,0.58,1644835898.71875,P07,D03,1,0,1
2146,0.22,1644835898.734375,P07,D03,1,0,1
2147,0.08,1644835898.75,P07,D03,1,0,1
2148,0.19,1644835898.765625,P07,D03,1,0,1
2149,0.5,1644835898.78125,P07,D03,1,0,1
2150,0.84,1644835898.796875,P07,D03,1,0,1
2151,1.07,1644835898.8125,P07,D03,1,0,1
2152,1.11,1644835898.828125,P07,D03,1,0,1
2153,1.01,1644835898.84375,P07,D03,1,0,1
2154,0.87,1644835898.859375,P07,D03,1,0,1
2155,0.77,1644835898.875,P07,D03,1,0,1
2156,0.73,1644835898.890625,P07,D03,1,0,1
2157,0.71,1644835898.90625,P07,D03,1,0,1
2158,0.66,1644835898.921875,P07,D03,1,0,1
2159,0.56,1644835898.9375,P07,D03,1,0,1
2160,0.47,1644835898.953125,P07,D03,1,0,1
2161,0.44,1644835898.96875,P07,D03,1,0,1
2162,0.52,1644835898.984375,P07,D03,1,0,1
2163,0.7,1644835899.0,P07,D03,1,0,1
2164,0.93,1644835899.015625,P07,D03,1,0,1
2165,1.11,1644835899.03125,P07,D03,1,0,1
2166,1.18,1644835899.046875,P07,D03,1,0,1
2167,1.1,1644835899.0625,P07,D03,1,0,1
2168,0.89,1644835899.078125,P07,D03,1,0,1
2169,0.61,1644835899.09375,P07,D03,1,0,1
2170,0.35,1644835899.109375,P07,D03,1,0,1
2171,0.21,1644835899.125,P07,D03,1,0,1
2172,0.25,1644835899.140625,P07,D03,1,0,1
2173,0.44,1644835899.15625,P07,D03,1,0,1
2174,0.68,1644835899.171875,P07,D03,1,0,1
2175,0.82,1644835899.1875,P07,D03,1,0,1
2176,0.75,1644835899.203125,P07,D03,1,0,1
2177,0.46,1644835899.21875,P07,D03,1,0,1
2178,0.02,1644835899.234375,P07,D03,1,0,1
2179,-0.4,1644835899.25,P07,D03,1,0,1
2180,-0.67,1644835899.265625,P07,D03,1,0,1
2181,-0.75,1644835899.28125,P07,D03,1,0,1
2182,-0.74,1644835899.296875,P07,D03,1,0,1
2183,-0.77,1644835899.3125,P07,D03,1,0,1
2184,-0.97,1644835899.328125,P07,D03,1,0,1
2185,-1.34,1644835899.34375,P07,D03,1,0,1
2186,-1.78,1644835899.359375,P07,D03,1,0,1
2187,-2.14,1644835899.375,P07,D03,1,0,1
2188,-2.3,1644835899.390625,P07,D03,1,0,1
2189,-2.29,1644835899.40625,P07,D03,1,0,1
2190,-2.19,1644835899.421875,P07,D03,1,0,1
2191,-2.14,1644835899.4375,P07,D03,1,0,1
2192,-2.19,1644835899.453125,P07,D03,1,0,1
2193,-2.3,1644835899.46875,P07,D03,1,0,1
2194,-2.35,1644835899.484375,P07,D03,1,0,1
2195,-2.27,1644835899.5,P07,D03,1,0,1
2196,-2.1,1644835899.515625,P07,D03,1,0,1
2197,-1.96,1644835899.53125,P07,D03,1,0,1
2198,-2.03,1644835899.546875,P07,D03,1,0,1
2199,-2.4,1644835899.5625,P07,D03,1,0,1
2200,-3.01,1644835899.578125,P07,D03,1,0,1
2201,-3.67,1644835899.59375,P07,D03,1,0,1
2202,-4.13,1644835899.609375,P07,D03,1,0,1
2203,-4.21,1644835899.625,P07,D03,1,0,1
2204,-3.86,1644835899.640625,P07,D03,1,0,1
2205,-3.19,1644835899.65625,P07,D03,1,0,1
2206,-2.38,1644835899.671875,P07,D03,1,0,1
2207,-1.68,1644835899.6875,P07,D03,1,0,1
2208,-1.23,1644835899.703125,P07,D03,1,0,1
2209,-1.11,1644835899.71875,P07,D03,1,0,1
2210,-1.24,1644835899.734375,P07,D03,1,0,1
2211,-1.45,1644835899.75,P07,D03,1,0,1
2212,-1.56,1644835899.765625,P07,D03,1,0,1
2213,-1.44,1644835899.78125,P07,D03,1,0,1
2214,-1.1,1644835899.796875,P07,D03,1,0,1
2215,-0.68,1644835899.8125,P07,D03,1,0,1
2216,-0.36,1644835899.828125,P07,D03,1,0,1
2217,-0.25,1644835899.84375,P07,D03,1,0,1
2218,-0.34,1644835899.859375,P07,D03,1,0,1
2219,-0.49,1644835899.875,P07,D03,1,0,1
2220,-0.53,1644835899.890625,P07,D03,1,0,1
2221,-0.36,1644835899.90625,P07,D03,1,0,1
2222,0.03,1644835899.921875,P07,D03,1,0,1
2223,0.53,1644835899.9375,P07,D03,1,0,1
2224,0.99,1644835899.953125,P07,D03,1,0,1
2225,1.31,1644835899.96875,P07,D03,1,0,1
2226,1.45,1644835899.984375,P07,D03,1,0,1
2227,1.45,1644835900.0,P07,D03,1,0,1
2228,1.33,1644835900.015625,P07,D03,1,0,1
2229,1.12,1644835900.03125,P07,D03,1,0,1
2230,0.82,1644835900.046875,P07,D03,1,0,1
2231,0.41,1644835900.0625,P07,D03,1,0,1
2232,-0.06,1644835900.078125,P07,D03,1,0,1
2233,-0.46,1644835900.09375,P07,D03,1,0,1
2234,-0.66,1644835900.109375,P07,D03,1,0,1
2235,-0.51,1644835900.125,P07,D03,1,0,1
2236,0.01,1644835900.140625,P07,D03,1,0,1
2237,0.75,1644835900.15625,P07,D03,1,0,1
2238,1.47,1644835900.171875,P07,D03,1,0,1
2239,1.94,1644835900.1875,P07,D03,1,0,1
2240,2.01,1644835900.203125,P07,D03,1,0,1
2241,1.72,1644835900.21875,P07,D03,1,0,1
2242,1.23,1644835900.234375,P07,D03,1,0,1
2243,0.76,1644835900.25,P07,D03,1,0,1
2244,0.48,1644835900.265625,P07,D03,1,0,1
2245,0.41,1644835900.28125,P07,D03,1,0,1
2246,0.5,1644835900.296875,P07,D03,1,0,1
2247,0.65,1644835900.3125,P07,D03,1,0,1
2248,0.78,1644835900.328125,P07,D03,1,0,1
2249,0.86,1644835900.34375,P07,D03,1,0,1
2250,0.91,1644835900.359375,P07,D03,1,0,1
2251,0.92,1644835900.375,P07,D03,1,0,1
2252,0.92,1644835900.390625,P07,D03,1,0,1
2253,0.89,1644835900.40625,P07,D03,1,0,1
2254,0.81,1644835900.421875,P07,D03,1,0,1
2255,0.68,1644835900.4375,P07,D03,1,0,1
2256,0.5,1644835900.453125,P07,D03,1,0,1
2257,0.3,1644835900.46875,P07,D03,1,0,1
2258,0.11,1644835900.484375,P07,D03,1,0,1
2259,-0.06,1644835900.5,P07,D03,1,0,1
2260,-0.19,1644835900.515625,P07,D03,1,0,1
2261,-0.26,1644835900.53125,P07,D03,1,0,1
2262,-0.29,1644835900.546875,P07,D03,1,0,1
2263,-0.26,1644835900.5625,P07,D03,1,0,1
2264,-0.21,1644835900.578125,P07,D03,1,0,1
2265,-0.17,1644835900.59375,P07,D03,1,0,1
2266,-0.16,1644835900.609375,P07,D03,1,0,1
2267,-0.18,1644835900.625,P07,D03,1,0,1
2268,-0.18,1644835900.640625,P07,D03,1,0,1
2269,-0.11,1644835900.65625,P07,D03,1,0,1
2270,0.08,1644835900.671875,P07,D03,1,0,1
2271,0.36,1644835900.6875,P07,D03,1,0,1
2272,0.65,1644835900.703125,P07,D03,1,0,1
2273,0.84,1644835900.71875,P07,D03,1,0,1
2274,0.9,1644835900.734375,P07,D03,1,0,1
2275,0.84,1644835900.75,P07,D03,1,0,1
2276,0.78,1644835900.765625,P07,D03,1,0,1
2277,0.81,1644835900.78125,P07,D03,1,0,1
2278,0.95,1644835900.796875,P07,D03,1,0,1
2279,1.1,1644835900.8125,P07,D03,1,0,1
2280,1.08,1644835900.828125,P07,D03,1,0,1
2281,0.82,1644835900.84375,P07,D03,1,0,1
2282,0.35,1644835900.859375,P07,D03,1,0,1
2283,-0.17,1644835900.875,P07,D03,1,0,1
2284,-0.52,1644835900.890625,P07,D03,1,0,1
2285,-0.57,1644835900.90625,P07,D03,1,0,1
2286,-0.31,1644835900.921875,P07,D03,1,0,1
2287,0.15,1644835900.9375,P07,D03,1,0,1
2288,0.66,1644835900.953125,P07,D03,1,0,1
2289,1.14,1644835900.96875,P07,D03,1,0,1
2290,1.57,1644835900.984375,P07,D03,1,0,1
2291,1.95,1644835901.0,P07,D03,1,0,1
2292,2.24,1644835901.015625,P07,D03,1,0,1
2293,2.34,1644835901.03125,P07,D03,1,0,1
2294,2.15,1644835901.046875,P07,D03,1,0,1
2295,1.64,1644835901.0625,P07,D03,1,0,1
2296,0.93,1644835901.078125,P07,D03,1,0,1
2297,0.22,1644835901.09375,P07,D03,1,0,1
2298,-0.26,1644835901.109375,P07,D03,1,0,1
2299,-0.39,1644835901.125,P07,D03,1,0,1
2300,-0.25,1644835901.140625,P07,D03,1,0,1
2301,-0.02,1644835901.15625,P07,D03,1,0,1
2302,0.07,1644835901.171875,P07,D03,1,0,1
2303,-0.1,1644835901.1875,P07,D03,1,0,1
2304,-0.5,1644835901.203125,P07,D03,1,0,1
2305,-0.96,1644835901.21875,P07,D03,1,0,1
2306,-1.27,1644835901.234375,P07,D03,1,0,1
2307,-1.28,1644835901.25,P07,D03,1,0,1
2308,-0.97,1644835901.265625,P07,D03,1,0,1
2309,-0.45,1644835901.28125,P07,D03,1,0,1
2310,0.11,1644835901.296875,P07,D03,1,0,1
2311,0.54,1644835901.3125,P07,D03,1,0,1
2312,0.76,1644835901.328125,P07,D03,1,0,1
2313,0.76,1644835901.34375,P07,D03,1,0,1
2314,0.6,1644835901.359375,P07,D03,1,0,1
2315,0.33,1644835901.375,P07,D03,1,0,1
2316,-0.0,1644835901.390625,P07,D03,1,0,1
2317,-0.36,1644835901.40625,P07,D03,1,0,1
2318,-0.68,1644835901.421875,P07,D03,1,0,1
2319,-0.91,1644835901.4375,P07,D03,1,0,1
2320,-1.0,1644835901.453125,P07,D03,1,0,1
2321,-0.92,1644835901.46875,P07,D03,1,0,1
2322,-0.73,1644835901.484375,P07,D03,1,0,1
2323,-0.52,1644835901.5,P07,D03,1,0,1
2324,-0.42,1644835901.515625,P07,D03,1,0,1
2325,-0.48,1644835901.53125,P07,D03,1,0,1
2326,-0.65,1644835901.546875,P07,D03,1,0,1
2327,-0.82,1644835901.5625,P07,D03,1,0,1
2328,-0.85,1644835901.578125,P07,D03,1,0,1
2329,-0.69,1644835901.59375,P07,D03,1,0,1
2330,-0.36,1644835901.609375,P07,D03,1,0,1
2331,-0.01,1644835901.625,P07,D03,1,0,1
2332,0.25,1644835901.640625,P07,D03,1,0,1
2333,0.36,1644835901.65625,P07,D03,1,0,1
2334,0.35,1644835901.671875,P07,D03,1,0,1
2335,0.34,1644835901.6875,P07,D03,1,0,1
2336,0.38,1644835901.703125,P07,D03,1,0,1
2337,0.5,1644835901.71875,P07,D03,1,0,1
2338,0.67,1644835901.734375,P07,D03,1,0,1
2339,0.81,1644835901.75,P07,D03,1,0,1
2340,0.91,1644835901.765625,P07,D03,1,0,1
2341,0.92,1644835901.78125,P07,D03,1,0,1
2342,0.84,1644835901.796875,P07,D03,1,0,1
2343,0.66,1644835901.8125,P07,D03,1,0,1
2344,0.39,1644835901.828125,P07,D03,1,0,1
2345,0.07,1644835901.84375,P07,D03,1,0,1
2346,-0.2,1644835901.859375,P07,D03,1,0,1
2347,-0.31,1644835901.875,P07,D03,1,0,1
2348,-0.22,1644835901.890625,P07,D03,1,0,1
2349,0.05,1644835901.90625,P07,D03,1,0,1
2350,0.36,1644835901.921875,P07,D03,1,0,1
2351,0.55,1644835901.9375,P07,D03,1,0,1
2352,0.51,1644835901.953125,P07,D03,1,0,1
2353,0.24,1644835901.96875,P07,D03,1,0,1
2354,-0.13,1644835901.984375,P07,D03,1,0,1
2355,-0.42,1644835902.0,P07,D03,1,0,1
2356,-0.5,1644835902.015625,P07,D03,1,0,1
2357,-0.32,1644835902.03125,P07,D03,1,0,1
2358,0.04,1644835902.046875,P07,D03,1,0,1
2359,0.42,1644835902.0625,P07,D03,1,0,1
2360,0.63,1644835902.078125,P07,D03,1,0,1
2361,0.54,1644835902.09375,P07,D03,1,0,1
2362,0.12,1644835902.109375,P07,D03,1,0,1
2363,-0.54,1644835902.125,P07,D03,1,0,1
2364,-1.24,1644835902.140625,P07,D03,1,0,1
2365,-1.74,1644835902.15625,P07,D03,1,0,1
2366,-1.87,1644835902.171875,P07,D03,1,0,1
2367,-1.58,1644835902.1875,P07,D03,1,0,1
2368,-0.99,1644835902.203125,P07,D03,1,0,1
2369,-0.32,1644835902.21875,P07,D03,1,0,1
2370,0.26,1644835902.234375,P07,D03,1,0,1
2371,0.63,1644835902.25,P07,D03,1,0,1
2372,0.8,1644835902.265625,P07,D03,1,0,1
2373,0.84,1644835902.28125,P07,D03,1,0,1
2374,0.84,1644835902.296875,P07,D03,1,0,1
2375,0.85,1644835902.3125,P07,D03,1,0,1
2376,0.88,1644835902.328125,P07,D03,1,0,1
2377,0.91,1644835902.34375,P07,D03,1,0,1
2378,0.94,1644835902.359375,P07,D03,1,0,1
2379,0.91,1644835902.375,P07,D03,1,0,1
2380,0.81,1644835902.390625,P07,D03,1,0,1
2381,0.6,1644835902.40625,P07,D03,1,0,1
2382,0.3,1644835902.421875,P07,D03,1,0,1
2383,-0.02,1644835902.4375,P07,D03,1,0,1
2384,-0.23,1644835902.453125,P07,D03,1,0,1
2385,-0.26,1644835902.46875,P07,D03,1,0,1
2386,-0.09,1644835902.484375,P07,D03,1,0,1
2387,0.2,1644835902.5,P07,D03,1,0,1
2388,0.46,1644835902.515625,P07,D03,1,0,1
2389,0.56,1644835902.53125,P07,D03,1,0,1
2390,0.45,1644835902.546875,P07,D03,1,0,1
2391,0.2,1644835902.5625,P07,D03,1,0,1
2392,-0.08,1644835902.578125,P07,D03,1,0,1
2393,-0.29,1644835902.59375,P07,D03,1,0,1
2394,-0.42,1644835902.609375,P07,D03,1,0,1
2395,-0.5,1644835902.625,P07,D03,1,0,1
2396,-0.6,1644835902.640625,P07,D03,1,0,1
2397,-0.76,1644835902.65625,P07,D03,1,0,1
2398,-1.0,1644835902.671875,P07,D03,1,0,1
2399,-1.24,1644835902.6875,P07,D03,1,0,1
2400,-1.46,1644835902.703125,P07,D03,1,0,1
2401,-1.61,1644835902.71875,P07,D03,1,0,1
2402,-1.65,1644835902.734375,P07,D03,1,0,1
2403,-1.56,1644835902.75,P07,D03,1,0,1
2404,-1.31,1644835902.765625,P07,D03,1,0,1
2405,-0.94,1644835902.78125,P07,D03,1,0,1
2406,-0.5,1644835902.796875,P07,D03,1,0,1
2407,-0.08,1644835902.8125,P07,D03,1,0,1
2408,0.2,1644835902.828125,P07,D03,1,0,1
2409,0.3,1644835902.84375,P07,D03,1,0,1
2410,0.22,1644835902.859375,P07,D03,1,0,1
2411,0.03,1644835902.875,P07,D03,1,0,1
2412,-0.24,1644835902.890625,P07,D03,1,0,1
2413,-0.52,1644835902.90625,P07,D03,1,0,1
2414,-0.81,1644835902.921875,P07,D03,1,0,1
2415,-1.06,1644835902.9375,P07,D03,1,0,1
2416,-1.22,1644835902.953125,P07,D03,1,0,1
2417,-1.23,1644835902.96875,P07,D03,1,0,1
2418,-1.05,1644835902.984375,P07,D03,1,0,1
2419,-0.73,1644835903.0,P07,D03,1,0,1
2420,-0.36,1644835903.015625,P07,D03,1,0,1
2421,-0.09,1644835903.03125,P07,D03,1,0,1
2422,0.01,1644835903.046875,P07,D03,1,0,1
2423,-0.08,1644835903.0625,P07,D03,1,0,1
2424,-0.26,1644835903.078125,P07,D03,1,0,1
2425,-0.41,1644835903.09375,P07,D03,1,0,1
2426,-0.41,1644835903.109375,P07,D03,1,0,1
2427,-0.2,1644835903.125,P07,D03,1,0,1
2428,0.18,1644835903.140625,P07,D03,1,0,1
2429,0.66,1644835903.15625,P07,D03,1,0,1
2430,1.11,1644835903.171875,P07,D03,1,0,1
2431,1.42,1644835903.1875,P07,D03,1,0,1
2432,1.55,1644835903.203125,P07,D03,1,0,1
2433,1.46,1644835903.21875,P07,D03,1,0,1
2434,1.2,1644835903.234375,P07,D03,1,0,1
2435,0.82,1644835903.25,P07,D03,1,0,1
2436,0.37,1644835903.265625,P07,D03,1,0,1
2437,-0.1,1644835903.28125,P07,D03,1,0,1
2438,-0.53,1644835903.296875,P07,D03,1,0,1
2439,-0.85,1644835903.3125,P07,D03,1,0,1
2440,-0.99,1644835903.328125,P07,D03,1,0,1
2441,-0.91,1644835903.34375,P07,D03,1,0,1
2442,-0.63,1644835903.359375,P07,D03,1,0,1
2443,-0.25,1644835903.375,P07,D03,1,0,1
2444,0.09,1644835903.390625,P07,D03,1,0,1
2445,0.31,1644835903.40625,P07,D03,1,0,1
2446,0.4,1644835903.421875,P07,D03,1,0,1
2447,0.45,1644835903.4375,P07,D03,1,0,1
2448,0.53,1644835903.453125,P07,D03,1,0,1
2449,0.7,1644835903.46875,P07,D03,1,0,1
2450,0.9,1644835903.484375,P07,D03,1,0,1
2451,1.0,1644835903.5,P07,D03,1,0,1
2452,0.93,1644835903.515625,P07,D03,1,0,1
2453,0.71,1644835903.53125,P07,D03,1,0,1
2454,0.41,1644835903.546875,P07,D03,1,0,1
2455,0.19,1644835903.5625,P07,D03,1,0,1
2456,0.12,1644835903.578125,P07,D03,1,0,1
2457,0.23,1644835903.59375,P07,D03,1,0,1
2458,0.44,1644835903.609375,P07,D03,1,0,1
2459,0.61,1644835903.625,P07,D03,1,0,1
2460,0.65,1644835903.640625,P07,D03,1,0,1
2461,0.5,1644835903.65625,P07,D03,1,0,1
2462,0.19,1644835903.671875,P07,D03,1,0,1
2463,-0.19,1644835903.6875,P07,D03,1,0,1
2464,-0.55,1644835903.703125,P07,D03,1,0,1
2465,-0.77,1644835903.71875,P07,D03,1,0,1
2466,-0.81,1644835903.734375,P07,D03,1,0,1
2467,-0.67,1644835903.75,P07,D03,1,0,1
2468,-0.42,1644835903.765625,P07,D03,1,0,1
2469,-0.17,1644835903.78125,P07,D03,1,0,1
2470,0.01,1644835903.796875,P07,D03,1,0,1
2471,0.09,1644835903.8125,P07,D03,1,0,1
2472,0.09,1644835903.828125,P07,D03,1,0,1
2473,0.06,1644835903.84375,P07,D03,1,0,1
2474,0.01,1644835903.859375,P07,D03,1,0,1
2475,-0.07,1644835903.875,P07,D03,1,0,1
2476,-0.22,1644835903.890625,P07,D03,1,0,1
2477,-0.44,1644835903.90625,P07,D03,1,0,1
2478,-0.69,1644835903.921875,P07,D03,1,0,1
2479,-0.9,1644835903.9375,P07,D03,1,0,1
2480,-0.99,1644835903.953125,P07,D03,1,0,1
2481,-0.93,1644835903.96875,P07,D03,1,0,1
2482,-0.76,1644835903.984375,P07,D03,1,0,1
2483,-0.54,1644835904.0,P07,D03,1,0,1
2484,-0.33,1644835904.015625,P07,D03,1,0,1
2485,-0.13,1644835904.03125,P07,D03,1,0,1
2486,0.06,1644835904.046875,P07,D03,1,0,1
2487,0.31,1644835904.0625,P07,D03,1,0,1
2488,0.59,1644835904.078125,P07,D03,1,0,1
2489,0.85,1644835904.09375,P07,D03,1,0,1
2490,0.99,1644835904.109375,P07,D03,1,0,1
2491,0.94,1644835904.125,P07,D03,1,0,1
2492,0.71,1644835904.140625,P07,D03,1,0,1
2493,0.42,1644835904.15625,P07,D03,1,0,1
2494,0.17,1644835904.171875,P07,D03,1,0,1
2495,0.05,1644835904.1875,P07,D03,1,0,1
2496,0.03,1644835904.203125,P07,D03,1,0,1
2497,0.04,1644835904.21875,P07,D03,1,0,1
2498,0.01,1644835904.234375,P07,D03,1,0,1
2499,-0.09,1644835904.25,P07,D03,1,0,1
2500,-0.19,1644835904.265625,P07,D03,1,0,1
2501,-0.2,1644835904.28125,P07,D03,1,0,1
2502,-0.1,1644835904.296875,P07,D03,1,0,1
2503,0.08,1644835904.3125,P07,D03,1,0,1
2504,0.21,1644835904.328125,P07,D03,1,0,1
2505,0.21,1644835904.34375,P07,D03,1,0,1
2506,0.04,1644835904.359375,P07,D03,1,0,1
2507,-0.2,1644835904.375,P07,D03,1,0,1
2508,-0.39,1644835904.390625,P07,D03,1,0,1
2509,-0.41,1644835904.40625,P07,D03,1,0,1
2510,-0.21,1644835904.421875,P07,D03,1,0,1
2511,0.12,1644835904.4375,P07,D03,1,0,1
2512,0.46,1644835904.453125,P07,D03,1,0,1
2513,0.69,1644835904.46875,P07,D03,1,0,1
2514,0.73,1644835904.484375,P07,D03,1,0,1
2515,0.6,1644835904.5,P07,D03,1,0,1
2516,0.38,1644835904.515625,P07,D03,1,0,1
2517,0.18,1644835904.53125,P07,D03,1,0,1
2518,0.1,1644835904.546875,P07,D03,1,0,1
2519,0.19,1644835904.5625,P07,D03,1,0,1
2520,0.39,1644835904.578125,P07,D03,1,0,1
2521,0.55,1644835904.59375,P07,D03,1,0,1
2522,0.58,1644835904.609375,P07,D03,1,0,1
2523,0.42,1644835904.625,P07,D03,1,0,1
2524,0.13,1644835904.640625,P07,D03,1,0,1
2525,-0.17,1644835904.65625,P07,D03,1,0,1
2526,-0.38,1644835904.671875,P07,D03,1,0,1
2527,-0.48,1644835904.6875,P07,D03,1,0,1
2528,-0.52,1644835904.703125,P07,D03,1,0,1
2529,-0.59,1644835904.71875,P07,D03,1,0,1
2530,-0.7,1644835904.734375,P07,D03,1,0,1
2531,-0.78,1644835904.75,P07,D03,1,0,1
2532,-0.71,1644835904.765625,P07,D03,1,0,1
2533,-0.43,1644835904.78125,P07,D03,1,0,1
2534,0.01,1644835904.796875,P07,D03,1,0,1
2535,0.44,1644835904.8125,P07,D03,1,0,1
2536,0.66,1644835904.828125,P07,D03,1,0,1
2537,0.55,1644835904.84375,P07,D03,1,0,1
2538,0.16,1644835904.859375,P07,D03,1,0,1
2539,-0.36,1644835904.875,P07,D03,1,0,1
2540,-0.77,1644835904.890625,P07,D03,1,0,1
2541,-0.92,1644835904.90625,P07,D03,1,0,1
2542,-0.81,1644835904.921875,P07,D03,1,0,1
2543,-0.54,1644835904.9375,P07,D03,1,0,1
2544,-0.27,1644835904.953125,P07,D03,1,0,1
2545,-0.12,1644835904.96875,P07,D03,1,0,1
2546,-0.1,1644835904.984375,P07,D03,1,0,1
2547,-0.15,1644835905.0,P07,D03,1,0,1
2548,-0.17,1644835905.015625,P07,D03,1,0,1
2549,-0.12,1644835905.03125,P07,D03,1,0,1
2550,-0.03,1644835905.046875,P07,D03,1,0,1
2551,0.03,1644835905.0625,P07,D03,1,0,1
2552,0.01,1644835905.078125,P07,D03,1,0,1
2553,-0.07,1644835905.09375,P07,D03,1,0,1
2554,-0.13,1644835905.109375,P07,D03,1,0,1
2555,-0.07,1644835905.125,P07,D03,1,0,1
2556,0.16,1644835905.140625,P07,D03,1,0,1
2557,0.5,1644835905.15625,P07,D03,1,0,1
2558,0.86,1644835905.171875,P07,D03,1,0,1
2559,1.12,1644835905.1875,P07,D03,1,0,1
2560,1.26,1644835905.203125,P07,D03,1,0,1
2561,1.3,1644835905.21875,P07,D03,1,0,1
2562,1.28,1644835905.234375,P07,D03,1,0,1
2563,1.2,1644835905.25,P07,D03,1,0,1
2564,1.0,1644835905.265625,P07,D03,1,0,1
2565,0.6,1644835905.28125,P07,D03,1,0,1
2566,-0.02,1644835905.296875,P07,D03,1,0,1
2567,-0.79,1644835905.3125,P07,D03,1,0,1
2568,-1.54,1644835905.328125,P07,D03,1,0,1
2569,-2.09,1644835905.34375,P07,D03,1,0,1
2570,-2.3,1644835905.359375,P07,D03,1,0,1
2571,-2.13,1644835905.375,P07,D03,1,0,1
2572,-1.65,1644835905.390625,P07,D03,1,0,1
2573,-0.99,1644835905.40625,P07,D03,1,0,1
2574,-0.31,1644835905.421875,P07,D03,1,0,1
2575,0.23,1644835905.4375,P07,D03,1,0,1
2576,0.56,1644835905.453125,P07,D03,1,0,1
2577,0.66,1644835905.46875,P07,D03,1,0,1
2578,0.6,1644835905.484375,P07,D03,1,0,1
2579,0.51,1644835905.5,P07,D03,1,0,1
2580,0.48,1644835905.515625,P07,D03,1,0,1
2581,0.53,1644835905.53125,P07,D03,1,0,1
2582,0.62,1644835905.546875,P07,D03,1,0,1
2583,0.66,1644835905.5625,P07,D03,1,0,1
2584,0.58,1644835905.578125,P07,D03,1,0,1
2585,0.42,1644835905.59375,P07,D03,1,0,1
2586,0.27,1644835905.609375,P07,D03,1,0,1
2587,0.22,1644835905.625,P07,D03,1,0,1
2588,0.29,1644835905.640625,P07,D03,1,0,1
2589,0.41,1644835905.65625,P07,D03,1,0,1
2590,0.45,1644835905.671875,P07,D03,1,0,1
2591,0.33,1644835905.6875,P07,D03,1,0,1
2592,0.06,1644835905.703125,P07,D03,1,0,1
2593,-0.27,1644835905.71875,P07,D03,1,0,1
2594,-0.54,1644835905.734375,P07,D03,1,0,1
2595,-0.66,1644835905.75,P07,D03,1,0,1
2596,-0.62,1644835905.765625,P07,D03,1,0,1
2597,-0.48,1644835905.78125,P07,D03,1,0,1
2598,-0.33,1644835905.796875,P07,D03,1,0,1
2599,-0.23,1644835905.8125,P07,D03,1,0,1
2600,-0.18,1644835905.828125,P07,D03,1,0,1
2601,-0.15,1644835905.84375,P07,D03,1,0,1
2602,-0.1,1644835905.859375,P07,D03,1,0,1
2603,0.02,1644835905.875,P07,D03,1,0,1
2604,0.17,1644835905.890625,P07,D03,1,0,1
2605,0.29,1644835905.90625,P07,D03,1,0,1
2606,0.31,1644835905.921875,P07,D03,1,0,1
2607,0.18,1644835905.9375,P07,D03,1,0,1
2608,-0.1,1644835905.953125,P07,D03,1,0,1
2609,-0.45,1644835905.96875,P07,D03,1,0,1
2610,-0.73,1644835905.984375,P07,D03,1,0,1
2611,-0.86,1644835906.0,P07,D03,1,0,1
2612,-0.75,1644835906.015625,P07,D03,1,0,1
2613,-0.46,1644835906.03125,P07,D03,1,0,1
2614,-0.06,1644835906.046875,P07,D03,1,0,1
2615,0.32,1644835906.0625,P07,D03,1,0,1
2616,0.58,1644835906.078125,P07,D03,1,0,1
2617,0.65,1644835906.09375,P07,D03,1,0,1
2618,0.52,1644835906.109375,P07,D03,1,0,1
2619,0.23,1644835906.125,P07,D03,1,0,1
2620,-0.13,1644835906.140625,P07,D03,1,0,1
2621,-0.48,1644835906.15625,P07,D03,1,0,1
2622,-0.71,1644835906.171875,P07,D03,1,0,1
2623,-0.76,1644835906.1875,P07,D03,1,0,1
2624,-0.63,1644835906.203125,P07,D03,1,0,1
2625,-0.36,1644835906.21875,P07,D03,1,0,1
2626,-0.08,1644835906.234375,P07,D03,1,0,1
2627,0.11,1644835906.25,P07,D03,1,0,1
2628,0.16,1644835906.265625,P07,D03,1,0,1
2629,0.08,1644835906.28125,P07,D03,1,0,1
2630,-0.06,1644835906.296875,P07,D03,1,0,1
2631,-0.15,1644835906.3125,P07,D03,1,0,1
2632,-0.1,1644835906.328125,P07,D03,1,0,1
2633,0.08,1644835906.34375,P07,D03,1,0,1
2634,0.33,1644835906.359375,P07,D03,1,0,1
2635,0.56,1644835906.375,P07,D03,1,0,1
2636,0.7,1644835906.390625,P07,D03,1,0,1
2637,0.79,1644835906.40625,P07,D03,1,0,1
2638,0.89,1644835906.421875,P07,D03,1,0,1
2639,1.04,1644835906.4375,P07,D03,1,0,1
2640,1.22,1644835906.453125,P07,D03,1,0,1
2641,1.3,1644835906.46875,P07,D03,1,0,1
2642,1.17,1644835906.484375,P07,D03,1,0,1
2643,0.73,1644835906.5,P07,D03,1,0,1
2644,0.09,1644835906.515625,P07,D03,1,0,1
2645,-0.57,1644835906.53125,P07,D03,1,0,1
2646,-0.99,1644835906.546875,P07,D03,1,0,1
2647,-1.06,1644835906.5625,P07,D03,1,0,1
2648,-0.77,1644835906.578125,P07,D03,1,0,1
2649,-0.28,1644835906.59375,P07,D03,1,0,1
2650,0.18,1644835906.609375,P07,D03,1,0,1
2651,0.47,1644835906.625,P07,D03,1,0,1
2652,0.52,1644835906.640625,P07,D03,1,0,1
2653,0.39,1644835906.65625,P07,D03,1,0,1
2654,0.17,1644835906.671875,P07,D03,1,0,1
2655,-0.04,1644835906.6875,P07,D03,1,0,1
2656,-0.2,1644835906.703125,P07,D03,1,0,1
2657,-0.28,1644835906.71875,P07,D03,1,0,1
2658,-0.31,1644835906.734375,P07,D03,1,0,1
2659,-0.32,1644835906.75,P07,D03,1,0,1
2660,-0.32,1644835906.765625,P07,D03,1,0,1
2661,-0.31,1644835906.78125,P07,D03,1,0,1
2662,-0.24,1644835906.796875,P07,D03,1,0,1
2663,-0.12,1644835906.8125,P07,D03,1,0,1
2664,-0.0,1644835906.828125,P07,D03,1,0,1
2665,0.04,1644835906.84375,P07,D03,1,0,1
2666,-0.06,1644835906.859375,P07,D03,1,0,1
2667,-0.26,1644835906.875,P07,D03,1,0,1
2668,-0.45,1644835906.890625,P07,D03,1,0,1
2669,-0.48,1644835906.90625,P07,D03,1,0,1
2670,-0.28,1644835906.921875,P07,D03,1,0,1
2671,0.11,1644835906.9375,P07,D03,1,0,1
2672,0.52,1644835906.953125,P07,D03,1,0,1
2673,0.78,1644835906.96875,P07,D03,1,0,1
2674,0.78,1644835906.984375,P07,D03,1,0,1
2675,0.58,1644835907.0,P07,D03,1,0,1
2676,0.3,1644835907.015625,P07,D03,1,0,1
2677,0.08,1644835907.03125,P07,D03,1,0,1
2678,-0.02,1644835907.046875,P07,D03,1,0,1
2679,-0.03,1644835907.0625,P07,D03,1,0,1
2680,-0.02,1644835907.078125,P07,D03,1,0,1
2681,-0.05,1644835907.09375,P07,D03,1,0,1
2682,-0.14,1644835907.109375,P07,D03,1,0,1
2683,-0.24,1644835907.125,P07,D03,1,0,1
2684,-0.29,1644835907.140625,P07,D03,1,0,1
2685,-0.25,1644835907.15625,P07,D03,1,0,1
2686,-0.13,1644835907.171875,P07,D03,1,0,1
2687,0.03,1644835907.1875,P07,D03,1,0,1
2688,0.18,1644835907.203125,P07,D03,1,0,1
2689,0.27,1644835907.21875,P07,D03,1,0,1
2690,0.28,1644835907.234375,P07,D03,1,0,1
2691,0.2,1644835907.25,P07,D03,1,0,1
2692,0.08,1644835907.265625,P07,D03,1,0,1
2693,-0.01,1644835907.28125,P07,D03,1,0,1
2694,-0.04,1644835907.296875,P07,D03,1,0,1
2695,0.0,1644835907.3125,P07,D03,1,0,1
2696,0.07,1644835907.328125,P07,D03,1,0,1
2697,0.1,1644835907.34375,P07,D03,1,0,1
2698,0.05,1644835907.359375,P07,D03,1,0,1
2699,-0.08,1644835907.375,P07,D03,1,0,1
2700,-0.26,1644835907.390625,P07,D03,1,0,1
2701,-0.43,1644835907.40625,P07,D03,1,0,1
2702,-0.51,1644835907.421875,P07,D03,1,0,1
2703,-0.48,1644835907.4375,P07,D03,1,0,1
2704,-0.34,1644835907.453125,P07,D03,1,0,1
2705,-0.13,1644835907.46875,P07,D03,1,0,1
2706,0.1,1644835907.484375,P07,D03,1,0,1
2707,0.31,1644835907.5,P07,D03,1,0,1
2708,0.44,1644835907.515625,P07,D03,1,0,1
2709,0.45,1644835907.53125,P07,D03,1,0,1
2710,0.36,1644835907.546875,P07,D03,1,0,1
2711,0.2,1644835907.5625,P07,D03,1,0,1
2712,0.01,1644835907.578125,P07,D03,1,0,1
2713,-0.16,1644835907.59375,P07,D03,1,0,1
2714,-0.32,1644835907.609375,P07,D03,1,0,1
2715,-0.46,1644835907.625,P07,D03,1,0,1
2716,-0.57,1644835907.640625,P07,D03,1,0,1
2717,-0.62,1644835907.65625,P07,D03,1,0,1
2718,-0.57,1644835907.671875,P07,D03,1,0,1
2719,-0.42,1644835907.6875,P07,D03,1,0,1
2720,-0.18,1644835907.703125,P07,D03,1,0,1
2721,0.05,1644835907.71875,P07,D03,1,0,1
2722,0.18,1644835907.734375,P07,D03,1,0,1
2723,0.14,1644835907.75,P07,D03,1,0,1
2724,-0.03,1644835907.765625,P07,D03,1,0,1
2725,-0.27,1644835907.78125,P07,D03,1,0,1
2726,-0.51,1644835907.796875,P07,D03,1,0,1
2727,-0.67,1644835907.8125,P07,D03,1,0,1
2728,-0.75,1644835907.828125,P07,D03,1,0,1
2729,-0.78,1644835907.84375,P07,D03,1,0,1
2730,-0.76,1644835907.859375,P07,D03,1,0,1
2731,-0.71,1644835907.875,P07,D03,1,0,1
2732,-0.61,1644835907.890625,P07,D03,1,0,1
2733,-0.46,1644835907.90625,P07,D03,1,0,1
2734,-0.27,1644835907.921875,P07,D03,1,0,1
2735,-0.1,1644835907.9375,P07,D03,1,0,1
2736,0.01,1644835907.953125,P07,D03,1,0,1
2737,-0.01,1644835907.96875,P07,D03,1,0,1
2738,-0.16,1644835907.984375,P07,D03,1,0,1
2739,-0.4,1644835908.0,P07,D03,1,0,1
2740,-0.6,1644835908.015625,P07,D03,1,0,1
2741,-0.64,1644835908.03125,P07,D03,1,0,1
2742,-0.43,1644835908.046875,P07,D03,1,0,1
2743,0.02,1644835908.0625,P07,D03,1,0,1
2744,0.62,1644835908.078125,P07,D03,1,0,1
2745,1.23,1644835908.09375,P07,D03,1,0,1
2746,1.68,1644835908.109375,P07,D03,1,0,1
2747,1.9,1644835908.125,P07,D03,1,0,1
2748,1.85,1644835908.140625,P07,D03,1,0,1
2749,1.57,1644835908.15625,P07,D03,1,0,1
2750,1.13,1644835908.171875,P07,D03,1,0,1
2751,0.6,1644835908.1875,P07,D03,1,0,1
2752,0.08,1644835908.203125,P07,D03,1,0,1
2753,-0.36,1644835908.21875,P07,D03,1,0,1
2754,-0.65,1644835908.234375,P07,D03,1,0,1
2755,-0.76,1644835908.25,P07,D03,1,0,1
2756,-0.67,1644835908.265625,P07,D03,1,0,1
2757,-0.43,1644835908.28125,P07,D03,1,0,1
2758,-0.09,1644835908.296875,P07,D03,1,0,1
2759,0.25,1644835908.3125,P07,D03,1,0,1
2760,0.53,1644835908.328125,P07,D03,1,0,1
2761,0.7,1644835908.34375,P07,D03,1,0,1
2762,0.73,1644835908.359375,P07,D03,1,0,1
2763,0.66,1644835908.375,P07,D03,1,0,1
2764,0.53,1644835908.390625,P07,D03,1,0,1
2765,0.42,1644835908.40625,P07,D03,1,0,1
2766,0.34,1644835908.421875,P07,D03,1,0,1
2767,0.31,1644835908.4375,P07,D03,1,0,1
2768,0.32,1644835908.453125,P07,D03,1,0,1
2769,0.38,1644835908.46875,P07,D03,1,0,1
2770,0.47,1644835908.484375,P07,D03,1,0,1
2771,0.59,1644835908.5,P07,D03,1,0,1
2772,0.71,1644835908.515625,P07,D03,1,0,1
2773,0.82,1644835908.53125,P07,D03,1,0,1
2774,0.9,1644835908.546875,P07,D03,1,0,1
2775,0.96,1644835908.5625,P07,D03,1,0,1
2776,1.02,1644835908.578125,P07,D03,1,0,1
2777,1.08,1644835908.59375,P07,D03,1,0,1
2778,1.11,1644835908.609375,P07,D03,1,0,1
2779,1.06,1644835908.625,P07,D03,1,0,1
2780,0.87,1644835908.640625,P07,D03,1,0,1
2781,0.59,1644835908.65625,P07,D03,1,0,1
2782,0.28,1644835908.671875,P07,D03,1,0,1
2783,0.06,1644835908.6875,P07,D03,1,0,1
2784,-0.01,1644835908.703125,P07,D03,1,0,1
2785,0.03,1644835908.71875,P07,D03,1,0,1
2786,0.08,1644835908.734375,P07,D03,1,0,1
2787,-0.03,1644835908.75,P07,D03,1,0,1
2788,-0.35,1644835908.765625,P07,D03,1,0,1
2789,-0.85,1644835908.78125,P07,D03,1,0,1
2790,-1.39,1644835908.796875,P07,D03,1,0,1
2791,-1.8,1644835908.8125,P07,D03,1,0,1
2792,-1.99,1644835908.828125,P07,D03,1,0,1
2793,-1.98,1644835908.84375,P07,D03,1,0,1
2794,-1.88,1644835908.859375,P07,D03,1,0,1
2795,-1.81,1644835908.875,P07,D03,1,0,1
2796,-1.8,1644835908.890625,P07,D03,1,0,1
2797,-1.8,1644835908.90625,P07,D03,1,0,1
2798,-1.67,1644835908.921875,P07,D03,1,0,1
2799,-1.34,1644835908.9375,P07,D03,1,0,1
2800,-0.78,1644835908.953125,P07,D03,1,0,1
2801,-0.1,1644835908.96875,P07,D03,1,0,1
2802,0.53,1644835908.984375,P07,D03,1,0,1
2803,0.98,1644835909.0,P07,D03,1,0,1
2804,1.18,1644835909.015625,P07,D03,1,0,1
2805,1.19,1644835909.03125,P07,D03,1,0,1
2806,1.13,1644835909.046875,P07,D03,1,0,1
2807,1.13,1644835909.0625,P07,D03,1,0,1
2808,1.23,1644835909.078125,P07,D03,1,0,1
2809,1.39,1644835909.09375,P07,D03,1,0,1
2810,1.49,1644835909.109375,P07,D03,1,0,1
2811,1.43,1644835909.125,P07,D03,1,0,1
2812,1.17,1644835909.140625,P07,D03,1,0,1
2813,0.75,1644835909.15625,P07,D03,1,0,1
2814,0.27,1644835909.171875,P07,D03,1,0,1
2815,-0.16,1644835909.1875,P07,D03,1,0,1
2816,-0.47,1644835909.203125,P07,D03,1,0,1
2817,-0.65,1644835909.21875,P07,D03,1,0,1
2818,-0.76,1644835909.234375,P07,D03,1,0,1
2819,-0.87,1644835909.25,P07,D03,1,0,1
2820,-1.0,1644835909.265625,P07,D03,1,0,1
2821,-1.13,1644835909.28125,P07,D03,1,0,1
2822,-1.23,1644835909.296875,P07,D03,1,0,1
2823,-1.27,1644835909.3125,P07,D03,1,0,1
2824,-1.25,1644835909.328125,P07,D03,1,0,1
2825,-1.16,1644835909.34375,P07,D03,1,0,1
2826,-0.98,1644835909.359375,P07,D03,1,0,1
2827,-0.66,1644835909.375,P07,D03,1,0,1
2828,-0.14,1644835909.390625,P07,D03,1,0,1
2829,0.52,1644835909.40625,P07,D03,1,0,1
2830,1.19,1644835909.421875,P07,D03,1,0,1
2831,1.69,1644835909.4375,P07,D03,1,0,1
2832,1.85,1644835909.453125,P07,D03,1,0,1
2833,1.64,1644835909.46875,P07,D03,1,0,1
2834,1.15,1644835909.484375,P07,D03,1,0,1
2835,0.54,1644835909.5,P07,D03,1,0,1
2836,-0.01,1644835909.515625,P07,D03,1,0,1
2837,-0.43,1644835909.53125,P07,D03,1,0,1
2838,-0.71,1644835909.546875,P07,D03,1,0,1
2839,-0.88,1644835909.5625,P07,D03,1,0,1
2840,-0.95,1644835909.578125,P07,D03,1,0,1
2841,-0.9,1644835909.59375,P07,D03,1,0,1
2842,-0.71,1644835909.609375,P07,D03,1,0,1
2843,-0.38,1644835909.625,P07,D03,1,0,1
2844,0.02,1644835909.640625,P07,D03,1,0,1
2845,0.4,1644835909.65625,P07,D03,1,0,1
2846,0.65,1644835909.671875,P07,D03,1,0,1
2847,0.74,1644835909.6875,P07,D03,1,0,1
2848,0.67,1644835909.703125,P07,D03,1,0,1
2849,0.52,1644835909.71875,P07,D03,1,0,1
2850,0.37,1644835909.734375,P07,D03,1,0,1
2851,0.28,1644835909.75,P07,D03,1,0,1
2852,0.28,1644835909.765625,P07,D03,1,0,1
2853,0.34,1644835909.78125,P07,D03,1,0,1
2854,0.37,1644835909.796875,P07,D03,1,0,1
2855,0.32,1644835909.8125,P07,D03,1,0,1
2856,0.13,1644835909.828125,P07,D03,1,0,1
2857,-0.16,1644835909.84375,P07,D03,1,0,1
2858,-0.47,1644835909.859375,P07,D03,1,0,1
2859,-0.69,1644835909.875,P07,D03,1,0,1
2860,-0.75,1644835909.890625,P07,D03,1,0,1
2861,-0.68,1644835909.90625,P07,D03,1,0,1
2862,-0.52,1644835909.921875,P07,D03,1,0,1
2863,-0.38,1644835909.9375,P07,D03,1,0,1
2864,-0.28,1644835909.953125,P07,D03,1,0,1
2865,-0.22,1644835909.96875,P07,D03,1,0,1
2866,-0.11,1644835909.984375,P07,D03,1,0,1
2867,0.09,1644835910.0,P07,D03,1,0,1
2868,0.38,1644835910.015625,P07,D03,1,0,1
2869,0.66,1644835910.03125,P07,D03,1,0,1
2870,0.82,1644835910.046875,P07,D03,1,0,1
2871,0.73,1644835910.0625,P07,D03,1,0,1
2872,0.4,1644835910.078125,P07,D03,1,0,1
2873,-0.09,1644835910.09375,P07,D03,1,0,1
2874,-0.57,1644835910.109375,P07,D03,1,0,1
2875,-0.9,1644835910.125,P07,D03,1,0,1
2876,-1.0,1644835910.140625,P07,D03,1,0,1
2877,-0.91,1644835910.15625,P07,D03,1,0,1
2878,-0.72,1644835910.171875,P07,D03,1,0,1
2879,-0.56,1644835910.1875,P07,D03,1,0,1
2880,-0.5,1644835910.203125,P07,D03,1,0,1
2881,-0.58,1644835910.21875,P07,D03,1,0,1
2882,-0.79,1644835910.234375,P07,D03,1,0,1
2883,-1.08,1644835910.25,P07,D03,1,0,1
2884,-1.39,1644835910.265625,P07,D03,1,0,1
2885,-1.59,1644835910.28125,P07,D03,1,0,1
2886,-1.61,1644835910.296875,P07,D03,1,0,1
2887,-1.36,1644835910.3125,P07,D03,1,0,1
2888,-0.88,1644835910.328125,P07,D03,1,0,1
2889,-0.24,1644835910.34375,P07,D03,1,0,1
2890,0.39,1644835910.359375,P07,D03,1,0,1
2891,0.88,1644835910.375,P07,D03,1,0,1
2892,1.13,1644835910.390625,P07,D03,1,0,1
2893,1.15,1644835910.40625,P07,D03,1,0,1
2894,0.97,1644835910.421875,P07,D03,1,0,1
2895,0.71,1644835910.4375,P07,D03,1,0,1
2896,0.45,1644835910.453125,P07,D03,1,0,1
2897,0.27,1644835910.46875,P07,D03,1,0,1
2898,0.19,1644835910.484375,P07,D03,1,0,1
2899,0.22,1644835910.5,P07,D03,1,0,1
2900,0.28,1644835910.515625,P07,D03,1,0,1
2901,0.31,1644835910.53125,P07,D03,1,0,1
2902,0.25,1644835910.546875,P07,D03,1,0,1
2903,0.11,1644835910.5625,P07,D03,1,0,1
2904,-0.05,1644835910.578125,P07,D03,1,0,1
2905,-0.15,1644835910.59375,P07,D03,1,0,1
2906,-0.16,1644835910.609375,P07,D03,1,0,1
2907,-0.12,1644835910.625,P07,D03,1,0,1
2908,-0.11,1644835910.640625,P07,D03,1,0,1
2909,-0.22,1644835910.65625,P07,D03,1,0,1
2910,-0.43,1644835910.671875,P07,D03,1,0,1
2911,-0.69,1644835910.6875,P07,D03,1,0,1
2912,-0.86,1644835910.703125,P07,D03,1,0,1
2913,-0.83,1644835910.71875,P07,D03,1,0,1
2914,-0.6,1644835910.734375,P07,D03,1,0,1
2915,-0.25,1644835910.75,P07,D03,1,0,1
2916,0.04,1644835910.765625,P07,D03,1,0,1
2917,0.13,1644835910.78125,P07,D03,1,0,1
2918,-0.02,1644835910.796875,P07,D03,1,0,1
2919,-0.33,1644835910.8125,P07,D03,1,0,1
2920,-0.66,1644835910.828125,P07,D03,1,0,1
2921,-0.8,1644835910.84375,P07,D03,1,0,1
2922,-0.64,1644835910.859375,P07,D03,1,0,1
