,data,timestamp,participant,document,val,arou,eng
0,0.51,1644836048.5,P07,D04,0,0,1
1,0.45,1644836048.515625,P07,D04,0,0,1
2,0.34,1644836048.53125,P07,D04,0,0,1
3,0.24,1644836048.546875,P07,D04,0,0,1
4,0.19,1644836048.5625,P07,D04,0,0,1
5,0.2,1644836048.578125,P07,D04,0,0,1
6,0.24,1644836048.59375,P07,D04,0,0,1
7,0.25,1644836048.609375,P07,D04,0,0,1
8,0.15,1644836048.625,P07,D04,0,0,1
9,-0.07,1644836048.640625,P07,D04,0,0,1
10,-0.37,1644836048.65625,P07,D04,0,0,1
11,-0.7,1644836048.671875,P07,D04,0,0,1
12,-0.97,1644836048.6875,P07,D04,0,0,1
13,-1.13,1644836048.703125,P07,D04,0,0,1
14,-1.18,1644836048.71875,P07,D04,0,0,1
15,-1.14,1644836048.734375,P07,D04,0,0,1
16,-1.03,1644836048.75,P07,D04,0,0,1
17,-0.86,1644836048.765625,P07,D04,0,0,1
18,-0.67,1644836048.78125,P07,D04,0,0,1
19,-0.46,1644836048.796875,P07,D04,0,0,1
20,-0.26,1644836048.8125,P07,D04,0,0,1
21,-0.08,1644836048.828125,P07,D04,0,0,1
22,0.07,1644836048.84375,P07,D04,0,0,1
23,0.23,1644836048.859375,P07,D04,0,0,1
24,0.39,1644836048.875,P07,D04,0,0,1
25,0.55,1644836048.890625,P07,D04,0,0,1
26,0.64,1644836048.90625,P07,D04,0,0,1
27,0.59,1644836048.921875,P07,D04,0,0,1
28,0.39,1644836048.9375,P07,D04,0,0,1
29,0.04,1644836048.953125,P07,D04,0,0,1
30,-0.34,1644836048.96875,P07,D04,0,0,1
31,-0.67,1644836048.984375,P07,D04,0,0,1
32,-0.88,1644836049.0,P07,D04,0,0,1
33,-0.97,1644836049.015625,P07,D04,0,0,1
34,-1.0,1644836049.03125,P07,D04,0,0,1
35,-1.03,1644836049.046875,P07,D04,0,0,1
36,-1.09,1644836049.0625,P07,D04,0,0,1
37,-1.15,1644836049.078125,P07,D04,0,0,1
38,-1.18,1644836049.09375,P07,D04,0,0,1
39,-1.11,1644836049.109375,P07,D04,0,0,1
40,-0.96,1644836049.125,P07,D04,0,0,1
41,-0.75,1644836049.140625,P07,D04,0,0,1
42,-0.56,1644836049.15625,P07,D04,0,0,1
43,-0.42,1644836049.171875,P07,D04,0,0,1
44,-0.34,1644836049.1875,P07,D04,0,0,1
45,-0.3,1644836049.203125,P07,D04,0,0,1
46,-0.27,1644836049.21875,P07,D04,0,0,1
47,-0.22,1644836049.234375,P07,D04,0,0,1
48,-0.14,1644836049.25,P07,D04,0,0,1
49,-0.02,1644836049.265625,P07,D04,0,0,1
50,0.1,1644836049.28125,P07,D04,0,0,1
51,0.19,1644836049.296875,P07,D04,0,0,1
52,0.17,1644836049.3125,P07,D04,0,0,1
53,0.01,1644836049.328125,P07,D04,0,0,1
54,-0.32,1644836049.34375,P07,D04,0,0,1
55,-0.77,1644836049.359375,P07,D04,0,0,1
56,-1.23,1644836049.375,P07,D04,0,0,1
57,-1.57,1644836049.390625,P07,D04,0,0,1
58,-1.72,1644836049.40625,P07,D04,0,0,1
59,-1.65,1644836049.421875,P07,D04,0,0,1
60,-1.42,1644836049.4375,P07,D04,0,0,1
61,-1.12,1644836049.453125,P07,D04,0,0,1
62,-0.84,1644836049.46875,P07,D04,0,0,1
63,-0.62,1644836049.484375,P07,D04,0,0,1
64,-0.46,1644836049.5,P07,D04,0,0,1
65,-0.35,1644836049.515625,P07,D04,0,0,1
66,-0.23,1644836049.53125,P07,D04,0,0,1
67,-0.08,1644836049.546875,P07,D04,0,0,1
68,0.1,1644836049.5625,P07,D04,0,0,1
69,0.3,1644836049.578125,P07,D04,0,0,1
70,0.51,1644836049.59375,P07,D04,0,0,1
71,0.71,1644836049.609375,P07,D04,0,0,1
72,0.89,1644836049.625,P07,D04,0,0,1
73,1.03,1644836049.640625,P07,D04,0,0,1
74,1.09,1644836049.65625,P07,D04,0,0,1
75,1.07,1644836049.671875,P07,D04,0,0,1
76,0.97,1644836049.6875,P07,D04,0,0,1
77,0.83,1644836049.703125,P07,D04,0,0,1
78,0.69,1644836049.71875,P07,D04,0,0,1
79,0.61,1644836049.734375,P07,D04,0,0,1
80,0.6,1644836049.75,P07,D04,0,0,1
81,0.62,1644836049.765625,P07,D04,0,0,1
82,0.63,1644836049.78125,P07,D04,0,0,1
83,0.55,1644836049.796875,P07,D04,0,0,1
84,0.38,1644836049.8125,P07,D04,0,0,1
85,0.11,1644836049.828125,P07,D04,0,0,1
86,-0.18,1644836049.84375,P07,D04,0,0,1
87,-0.44,1644836049.859375,P07,D04,0,0,1
88,-0.6,1644836049.875,P07,D04,0,0,1
89,-0.6,1644836049.890625,P07,D04,0,0,1
90,-0.42,1644836049.90625,P07,D04,0,0,1
91,-0.08,1644836049.921875,P07,D04,0,0,1
92,0.35,1644836049.9375,P07,D04,0,0,1
93,0.73,1644836049.953125,P07,D04,0,0,1
94,0.93,1644836049.96875,P07,D04,0,0,1
95,0.87,1644836049.984375,P07,D04,0,0,1
96,0.59,1644836050.0,P07,D04,0,0,1
97,0.2,1644836050.015625,P07,D04,0,0,1
98,-0.11,1644836050.03125,P07,D04,0,0,1
99,-0.23,1644836050.046875,P07,D04,0,0,1
100,-0.16,1644836050.0625,P07,D04,0,0,1
101,0.04,1644836050.078125,P07,D04,0,0,1
102,0.25,1644836050.09375,P07,D04,0,0,1
103,0.39,1644836050.109375,P07,D04,0,0,1
104,0.49,1644836050.125,P07,D04,0,0,1
105,0.59,1644836050.140625,P07,D04,0,0,1
106,0.72,1644836050.15625,P07,D04,0,0,1
107,0.91,1644836050.171875,P07,D04,0,0,1
108,1.12,1644836050.1875,P07,D04,0,0,1
109,1.28,1644836050.203125,P07,D04,0,0,1
110,1.35,1644836050.21875,P07,D04,0,0,1
111,1.33,1644836050.234375,P07,D04,0,0,1
112,1.21,1644836050.25,P07,D04,0,0,1
113,1.04,1644836050.265625,P07,D04,0,0,1
114,0.88,1644836050.28125,P07,D04,0,0,1
115,0.78,1644836050.296875,P07,D04,0,0,1
116,0.8,1644836050.3125,P07,D04,0,0,1
117,0.95,1644836050.328125,P07,D04,0,0,1
118,1.2,1644836050.34375,P07,D04,0,0,1
119,1.48,1644836050.359375,P07,D04,0,0,1
120,1.72,1644836050.375,P07,D04,0,0,1
121,1.88,1644836050.390625,P07,D04,0,0,1
122,1.95,1644836050.40625,P07,D04,0,0,1
123,1.97,1644836050.421875,P07,D04,0,0,1
124,1.99,1644836050.4375,P07,D04,0,0,1
125,2.02,1644836050.453125,P07,D04,0,0,1
126,2.05,1644836050.46875,P07,D04,0,0,1
127,2.0,1644836050.484375,P07,D04,0,0,1
128,1.82,1644836050.5,P07,D04,0,0,1
129,1.45,1644836050.515625,P07,D04,0,0,1
130,0.93,1644836050.53125,P07,D04,0,0,1
131,0.33,1644836050.546875,P07,D04,0,0,1
132,-0.22,1644836050.5625,P07,D04,0,0,1
133,-0.61,1644836050.578125,P07,D04,0,0,1
134,-0.75,1644836050.59375,P07,D04,0,0,1
135,-0.66,1644836050.609375,P07,D04,0,0,1
136,-0.42,1644836050.625,P07,D04,0,0,1
137,-0.13,1644836050.640625,P07,D04,0,0,1
138,0.1,1644836050.65625,P07,D04,0,0,1
139,0.2,1644836050.671875,P07,D04,0,0,1
140,0.16,1644836050.6875,P07,D04,0,0,1
141,0.01,1644836050.703125,P07,D04,0,0,1
142,-0.22,1644836050.71875,P07,D04,0,0,1
143,-0.48,1644836050.734375,P07,D04,0,0,1
144,-0.73,1644836050.75,P07,D04,0,0,1
145,-0.89,1644836050.765625,P07,D04,0,0,1
146,-0.93,1644836050.78125,P07,D04,0,0,1
147,-0.8,1644836050.796875,P07,D04,0,0,1
148,-0.54,1644836050.8125,P07,D04,0,0,1
149,-0.2,1644836050.828125,P07,D04,0,0,1
150,0.14,1644836050.84375,P07,D04,0,0,1
151,0.39,1644836050.859375,P07,D04,0,0,1
152,0.5,1644836050.875,P07,D04,0,0,1
153,0.45,1644836050.890625,P07,D04,0,0,1
154,0.25,1644836050.90625,P07,D04,0,0,1
155,-0.13,1644836050.921875,P07,D04,0,0,1
156,-0.64,1644836050.9375,P07,D04,0,0,1
157,-1.21,1644836050.953125,P07,D04,0,0,1
158,-1.74,1644836050.96875,P07,D04,0,0,1
159,-2.09,1644836050.984375,P07,D04,0,0,1
160,-2.19,1644836051.0,P07,D04,0,0,1
161,-2.04,1644836051.015625,P07,D04,0,0,1
162,-1.78,1644836051.03125,P07,D04,0,0,1
163,-1.53,1644836051.046875,P07,D04,0,0,1
164,-1.4,1644836051.0625,P07,D04,0,0,1
165,-1.41,1644836051.078125,P07,D04,0,0,1
166,-1.48,1644836051.09375,P07,D04,0,0,1
167,-1.51,1644836051.109375,P07,D04,0,0,1
168,-1.44,1644836051.125,P07,D04,0,0,1
169,-1.25,1644836051.140625,P07,D04,0,0,1
170,-0.97,1644836051.15625,P07,D04,0,0,1
171,-0.64,1644836051.171875,P07,D04,0,0,1
172,-0.29,1644836051.1875,P07,D04,0,0,1
173,0.02,1644836051.203125,P07,D04,0,0,1
174,0.25,1644836051.21875,P07,D04,0,0,1
175,0.35,1644836051.234375,P07,D04,0,0,1
176,0.32,1644836051.25,P07,D04,0,0,1
177,0.2,1644836051.265625,P07,D04,0,0,1
178,0.1,1644836051.28125,P07,D04,0,0,1
179,0.11,1644836051.296875,P07,D04,0,0,1
180,0.26,1644836051.3125,P07,D04,0,0,1
181,0.53,1644836051.328125,P07,D04,0,0,1
182,0.79,1644836051.34375,P07,D04,0,0,1
183,0.94,1644836051.359375,P07,D04,0,0,1
184,0.9,1644836051.375,P07,D04,0,0,1
185,0.7,1644836051.390625,P07,D04,0,0,1
186,0.42,1644836051.40625,P07,D04,0,0,1
187,0.17,1644836051.421875,P07,D04,0,0,1
188,0.01,1644836051.4375,P07,D04,0,0,1
189,-0.05,1644836051.453125,P07,D04,0,0,1
190,-0.03,1644836051.46875,P07,D04,0,0,1
191,0.04,1644836051.484375,P07,D04,0,0,1
192,0.15,1644836051.5,P07,D04,0,0,1
193,0.29,1644836051.515625,P07,D04,0,0,1
194,0.46,1644836051.53125,P07,D04,0,0,1
195,0.62,1644836051.546875,P07,D04,0,0,1
196,0.7,1644836051.5625,P07,D04,0,0,1
197,0.68,1644836051.578125,P07,D04,0,0,1
198,0.56,1644836051.59375,P07,D04,0,0,1
199,0.38,1644836051.609375,P07,D04,0,0,1
200,0.21,1644836051.625,P07,D04,0,0,1
201,0.1,1644836051.640625,P07,D04,0,0,1
202,0.06,1644836051.65625,P07,D04,0,0,1
203,0.06,1644836051.671875,P07,D04,0,0,1
204,0.08,1644836051.6875,P07,D04,0,0,1
205,0.13,1644836051.703125,P07,D04,0,0,1
206,0.22,1644836051.71875,P07,D04,0,0,1
207,0.36,1644836051.734375,P07,D04,0,0,1
208,0.53,1644836051.75,P07,D04,0,0,1
209,0.65,1644836051.765625,P07,D04,0,0,1
210,0.66,1644836051.78125,P07,D04,0,0,1
211,0.52,1644836051.796875,P07,D04,0,0,1
212,0.28,1644836051.8125,P07,D04,0,0,1
213,0.06,1644836051.828125,P07,D04,0,0,1
214,0.02,1644836051.84375,P07,D04,0,0,1
215,0.24,1644836051.859375,P07,D04,0,0,1
216,0.7,1644836051.875,P07,D04,0,0,1
217,1.26,1644836051.890625,P07,D04,0,0,1
218,1.71,1644836051.90625,P07,D04,0,0,1
219,1.83,1644836051.921875,P07,D04,0,0,1
220,1.57,1644836051.9375,P07,D04,0,0,1
221,1.0,1644836051.953125,P07,D04,0,0,1
222,0.32,1644836051.96875,P07,D04,0,0,1
223,-0.25,1644836051.984375,P07,D04,0,0,1
224,-0.57,1644836052.0,P07,D04,0,0,1
225,-0.66,1644836052.015625,P07,D04,0,0,1
226,-0.63,1644836052.03125,P07,D04,0,0,1
227,-0.59,1644836052.046875,P07,D04,0,0,1
228,-0.61,1644836052.0625,P07,D04,0,0,1
229,-0.67,1644836052.078125,P07,D04,0,0,1
230,-0.74,1644836052.09375,P07,D04,0,0,1
231,-0.8,1644836052.109375,P07,D04,0,0,1
232,-0.87,1644836052.125,P07,D04,0,0,1
233,-1.01,1644836052.140625,P07,D04,0,0,1
234,-1.22,1644836052.15625,P07,D04,0,0,1
235,-1.44,1644836052.171875,P07,D04,0,0,1
236,-1.59,1644836052.1875,P07,D04,0,0,1
237,-1.59,1644836052.203125,P07,D04,0,0,1
238,-1.43,1644836052.21875,P07,D04,0,0,1
239,-1.22,1644836052.234375,P07,D04,0,0,1
240,-1.03,1644836052.25,P07,D04,0,0,1
241,-0.95,1644836052.265625,P07,D04,0,0,1
242,-0.93,1644836052.28125,P07,D04,0,0,1
243,-0.89,1644836052.296875,P07,D04,0,0,1
244,-0.75,1644836052.3125,P07,D04,0,0,1
245,-0.49,1644836052.328125,P07,D04,0,0,1
246,-0.14,1644836052.34375,P07,D04,0,0,1
247,0.19,1644836052.359375,P07,D04,0,0,1
248,0.4,1644836052.375,P07,D04,0,0,1
249,0.44,1644836052.390625,P07,D04,0,0,1
250,0.33,1644836052.40625,P07,D04,0,0,1
251,0.13,1644836052.421875,P07,D04,0,0,1
252,-0.02,1644836052.4375,P07,D04,0,0,1
253,-0.06,1644836052.453125,P07,D04,0,0,1
254,0.06,1644836052.46875,P07,D04,0,0,1
255,0.26,1644836052.484375,P07,D04,0,0,1
256,0.47,1644836052.5,P07,D04,0,0,1
257,0.58,1644836052.515625,P07,D04,0,0,1
258,0.57,1644836052.53125,P07,D04,0,0,1
259,0.47,1644836052.546875,P07,D04,0,0,1
260,0.37,1644836052.5625,P07,D04,0,0,1
261,0.35,1644836052.578125,P07,D04,0,0,1
262,0.43,1644836052.59375,P07,D04,0,0,1
263,0.56,1644836052.609375,P07,D04,0,0,1
264,0.66,1644836052.625,P07,D04,0,0,1
265,0.64,1644836052.640625,P07,D04,0,0,1
266,0.51,1644836052.65625,P07,D04,0,0,1
267,0.29,1644836052.671875,P07,D04,0,0,1
268,0.08,1644836052.6875,P07,D04,0,0,1
269,-0.09,1644836052.703125,P07,D04,0,0,1
270,-0.21,1644836052.71875,P07,D04,0,0,1
271,-0.3,1644836052.734375,P07,D04,0,0,1
272,-0.39,1644836052.75,P07,D04,0,0,1
273,-0.48,1644836052.765625,P07,D04,0,0,1
274,-0.54,1644836052.78125,P07,D04,0,0,1
275,-0.52,1644836052.796875,P07,D04,0,0,1
276,-0.4,1644836052.8125,P07,D04,0,0,1
277,-0.17,1644836052.828125,P07,D04,0,0,1
278,0.12,1644836052.84375,P07,D04,0,0,1
279,0.41,1644836052.859375,P07,D04,0,0,1
280,0.66,1644836052.875,P07,D04,0,0,1
281,0.83,1644836052.890625,P07,D04,0,0,1
282,0.94,1644836052.90625,P07,D04,0,0,1
283,1.01,1644836052.921875,P07,D04,0,0,1
284,1.07,1644836052.9375,P07,D04,0,0,1
285,1.13,1644836052.953125,P07,D04,0,0,1
286,1.18,1644836052.96875,P07,D04,0,0,1
287,1.18,1644836052.984375,P07,D04,0,0,1
288,1.07,1644836053.0,P07,D04,0,0,1
289,0.85,1644836053.015625,P07,D04,0,0,1
290,0.54,1644836053.03125,P07,D04,0,0,1
291,0.22,1644836053.046875,P07,D04,0,0,1
292,-0.04,1644836053.0625,P07,D04,0,0,1
293,-0.2,1644836053.078125,P07,D04,0,0,1
294,-0.28,1644836053.09375,P07,D04,0,0,1
295,-0.34,1644836053.109375,P07,D04,0,0,1
296,-0.44,1644836053.125,P07,D04,0,0,1
297,-0.61,1644836053.140625,P07,D04,0,0,1
298,-0.84,1644836053.15625,P07,D04,0,0,1
299,-1.05,1644836053.171875,P07,D04,0,0,1
300,-1.16,1644836053.1875,P07,D04,0,0,1
301,-1.14,1644836053.203125,P07,D04,0,0,1
302,-0.98,1644836053.21875,P07,D04,0,0,1
303,-0.77,1644836053.234375,P07,D04,0,0,1
304,-0.57,1644836053.25,P07,D04,0,0,1
305,-0.48,1644836053.265625,P07,D04,0,0,1
306,-0.51,1644836053.28125,P07,D04,0,0,1
307,-0.6,1644836053.296875,P07,D04,0,0,1
308,-0.69,1644836053.3125,P07,D04,0,0,1
309,-0.69,1644836053.328125,P07,D04,0,0,1
310,-0.61,1644836053.34375,P07,D04,0,0,1
311,-0.47,1644836053.359375,P07,D04,0,0,1
312,-0.33,1644836053.375,P07,D04,0,0,1
313,-0.26,1644836053.390625,P07,D04,0,0,1
314,-0.24,1644836053.40625,P07,D04,0,0,1
315,-0.24,1644836053.421875,P07,D04,0,0,1
316,-0.23,1644836053.4375,P07,D04,0,0,1
317,-0.21,1644836053.453125,P07,D04,0,0,1
318,-0.22,1644836053.46875,P07,D04,0,0,1
319,-0.26,1644836053.484375,P07,D04,0,0,1
320,-0.34,1644836053.5,P07,D04,0,0,1
321,-0.42,1644836053.515625,P07,D04,0,0,1
322,-0.45,1644836053.53125,P07,D04,0,0,1
323,-0.4,1644836053.546875,P07,D04,0,0,1
324,-0.27,1644836053.5625,P07,D04,0,0,1
325,-0.1,1644836053.578125,P07,D04,0,0,1
326,0.06,1644836053.59375,P07,D04,0,0,1
327,0.17,1644836053.609375,P07,D04,0,0,1
328,0.19,1644836053.625,P07,D04,0,0,1
329,0.13,1644836053.640625,P07,D04,0,0,1
330,0.03,1644836053.65625,P07,D04,0,0,1
331,-0.05,1644836053.671875,P07,D04,0,0,1
332,-0.03,1644836053.6875,P07,D04,0,0,1
333,0.13,1644836053.703125,P07,D04,0,0,1
334,0.42,1644836053.71875,P07,D04,0,0,1
335,0.72,1644836053.734375,P07,D04,0,0,1
336,0.93,1644836053.75,P07,D04,0,0,1
337,0.94,1644836053.765625,P07,D04,0,0,1
338,0.73,1644836053.78125,P07,D04,0,0,1
339,0.38,1644836053.796875,P07,D04,0,0,1
340,-0.0,1644836053.8125,P07,D04,0,0,1
341,-0.34,1644836053.828125,P07,D04,0,0,1
342,-0.57,1644836053.84375,P07,D04,0,0,1
343,-0.69,1644836053.859375,P07,D04,0,0,1
344,-0.71,1644836053.875,P07,D04,0,0,1
345,-0.63,1644836053.890625,P07,D04,0,0,1
346,-0.42,1644836053.90625,P07,D04,0,0,1
347,-0.11,1644836053.921875,P07,D04,0,0,1
348,0.25,1644836053.9375,P07,D04,0,0,1
349,0.56,1644836053.953125,P07,D04,0,0,1
350,0.69,1644836053.96875,P07,D04,0,0,1
351,0.63,1644836053.984375,P07,D04,0,0,1
352,0.42,1644836054.0,P07,D04,0,0,1
353,0.19,1644836054.015625,P07,D04,0,0,1
354,0.05,1644836054.03125,P07,D04,0,0,1
355,0.08,1644836054.046875,P07,D04,0,0,1
356,0.23,1644836054.0625,P07,D04,0,0,1
357,0.41,1644836054.078125,P07,D04,0,0,1
358,0.54,1644836054.09375,P07,D04,0,0,1
359,0.57,1644836054.109375,P07,D04,0,0,1
360,0.54,1644836054.125,P07,D04,0,0,1
361,0.52,1644836054.140625,P07,D04,0,0,1
362,0.54,1644836054.15625,P07,D04,0,0,1
363,0.63,1644836054.171875,P07,D04,0,0,1
364,0.73,1644836054.1875,P07,D04,0,0,1
365,0.78,1644836054.203125,P07,D04,0,0,1
366,0.74,1644836054.21875,P07,D04,0,0,1
367,0.63,1644836054.234375,P07,D04,0,0,1
368,0.47,1644836054.25,P07,D04,0,0,1
369,0.33,1644836054.265625,P07,D04,0,0,1
370,0.21,1644836054.28125,P07,D04,0,0,1
371,0.16,1644836054.296875,P07,D04,0,0,1
372,0.15,1644836054.3125,P07,D04,0,0,1
373,0.19,1644836054.328125,P07,D04,0,0,1
374,0.27,1644836054.34375,P07,D04,0,0,1
375,0.36,1644836054.359375,P07,D04,0,0,1
376,0.47,1644836054.375,P07,D04,0,0,1
377,0.56,1644836054.390625,P07,D04,0,0,1
378,0.61,1644836054.40625,P07,D04,0,0,1
379,0.59,1644836054.421875,P07,D04,0,0,1
380,0.47,1644836054.4375,P07,D04,0,0,1
381,0.24,1644836054.453125,P07,D04,0,0,1
382,-0.04,1644836054.46875,P07,D04,0,0,1
383,-0.32,1644836054.484375,P07,D04,0,0,1
384,-0.53,1644836054.5,P07,D04,0,0,1
385,-0.64,1644836054.515625,P07,D04,0,0,1
386,-0.66,1644836054.53125,P07,D04,0,0,1
387,-0.67,1644836054.546875,P07,D04,0,0,1
388,-0.73,1644836054.5625,P07,D04,0,0,1
389,-0.86,1644836054.578125,P07,D04,0,0,1
390,-1.03,1644836054.59375,P07,D04,0,0,1
391,-1.16,1644836054.609375,P07,D04,0,0,1
392,-1.16,1644836054.625,P07,D04,0,0,1
393,-1.0,1644836054.640625,P07,D04,0,0,1
394,-0.68,1644836054.65625,P07,D04,0,0,1
395,-0.28,1644836054.671875,P07,D04,0,0,1
396,0.1,1644836054.6875,P07,D04,0,0,1
397,0.38,1644836054.703125,P07,D04,0,0,1
398,0.57,1644836054.71875,P07,D04,0,0,1
399,0.65,1644836054.734375,P07,D04,0,0,1
400,0.65,1644836054.75,P07,D04,0,0,1
401,0.58,1644836054.765625,P07,D04,0,0,1
402,0.43,1644836054.78125,P07,D04,0,0,1
403,0.2,1644836054.796875,P07,D04,0,0,1
404,-0.07,1644836054.8125,P07,D04,0,0,1
405,-0.29,1644836054.828125,P07,D04,0,0,1
406,-0.4,1644836054.84375,P07,D04,0,0,1
407,-0.32,1644836054.859375,P07,D04,0,0,1
408,-0.06,1644836054.875,P07,D04,0,0,1
409,0.3,1644836054.890625,P07,D04,0,0,1
410,0.66,1644836054.90625,P07,D04,0,0,1
411,0.94,1644836054.921875,P07,D04,0,0,1
412,1.06,1644836054.9375,P07,D04,0,0,1
413,1.02,1644836054.953125,P07,D04,0,0,1
414,0.84,1644836054.96875,P07,D04,0,0,1
415,0.55,1644836054.984375,P07,D04,0,0,1
416,0.21,1644836055.0,P07,D04,0,0,1
417,-0.13,1644836055.015625,P07,D04,0,0,1
418,-0.4,1644836055.03125,P07,D04,0,0,1
419,-0.56,1644836055.046875,P07,D04,0,0,1
420,-0.6,1644836055.0625,P07,D04,0,0,1
421,-0.54,1644836055.078125,P07,D04,0,0,1
422,-0.44,1644836055.09375,P07,D04,0,0,1
423,-0.36,1644836055.109375,P07,D04,0,0,1
424,-0.34,1644836055.125,P07,D04,0,0,1
425,-0.41,1644836055.140625,P07,D04,0,0,1
426,-0.53,1644836055.15625,P07,D04,0,0,1
427,-0.65,1644836055.171875,P07,D04,0,0,1
428,-0.7,1644836055.1875,P07,D04,0,0,1
429,-0.66,1644836055.203125,P07,D04,0,0,1
430,-0.5,1644836055.21875,P07,D04,0,0,1
431,-0.3,1644836055.234375,P07,D04,0,0,1
432,-0.12,1644836055.25,P07,D04,0,0,1
433,-0.03,1644836055.265625,P07,D04,0,0,1
434,-0.02,1644836055.28125,P07,D04,0,0,1
435,-0.05,1644836055.296875,P07,D04,0,0,1
436,-0.03,1644836055.3125,P07,D04,0,0,1
437,0.09,1644836055.328125,P07,D04,0,0,1
438,0.26,1644836055.34375,P07,D04,0,0,1
439,0.42,1644836055.359375,P07,D04,0,0,1
440,0.48,1644836055.375,P07,D04,0,0,1
441,0.42,1644836055.390625,P07,D04,0,0,1
442,0.28,1644836055.40625,P07,D04,0,0,1
443,0.12,1644836055.421875,P07,D04,0,0,1
444,-0.01,1644836055.4375,P07,D04,0,0,1
445,-0.1,1644836055.453125,P07,D04,0,0,1
446,-0.17,1644836055.46875,P07,D04,0,0,1
447,-0.27,1644836055.484375,P07,D04,0,0,1
448,-0.41,1644836055.5,P07,D04,0,0,1
449,-0.56,1644836055.515625,P07,D04,0,0,1
450,-0.69,1644836055.53125,P07,D04,0,0,1
451,-0.74,1644836055.546875,P07,D04,0,0,1
452,-0.68,1644836055.5625,P07,D04,0,0,1
453,-0.48,1644836055.578125,P07,D04,0,0,1
454,-0.18,1644836055.59375,P07,D04,0,0,1
455,0.18,1644836055.609375,P07,D04,0,0,1
456,0.5,1644836055.625,P07,D04,0,0,1
457,0.71,1644836055.640625,P07,D04,0,0,1
458,0.78,1644836055.65625,P07,D04,0,0,1
459,0.73,1644836055.671875,P07,D04,0,0,1
460,0.63,1644836055.6875,P07,D04,0,0,1
461,0.58,1644836055.703125,P07,D04,0,0,1
462,0.59,1644836055.71875,P07,D04,0,0,1
463,0.64,1644836055.734375,P07,D04,0,0,1
464,0.68,1644836055.75,P07,D04,0,0,1
465,0.67,1644836055.765625,P07,D04,0,0,1
466,0.65,1644836055.78125,P07,D04,0,0,1
467,0.67,1644836055.796875,P07,D04,0,0,1
468,0.79,1644836055.8125,P07,D04,0,0,1
469,1.01,1644836055.828125,P07,D04,0,0,1
470,1.26,1644836055.84375,P07,D04,0,0,1
471,1.42,1644836055.859375,P07,D04,0,0,1
472,1.4,1644836055.875,P07,D04,0,0,1
473,1.12,1644836055.890625,P07,D04,0,0,1
474,0.66,1644836055.90625,P07,D04,0,0,1
475,0.16,1644836055.921875,P07,D04,0,0,1
476,-0.22,1644836055.9375,P07,D04,0,0,1
477,-0.39,1644836055.953125,P07,D04,0,0,1
478,-0.36,1644836055.96875,P07,D04,0,0,1
479,-0.27,1644836055.984375,P07,D04,0,0,1
480,-0.29,1644836056.0,P07,D04,0,0,1
481,-0.5,1644836056.015625,P07,D04,0,0,1
482,-0.87,1644836056.03125,P07,D04,0,0,1
483,-1.25,1644836056.046875,P07,D04,0,0,1
484,-1.45,1644836056.0625,P07,D04,0,0,1
485,-1.41,1644836056.078125,P07,D04,0,0,1
486,-1.16,1644836056.09375,P07,D04,0,0,1
487,-0.86,1644836056.109375,P07,D04,0,0,1
488,-0.69,1644836056.125,P07,D04,0,0,1
489,-0.69,1644836056.140625,P07,D04,0,0,1
490,-0.83,1644836056.15625,P07,D04,0,0,1
491,-0.99,1644836056.171875,P07,D04,0,0,1
492,-1.06,1644836056.1875,P07,D04,0,0,1
493,-1.01,1644836056.203125,P07,D04,0,0,1
494,-0.89,1644836056.21875,P07,D04,0,0,1
495,-0.76,1644836056.234375,P07,D04,0,0,1
496,-0.61,1644836056.25,P07,D04,0,0,1
497,-0.41,1644836056.265625,P07,D04,0,0,1
498,-0.11,1644836056.28125,P07,D04,0,0,1
499,0.29,1644836056.296875,P07,D04,0,0,1
500,0.72,1644836056.3125,P07,D04,0,0,1
501,1.07,1644836056.328125,P07,D04,0,0,1
502,1.2,1644836056.34375,P07,D04,0,0,1
503,1.05,1644836056.359375,P07,D04,0,0,1
504,0.62,1644836056.375,P07,D04,0,0,1
505,0.04,1644836056.390625,P07,D04,0,0,1
506,-0.53,1644836056.40625,P07,D04,0,0,1
507,-0.91,1644836056.421875,P07,D04,0,0,1
508,-0.99,1644836056.4375,P07,D04,0,0,1
509,-0.78,1644836056.453125,P07,D04,0,0,1
510,-0.33,1644836056.46875,P07,D04,0,0,1
511,0.2,1644836056.484375,P07,D04,0,0,1
512,0.66,1644836056.5,P07,D04,0,0,1
513,0.93,1644836056.515625,P07,D04,0,0,1
514,0.95,1644836056.53125,P07,D04,0,0,1
515,0.78,1644836056.546875,P07,D04,0,0,1
516,0.54,1644836056.5625,P07,D04,0,0,1
517,0.36,1644836056.578125,P07,D04,0,0,1
518,0.33,1644836056.59375,P07,D04,0,0,1
519,0.42,1644836056.609375,P07,D04,0,0,1
520,0.58,1644836056.625,P07,D04,0,0,1
521,0.7,1644836056.640625,P07,D04,0,0,1
522,0.69,1644836056.65625,P07,D04,0,0,1
523,0.56,1644836056.671875,P07,D04,0,0,1
524,0.35,1644836056.6875,P07,D04,0,0,1
525,0.16,1644836056.703125,P07,D04,0,0,1
526,0.03,1644836056.71875,P07,D04,0,0,1
527,-0.04,1644836056.734375,P07,D04,0,0,1
528,-0.05,1644836056.75,P07,D04,0,0,1
529,-0.03,1644836056.765625,P07,D04,0,0,1
530,0.01,1644836056.78125,P07,D04,0,0,1
531,0.13,1644836056.796875,P07,D04,0,0,1
532,0.32,1644836056.8125,P07,D04,0,0,1
533,0.57,1644836056.828125,P07,D04,0,0,1
534,0.75,1644836056.84375,P07,D04,0,0,1
535,0.79,1644836056.859375,P07,D04,0,0,1
536,0.61,1644836056.875,P07,D04,0,0,1
537,0.29,1644836056.890625,P07,D04,0,0,1
538,-0.01,1644836056.90625,P07,D04,0,0,1
539,-0.14,1644836056.921875,P07,D04,0,0,1
540,0.04,1644836056.9375,P07,D04,0,0,1
541,0.46,1644836056.953125,P07,D04,0,0,1
542,0.98,1644836056.96875,P07,D04,0,0,1
543,1.38,1644836056.984375,P07,D04,0,0,1
544,1.52,1644836057.0,P07,D04,0,0,1
545,1.41,1644836057.015625,P07,D04,0,0,1
546,1.14,1644836057.03125,P07,D04,0,0,1
547,0.87,1644836057.046875,P07,D04,0,0,1
548,0.67,1644836057.0625,P07,D04,0,0,1
549,0.49,1644836057.078125,P07,D04,0,0,1
550,0.22,1644836057.09375,P07,D04,0,0,1
551,-0.23,1644836057.109375,P07,D04,0,0,1
552,-0.83,1644836057.125,P07,D04,0,0,1
553,-1.41,1644836057.140625,P07,D04,0,0,1
554,-1.76,1644836057.15625,P07,D04,0,0,1
555,-1.73,1644836057.171875,P07,D04,0,0,1
556,-1.34,1644836057.1875,P07,D04,0,0,1
557,-0.76,1644836057.203125,P07,D04,0,0,1
558,-0.26,1644836057.21875,P07,D04,0,0,1
559,0.0,1644836057.234375,P07,D04,0,0,1
560,-0.01,1644836057.25,P07,D04,0,0,1
561,-0.18,1644836057.265625,P07,D04,0,0,1
562,-0.34,1644836057.28125,P07,D04,0,0,1
563,-0.4,1644836057.296875,P07,D04,0,0,1
564,-0.35,1644836057.3125,P07,D04,0,0,1
565,-0.29,1644836057.328125,P07,D04,0,0,1
566,-0.29,1644836057.34375,P07,D04,0,0,1
567,-0.35,1644836057.359375,P07,D04,0,0,1
568,-0.41,1644836057.375,P07,D04,0,0,1
569,-0.36,1644836057.390625,P07,D04,0,0,1
570,-0.15,1644836057.40625,P07,D04,0,0,1
571,0.18,1644836057.421875,P07,D04,0,0,1
572,0.52,1644836057.4375,P07,D04,0,0,1
573,0.75,1644836057.453125,P07,D04,0,0,1
574,0.81,1644836057.46875,P07,D04,0,0,1
575,0.66,1644836057.484375,P07,D04,0,0,1
576,0.35,1644836057.5,P07,D04,0,0,1
577,-0.08,1644836057.515625,P07,D04,0,0,1
578,-0.54,1644836057.53125,P07,D04,0,0,1
579,-0.91,1644836057.546875,P07,D04,0,0,1
580,-1.11,1644836057.5625,P07,D04,0,0,1
581,-1.06,1644836057.578125,P07,D04,0,0,1
582,-0.79,1644836057.59375,P07,D04,0,0,1
583,-0.43,1644836057.609375,P07,D04,0,0,1
584,-0.1,1644836057.625,P07,D04,0,0,1
585,0.07,1644836057.640625,P07,D04,0,0,1
586,0.04,1644836057.65625,P07,D04,0,0,1
587,-0.16,1644836057.671875,P07,D04,0,0,1
588,-0.44,1644836057.6875,P07,D04,0,0,1
589,-0.76,1644836057.703125,P07,D04,0,0,1
590,-1.09,1644836057.71875,P07,D04,0,0,1
591,-1.41,1644836057.734375,P07,D04,0,0,1
592,-1.72,1644836057.75,P07,D04,0,0,1
593,-1.94,1644836057.765625,P07,D04,0,0,1
594,-2.01,1644836057.78125,P07,D04,0,0,1
595,-1.89,1644836057.796875,P07,D04,0,0,1
596,-1.58,1644836057.8125,P07,D04,0,0,1
597,-1.18,1644836057.828125,P07,D04,0,0,1
598,-0.84,1644836057.84375,P07,D04,0,0,1
599,-0.72,1644836057.859375,P07,D04,0,0,1
600,-0.9,1644836057.875,P07,D04,0,0,1
601,-1.37,1644836057.890625,P07,D04,0,0,1
602,-1.99,1644836057.90625,P07,D04,0,0,1
603,-2.59,1644836057.921875,P07,D04,0,0,1
604,-2.97,1644836057.9375,P07,D04,0,0,1
605,-3.01,1644836057.953125,P07,D04,0,0,1
606,-2.71,1644836057.96875,P07,D04,0,0,1
607,-2.15,1644836057.984375,P07,D04,0,0,1
608,-1.46,1644836058.0,P07,D04,0,0,1
609,-0.77,1644836058.015625,P07,D04,0,0,1
610,-0.18,1644836058.03125,P07,D04,0,0,1
611,0.25,1644836058.046875,P07,D04,0,0,1
612,0.52,1644836058.0625,P07,D04,0,0,1
613,0.64,1644836058.078125,P07,D04,0,0,1
614,0.65,1644836058.09375,P07,D04,0,0,1
615,0.6,1644836058.109375,P07,D04,0,0,1
616,0.54,1644836058.125,P07,D04,0,0,1
617,0.48,1644836058.140625,P07,D04,0,0,1
618,0.42,1644836058.15625,P07,D04,0,0,1
619,0.34,1644836058.171875,P07,D04,0,0,1
620,0.25,1644836058.1875,P07,D04,0,0,1
621,0.16,1644836058.203125,P07,D04,0,0,1
622,0.14,1644836058.21875,P07,D04,0,0,1
623,0.2,1644836058.234375,P07,D04,0,0,1
624,0.35,1644836058.25,P07,D04,0,0,1
625,0.56,1644836058.265625,P07,D04,0,0,1
626,0.78,1644836058.28125,P07,D04,0,0,1
627,0.98,1644836058.296875,P07,D04,0,0,1
628,1.12,1644836058.3125,P07,D04,0,0,1
629,1.16,1644836058.328125,P07,D04,0,0,1
630,1.07,1644836058.34375,P07,D04,0,0,1
631,0.85,1644836058.359375,P07,D04,0,0,1
632,0.52,1644836058.375,P07,D04,0,0,1
633,0.14,1644836058.390625,P07,D04,0,0,1
634,-0.16,1644836058.40625,P07,D04,0,0,1
635,-0.28,1644836058.421875,P07,D04,0,0,1
636,-0.18,1644836058.4375,P07,D04,0,0,1
637,0.09,1644836058.453125,P07,D04,0,0,1
638,0.41,1644836058.46875,P07,D04,0,0,1
639,0.63,1644836058.484375,P07,D04,0,0,1
640,0.67,1644836058.5,P07,D04,0,0,1
641,0.52,1644836058.515625,P07,D04,0,0,1
642,0.28,1644836058.53125,P07,D04,0,0,1
643,0.04,1644836058.546875,P07,D04,0,0,1
644,-0.1,1644836058.5625,P07,D04,0,0,1
645,-0.13,1644836058.578125,P07,D04,0,0,1
646,-0.07,1644836058.59375,P07,D04,0,0,1
647,0.04,1644836058.609375,P07,D04,0,0,1
648,0.16,1644836058.625,P07,D04,0,0,1
649,0.3,1644836058.640625,P07,D04,0,0,1
650,0.45,1644836058.65625,P07,D04,0,0,1
651,0.59,1644836058.671875,P07,D04,0,0,1
652,0.67,1644836058.6875,P07,D04,0,0,1
653,0.66,1644836058.703125,P07,D04,0,0,1
654,0.55,1644836058.71875,P07,D04,0,0,1
655,0.41,1644836058.734375,P07,D04,0,0,1
656,0.29,1644836058.75,P07,D04,0,0,1
657,0.25,1644836058.765625,P07,D04,0,0,1
658,0.29,1644836058.78125,P07,D04,0,0,1
659,0.37,1644836058.796875,P07,D04,0,0,1
660,0.47,1644836058.8125,P07,D04,0,0,1
661,0.59,1644836058.828125,P07,D04,0,0,1
662,0.72,1644836058.84375,P07,D04,0,0,1
663,0.87,1644836058.859375,P07,D04,0,0,1
664,0.99,1644836058.875,P07,D04,0,0,1
665,1.01,1644836058.890625,P07,D04,0,0,1
666,0.9,1644836058.90625,P07,D04,0,0,1
667,0.65,1644836058.921875,P07,D04,0,0,1
668,0.37,1644836058.9375,P07,D04,0,0,1
669,0.16,1644836058.953125,P07,D04,0,0,1
670,0.13,1644836058.96875,P07,D04,0,0,1
671,0.29,1644836058.984375,P07,D04,0,0,1
672,0.6,1644836059.0,P07,D04,0,0,1
673,0.96,1644836059.015625,P07,D04,0,0,1
674,1.29,1644836059.03125,P07,D04,0,0,1
675,1.57,1644836059.046875,P07,D04,0,0,1
676,1.8,1644836059.0625,P07,D04,0,0,1
677,1.96,1644836059.078125,P07,D04,0,0,1
678,2.03,1644836059.09375,P07,D04,0,0,1
679,1.96,1644836059.109375,P07,D04,0,0,1
680,1.75,1644836059.125,P07,D04,0,0,1
681,1.44,1644836059.140625,P07,D04,0,0,1
682,1.12,1644836059.15625,P07,D04,0,0,1
683,0.89,1644836059.171875,P07,D04,0,0,1
684,0.84,1644836059.1875,P07,D04,0,0,1
685,0.96,1644836059.203125,P07,D04,0,0,1
686,1.19,1644836059.21875,P07,D04,0,0,1
687,1.43,1644836059.234375,P07,D04,0,0,1
688,1.61,1644836059.25,P07,D04,0,0,1
689,1.7,1644836059.265625,P07,D04,0,0,1
690,1.72,1644836059.28125,P07,D04,0,0,1
691,1.71,1644836059.296875,P07,D04,0,0,1
692,1.66,1644836059.3125,P07,D04,0,0,1
693,1.58,1644836059.328125,P07,D04,0,0,1
694,1.45,1644836059.34375,P07,D04,0,0,1
695,1.28,1644836059.359375,P07,D04,0,0,1
696,1.11,1644836059.375,P07,D04,0,0,1
697,0.96,1644836059.390625,P07,D04,0,0,1
698,0.84,1644836059.40625,P07,D04,0,0,1
699,0.7,1644836059.421875,P07,D04,0,0,1
700,0.51,1644836059.4375,P07,D04,0,0,1
701,0.25,1644836059.453125,P07,D04,0,0,1
702,-0.01,1644836059.46875,P07,D04,0,0,1
703,-0.18,1644836059.484375,P07,D04,0,0,1
704,-0.23,1644836059.5,P07,D04,0,0,1
705,-0.16,1644836059.515625,P07,D04,0,0,1
706,-0.08,1644836059.53125,P07,D04,0,0,1
707,-0.11,1644836059.546875,P07,D04,0,0,1
708,-0.31,1644836059.5625,P07,D04,0,0,1
709,-0.66,1644836059.578125,P07,D04,0,0,1
710,-1.05,1644836059.59375,P07,D04,0,0,1
711,-1.37,1644836059.609375,P07,D04,0,0,1
712,-1.57,1644836059.625,P07,D04,0,0,1
713,-1.64,1644836059.640625,P07,D04,0,0,1
714,-1.67,1644836059.65625,P07,D04,0,0,1
715,-1.72,1644836059.671875,P07,D04,0,0,1
716,-1.85,1644836059.6875,P07,D04,0,0,1
717,-2.04,1644836059.703125,P07,D04,0,0,1
718,-2.24,1644836059.71875,P07,D04,0,0,1
719,-2.36,1644836059.734375,P07,D04,0,0,1
720,-2.34,1644836059.75,P07,D04,0,0,1
721,-2.12,1644836059.765625,P07,D04,0,0,1
722,-1.74,1644836059.78125,P07,D04,0,0,1
723,-1.26,1644836059.796875,P07,D04,0,0,1
724,-0.8,1644836059.8125,P07,D04,0,0,1
725,-0.47,1644836059.828125,P07,D04,0,0,1
726,-0.32,1644836059.84375,P07,D04,0,0,1
727,-0.33,1644836059.859375,P07,D04,0,0,1
728,-0.45,1644836059.875,P07,D04,0,0,1
729,-0.62,1644836059.890625,P07,D04,0,0,1
730,-0.82,1644836059.90625,P07,D04,0,0,1
731,-1.05,1644836059.921875,P07,D04,0,0,1
732,-1.33,1644836059.9375,P07,D04,0,0,1
733,-1.61,1644836059.953125,P07,D04,0,0,1
734,-1.81,1644836059.96875,P07,D04,0,0,1
735,-1.85,1644836059.984375,P07,D04,0,0,1
736,-1.68,1644836060.0,P07,D04,0,0,1
737,-1.36,1644836060.015625,P07,D04,0,0,1
738,-0.96,1644836060.03125,P07,D04,0,0,1
739,-0.58,1644836060.046875,P07,D04,0,0,1
740,-0.29,1644836060.0625,P07,D04,0,0,1
741,-0.08,1644836060.078125,P07,D04,0,0,1
742,0.09,1644836060.09375,P07,D04,0,0,1
743,0.25,1644836060.109375,P07,D04,0,0,1
744,0.45,1644836060.125,P07,D04,0,0,1
745,0.7,1644836060.140625,P07,D04,0,0,1
746,0.95,1644836060.15625,P07,D04,0,0,1
747,1.17,1644836060.171875,P07,D04,0,0,1
748,1.31,1644836060.1875,P07,D04,0,0,1
749,1.35,1644836060.203125,P07,D04,0,0,1
750,1.3,1644836060.21875,P07,D04,0,0,1
751,1.18,1644836060.234375,P07,D04,0,0,1
752,1.03,1644836060.25,P07,D04,0,0,1
753,0.87,1644836060.265625,P07,D04,0,0,1
754,0.68,1644836060.28125,P07,D04,0,0,1
755,0.47,1644836060.296875,P07,D04,0,0,1
756,0.27,1644836060.3125,P07,D04,0,0,1
757,0.15,1644836060.328125,P07,D04,0,0,1
758,0.15,1644836060.34375,P07,D04,0,0,1
759,0.32,1644836060.359375,P07,D04,0,0,1
760,0.63,1644836060.375,P07,D04,0,0,1
761,0.97,1644836060.390625,P07,D04,0,0,1
762,1.24,1644836060.40625,P07,D04,0,0,1
763,1.35,1644836060.421875,P07,D04,0,0,1
764,1.24,1644836060.4375,P07,D04,0,0,1
765,0.92,1644836060.453125,P07,D04,0,0,1
766,0.46,1644836060.46875,P07,D04,0,0,1
767,-0.05,1644836060.484375,P07,D04,0,0,1
768,-0.46,1644836060.5,P07,D04,0,0,1
769,-0.66,1644836060.515625,P07,D04,0,0,1
770,-0.58,1644836060.53125,P07,D04,0,0,1
771,-0.22,1644836060.546875,P07,D04,0,0,1
772,0.28,1644836060.5625,P07,D04,0,0,1
773,0.76,1644836060.578125,P07,D04,0,0,1
774,1.05,1644836060.59375,P07,D04,0,0,1
775,1.08,1644836060.609375,P07,D04,0,0,1
776,0.89,1644836060.625,P07,D04,0,0,1
777,0.58,1644836060.640625,P07,D04,0,0,1
778,0.27,1644836060.65625,P07,D04,0,0,1
779,0.03,1644836060.671875,P07,D04,0,0,1
780,-0.08,1644836060.6875,P07,D04,0,0,1
781,-0.06,1644836060.703125,P07,D04,0,0,1
782,0.07,1644836060.71875,P07,D04,0,0,1
783,0.24,1644836060.734375,P07,D04,0,0,1
784,0.39,1644836060.75,P07,D04,0,0,1
785,0.43,1644836060.765625,P07,D04,0,0,1
786,0.3,1644836060.78125,P07,D04,0,0,1
787,-0.0,1644836060.796875,P07,D04,0,0,1
788,-0.4,1644836060.8125,P07,D04,0,0,1
789,-0.81,1644836060.828125,P07,D04,0,0,1
790,-1.14,1644836060.84375,P07,D04,0,0,1
791,-1.36,1644836060.859375,P07,D04,0,0,1
792,-1.47,1644836060.875,P07,D04,0,0,1
793,-1.52,1644836060.890625,P07,D04,0,0,1
794,-1.51,1644836060.90625,P07,D04,0,0,1
795,-1.41,1644836060.921875,P07,D04,0,0,1
796,-1.19,1644836060.9375,P07,D04,0,0,1
797,-0.82,1644836060.953125,P07,D04,0,0,1
798,-0.35,1644836060.96875,P07,D04,0,0,1
799,0.15,1644836060.984375,P07,D04,0,0,1
800,0.59,1644836061.0,P07,D04,0,0,1
801,0.88,1644836061.015625,P07,D04,0,0,1
802,0.98,1644836061.03125,P07,D04,0,0,1
803,0.91,1644836061.046875,P07,D04,0,0,1
804,0.7,1644836061.0625,P07,D04,0,0,1
805,0.45,1644836061.078125,P07,D04,0,0,1
806,0.24,1644836061.09375,P07,D04,0,0,1
807,0.16,1644836061.109375,P07,D04,0,0,1
808,0.27,1644836061.125,P07,D04,0,0,1
809,0.52,1644836061.140625,P07,D04,0,0,1
810,0.78,1644836061.15625,P07,D04,0,0,1
811,0.91,1644836061.171875,P07,D04,0,0,1
812,0.79,1644836061.1875,P07,D04,0,0,1
813,0.39,1644836061.203125,P07,D04,0,0,1
814,-0.17,1644836061.21875,P07,D04,0,0,1
815,-0.73,1644836061.234375,P07,D04,0,0,1
816,-1.11,1644836061.25,P07,D04,0,0,1
817,-1.21,1644836061.265625,P07,D04,0,0,1
818,-1.06,1644836061.28125,P07,D04,0,0,1
819,-0.75,1644836061.296875,P07,D04,0,0,1
820,-0.37,1644836061.3125,P07,D04,0,0,1
821,-0.01,1644836061.328125,P07,D04,0,0,1
822,0.28,1644836061.34375,P07,D04,0,0,1
823,0.45,1644836061.359375,P07,D04,0,0,1
824,0.49,1644836061.375,P07,D04,0,0,1
825,0.4,1644836061.390625,P07,D04,0,0,1
826,0.19,1644836061.40625,P07,D04,0,0,1
827,-0.06,1644836061.421875,P07,D04,0,0,1
828,-0.29,1644836061.4375,P07,D04,0,0,1
829,-0.45,1644836061.453125,P07,D04,0,0,1
830,-0.51,1644836061.46875,P07,D04,0,0,1
831,-0.47,1644836061.484375,P07,D04,0,0,1
832,-0.35,1644836061.5,P07,D04,0,0,1
833,-0.17,1644836061.515625,P07,D04,0,0,1
834,0.03,1644836061.53125,P07,D04,0,0,1
835,0.19,1644836061.546875,P07,D04,0,0,1
836,0.24,1644836061.5625,P07,D04,0,0,1
837,0.17,1644836061.578125,P07,D04,0,0,1
838,0.02,1644836061.59375,P07,D04,0,0,1
839,-0.13,1644836061.609375,P07,D04,0,0,1
840,-0.2,1644836061.625,P07,D04,0,0,1
841,-0.14,1644836061.640625,P07,D04,0,0,1
842,0.02,1644836061.65625,P07,D04,0,0,1
843,0.22,1644836061.671875,P07,D04,0,0,1
844,0.39,1644836061.6875,P07,D04,0,0,1
845,0.52,1644836061.703125,P07,D04,0,0,1
846,0.6,1644836061.71875,P07,D04,0,0,1
847,0.64,1644836061.734375,P07,D04,0,0,1
848,0.62,1644836061.75,P07,D04,0,0,1
849,0.49,1644836061.765625,P07,D04,0,0,1
850,0.23,1644836061.78125,P07,D04,0,0,1
851,-0.15,1644836061.796875,P07,D04,0,0,1
852,-0.54,1644836061.8125,P07,D04,0,0,1
853,-0.82,1644836061.828125,P07,D04,0,0,1
854,-0.93,1644836061.84375,P07,D04,0,0,1
855,-0.84,1644836061.859375,P07,D04,0,0,1
856,-0.64,1644836061.875,P07,D04,0,0,1
857,-0.41,1644836061.890625,P07,D04,0,0,1
858,-0.21,1644836061.90625,P07,D04,0,0,1
859,-0.06,1644836061.921875,P07,D04,0,0,1
860,0.05,1644836061.9375,P07,D04,0,0,1
861,0.15,1644836061.953125,P07,D04,0,0,1
862,0.25,1644836061.96875,P07,D04,0,0,1
863,0.34,1644836061.984375,P07,D04,0,0,1
864,0.41,1644836062.0,P07,D04,0,0,1
865,0.45,1644836062.015625,P07,D04,0,0,1
866,0.44,1644836062.03125,P07,D04,0,0,1
867,0.39,1644836062.046875,P07,D04,0,0,1
868,0.29,1644836062.0625,P07,D04,0,0,1
869,0.17,1644836062.078125,P07,D04,0,0,1
870,0.06,1644836062.09375,P07,D04,0,0,1
871,0.02,1644836062.109375,P07,D04,0,0,1
872,0.07,1644836062.125,P07,D04,0,0,1
873,0.19,1644836062.140625,P07,D04,0,0,1
874,0.32,1644836062.15625,P07,D04,0,0,1
875,0.37,1644836062.171875,P07,D04,0,0,1
876,0.32,1644836062.1875,P07,D04,0,0,1
877,0.18,1644836062.203125,P07,D04,0,0,1
878,0.04,1644836062.21875,P07,D04,0,0,1
879,-0.03,1644836062.234375,P07,D04,0,0,1
880,0.04,1644836062.25,P07,D04,0,0,1
881,0.24,1644836062.265625,P07,D04,0,0,1
882,0.51,1644836062.28125,P07,D04,0,0,1
883,0.77,1644836062.296875,P07,D04,0,0,1
884,0.92,1644836062.3125,P07,D04,0,0,1
885,0.91,1644836062.328125,P07,D04,0,0,1
886,0.7,1644836062.34375,P07,D04,0,0,1
887,0.31,1644836062.359375,P07,D04,0,0,1
888,-0.18,1644836062.375,P07,D04,0,0,1
889,-0.64,1644836062.390625,P07,D04,0,0,1
890,-0.94,1644836062.40625,P07,D04,0,0,1
891,-1.0,1644836062.421875,P07,D04,0,0,1
892,-0.83,1644836062.4375,P07,D04,0,0,1
893,-0.56,1644836062.453125,P07,D04,0,0,1
894,-0.38,1644836062.46875,P07,D04,0,0,1
895,-0.44,1644836062.484375,P07,D04,0,0,1
896,-0.8,1644836062.5,P07,D04,0,0,1
897,-1.37,1644836062.515625,P07,D04,0,0,1
898,-2.0,1644836062.53125,P07,D04,0,0,1
899,-2.53,1644836062.546875,P07,D04,0,0,1
900,-2.84,1644836062.5625,P07,D04,0,0,1
901,-2.95,1644836062.578125,P07,D04,0,0,1
902,-2.92,1644836062.59375,P07,D04,0,0,1
903,-2.83,1644836062.609375,P07,D04,0,0,1
904,-2.73,1644836062.625,P07,D04,0,0,1
905,-2.64,1644836062.640625,P07,D04,0,0,1
906,-2.52,1644836062.65625,P07,D04,0,0,1
907,-2.39,1644836062.671875,P07,D04,0,0,1
908,-2.22,1644836062.6875,P07,D04,0,0,1
909,-2.03,1644836062.703125,P07,D04,0,0,1
910,-1.83,1644836062.71875,P07,D04,0,0,1
911,-1.63,1644836062.734375,P07,D04,0,0,1
912,-1.43,1644836062.75,P07,D04,0,0,1
913,-1.23,1644836062.765625,P07,D04,0,0,1
914,-0.99,1644836062.78125,P07,D04,0,0,1
915,-0.71,1644836062.796875,P07,D04,0,0,1
916,-0.37,1644836062.8125,P07,D04,0,0,1
917,-0.0,1644836062.828125,P07,D04,0,0,1
918,0.32,1644836062.84375,P07,D04,0,0,1
919,0.55,1644836062.859375,P07,D04,0,0,1
920,0.67,1644836062.875,P07,D04,0,0,1
921,0.72,1644836062.890625,P07,D04,0,0,1
922,0.78,1644836062.90625,P07,D04,0,0,1
923,0.86,1644836062.921875,P07,D04,0,0,1
924,0.96,1644836062.9375,P07,D04,0,0,1
925,1.0,1644836062.953125,P07,D04,0,0,1
926,0.93,1644836062.96875,P07,D04,0,0,1
927,0.75,1644836062.984375,P07,D04,0,0,1
928,0.53,1644836063.0,P07,D04,0,0,1
929,0.37,1644836063.015625,P07,D04,0,0,1
930,0.32,1644836063.03125,P07,D04,0,0,1
931,0.38,1644836063.046875,P07,D04,0,0,1
932,0.49,1644836063.0625,P07,D04,0,0,1
933,0.57,1644836063.078125,P07,D04,0,0,1
934,0.59,1644836063.09375,P07,D04,0,0,1
935,0.56,1644836063.109375,P07,D04,0,0,1
936,0.55,1644836063.125,P07,D04,0,0,1
937,0.6,1644836063.140625,P07,D04,0,0,1
938,0.73,1644836063.15625,P07,D04,0,0,1
939,0.89,1644836063.171875,P07,D04,0,0,1
940,1.0,1644836063.1875,P07,D04,0,0,1
941,1.01,1644836063.203125,P07,D04,0,0,1
942,0.9,1644836063.21875,P07,D04,0,0,1
943,0.74,1644836063.234375,P07,D04,0,0,1
944,0.59,1644836063.25,P07,D04,0,0,1
945,0.49,1644836063.265625,P07,D04,0,0,1
946,0.43,1644836063.28125,P07,D04,0,0,1
947,0.38,1644836063.296875,P07,D04,0,0,1
948,0.28,1644836063.3125,P07,D04,0,0,1
949,0.11,1644836063.328125,P07,D04,0,0,1
950,-0.1,1644836063.34375,P07,D04,0,0,1
951,-0.31,1644836063.359375,P07,D04,0,0,1
952,-0.46,1644836063.375,P07,D04,0,0,1
953,-0.5,1644836063.390625,P07,D04,0,0,1
954,-0.46,1644836063.40625,P07,D04,0,0,1
955,-0.39,1644836063.421875,P07,D04,0,0,1
956,-0.34,1644836063.4375,P07,D04,0,0,1
957,-0.36,1644836063.453125,P07,D04,0,0,1
958,-0.44,1644836063.46875,P07,D04,0,0,1
959,-0.57,1644836063.484375,P07,D04,0,0,1
960,-0.71,1644836063.5,P07,D04,0,0,1
961,-0.8,1644836063.515625,P07,D04,0,0,1
962,-0.82,1644836063.53125,P07,D04,0,0,1
963,-0.76,1644836063.546875,P07,D04,0,0,1
964,-0.61,1644836063.5625,P07,D04,0,0,1
965,-0.37,1644836063.578125,P07,D04,0,0,1
966,-0.02,1644836063.59375,P07,D04,0,0,1
967,0.4,1644836063.609375,P07,D04,0,0,1
968,0.85,1644836063.625,P07,D04,0,0,1
969,1.25,1644836063.640625,P07,D04,0,0,1
970,1.52,1644836063.65625,P07,D04,0,0,1
971,1.66,1644836063.671875,P07,D04,0,0,1
972,1.7,1644836063.6875,P07,D04,0,0,1
973,1.69,1644836063.703125,P07,D04,0,0,1
974,1.67,1644836063.71875,P07,D04,0,0,1
975,1.64,1644836063.734375,P07,D04,0,0,1
976,1.58,1644836063.75,P07,D04,0,0,1
977,1.5,1644836063.765625,P07,D04,0,0,1
978,1.43,1644836063.78125,P07,D04,0,0,1
979,1.42,1644836063.796875,P07,D04,0,0,1
980,1.5,1644836063.8125,P07,D04,0,0,1
981,1.62,1644836063.828125,P07,D04,0,0,1
982,1.73,1644836063.84375,P07,D04,0,0,1
983,1.76,1644836063.859375,P07,D04,0,0,1
984,1.72,1644836063.875,P07,D04,0,0,1
985,1.63,1644836063.890625,P07,D04,0,0,1
986,1.57,1644836063.90625,P07,D04,0,0,1
987,1.55,1644836063.921875,P07,D04,0,0,1
988,1.56,1644836063.9375,P07,D04,0,0,1
989,1.56,1644836063.953125,P07,D04,0,0,1
990,1.5,1644836063.96875,P07,D04,0,0,1
991,1.38,1644836063.984375,P07,D04,0,0,1
992,1.18,1644836064.0,P07,D04,0,0,1
993,0.9,1644836064.015625,P07,D04,0,0,1
994,0.51,1644836064.03125,P07,D04,0,0,1
995,-0.02,1644836064.046875,P07,D04,0,0,1
996,-0.67,1644836064.0625,P07,D04,0,0,1
997,-1.36,1644836064.078125,P07,D04,0,0,1
998,-2.0,1644836064.09375,P07,D04,0,0,1
999,-2.45,1644836064.109375,P07,D04,0,0,1
1000,-2.63,1644836064.125,P07,D04,0,0,1
1001,-2.52,1644836064.140625,P07,D04,0,0,1
1002,-2.17,1644836064.15625,P07,D04,0,0,1
1003,-1.68,1644836064.171875,P07,D04,0,0,1
1004,-1.19,1644836064.1875,P07,D04,0,0,1
1005,-0.82,1644836064.203125,P07,D04,0,0,1
1006,-0.63,1644836064.21875,P07,D04,0,0,1
1007,-0.62,1644836064.234375,P07,D04,0,0,1
1008,-0.72,1644836064.25,P07,D04,0,0,1
1009,-0.85,1644836064.265625,P07,D04,0,0,1
1010,-0.93,1644836064.28125,P07,D04,0,0,1
1011,-0.93,1644836064.296875,P07,D04,0,0,1
1012,-0.87,1644836064.3125,P07,D04,0,0,1
1013,-0.78,1644836064.328125,P07,D04,0,0,1
1014,-0.71,1644836064.34375,P07,D04,0,0,1
1015,-0.67,1644836064.359375,P07,D04,0,0,1
1016,-0.62,1644836064.375,P07,D04,0,0,1
1017,-0.52,1644836064.390625,P07,D04,0,0,1
1018,-0.35,1644836064.40625,P07,D04,0,0,1
1019,-0.12,1644836064.421875,P07,D04,0,0,1
1020,0.15,1644836064.4375,P07,D04,0,0,1
1021,0.42,1644836064.453125,P07,D04,0,0,1
1022,0.64,1644836064.46875,P07,D04,0,0,1
1023,0.82,1644836064.484375,P07,D04,0,0,1
1024,0.97,1644836064.5,P07,D04,0,0,1
1025,1.11,1644836064.515625,P07,D04,0,0,1
1026,1.21,1644836064.53125,P07,D04,0,0,1
1027,1.21,1644836064.546875,P07,D04,0,0,1
1028,1.05,1644836064.5625,P07,D04,0,0,1
1029,0.7,1644836064.578125,P07,D04,0,0,1
1030,0.23,1644836064.59375,P07,D04,0,0,1
1031,-0.22,1644836064.609375,P07,D04,0,0,1
1032,-0.46,1644836064.625,P07,D04,0,0,1
1033,-0.4,1644836064.640625,P07,D04,0,0,1
1034,-0.05,1644836064.65625,P07,D04,0,0,1
1035,0.47,1644836064.671875,P07,D04,0,0,1
1036,1.0,1644836064.6875,P07,D04,0,0,1
1037,1.4,1644836064.703125,P07,D04,0,0,1
1038,1.59,1644836064.71875,P07,D04,0,0,1
1039,1.57,1644836064.734375,P07,D04,0,0,1
1040,1.4,1644836064.75,P07,D04,0,0,1
1041,1.16,1644836064.765625,P07,D04,0,0,1
1042,0.89,1644836064.78125,P07,D04,0,0,1
1043,0.63,1644836064.796875,P07,D04,0,0,1
1044,0.36,1644836064.8125,P07,D04,0,0,1
1045,0.09,1644836064.828125,P07,D04,0,0,1
1046,-0.2,1644836064.84375,P07,D04,0,0,1
1047,-0.5,1644836064.859375,P07,D04,0,0,1
1048,-0.78,1644836064.875,P07,D04,0,0,1
1049,-1.02,1644836064.890625,P07,D04,0,0,1
1050,-1.16,1644836064.90625,P07,D04,0,0,1
1051,-1.18,1644836064.921875,P07,D04,0,0,1
1052,-1.06,1644836064.9375,P07,D04,0,0,1
1053,-0.82,1644836064.953125,P07,D04,0,0,1
1054,-0.51,1644836064.96875,P07,D04,0,0,1
1055,-0.18,1644836064.984375,P07,D04,0,0,1
1056,0.09,1644836065.0,P07,D04,0,0,1
1057,0.26,1644836065.015625,P07,D04,0,0,1
1058,0.31,1644836065.03125,P07,D04,0,0,1
1059,0.25,1644836065.046875,P07,D04,0,0,1
1060,0.15,1644836065.0625,P07,D04,0,0,1
1061,0.04,1644836065.078125,P07,D04,0,0,1
1062,-0.04,1644836065.09375,P07,D04,0,0,1
1063,-0.06,1644836065.109375,P07,D04,0,0,1
1064,-0.04,1644836065.125,P07,D04,0,0,1
1065,-0.02,1644836065.140625,P07,D04,0,0,1
1066,-0.02,1644836065.15625,P07,D04,0,0,1
1067,-0.04,1644836065.171875,P07,D04,0,0,1
1068,-0.08,1644836065.1875,P07,D04,0,0,1
1069,-0.1,1644836065.203125,P07,D04,0,0,1
1070,-0.04,1644836065.21875,P07,D04,0,0,1
1071,0.12,1644836065.234375,P07,D04,0,0,1
1072,0.37,1644836065.25,P07,D04,0,0,1
1073,0.66,1644836065.265625,P07,D04,0,0,1
1074,0.89,1644836065.28125,P07,D04,0,0,1
1075,0.98,1644836065.296875,P07,D04,0,0,1
1076,0.87,1644836065.3125,P07,D04,0,0,1
1077,0.56,1644836065.328125,P07,D04,0,0,1
1078,0.11,1644836065.34375,P07,D04,0,0,1
1079,-0.42,1644836065.359375,P07,D04,0,0,1
1080,-0.94,1644836065.375,P07,D04,0,0,1
1081,-1.38,1644836065.390625,P07,D04,0,0,1
1082,-1.72,1644836065.40625,P07,D04,0,0,1
1083,-1.9,1644836065.421875,P07,D04,0,0,1
1084,-1.9,1644836065.4375,P07,D04,0,0,1
1085,-1.72,1644836065.453125,P07,D04,0,0,1
1086,-1.4,1644836065.46875,P07,D04,0,0,1
1087,-1.04,1644836065.484375,P07,D04,0,0,1
1088,-0.76,1644836065.5,P07,D04,0,0,1
1089,-0.66,1644836065.515625,P07,D04,0,0,1
1090,-0.75,1644836065.53125,P07,D04,0,0,1
1091,-0.95,1644836065.546875,P07,D04,0,0,1
1092,-1.13,1644836065.5625,P07,D04,0,0,1
1093,-1.19,1644836065.578125,P07,D04,0,0,1
1094,-1.1,1644836065.59375,P07,D04,0,0,1
1095,-0.94,1644836065.609375,P07,D04,0,0,1
1096,-0.78,1644836065.625,P07,D04,0,0,1
1097,-0.68,1644836065.640625,P07,D04,0,0,1
1098,-0.6,1644836065.65625,P07,D04,0,0,1
1099,-0.44,1644836065.671875,P07,D04,0,0,1
1100,-0.1,1644836065.6875,P07,D04,0,0,1
1101,0.41,1644836065.703125,P07,D04,0,0,1
1102,0.97,1644836065.71875,P07,D04,0,0,1
1103,1.44,1644836065.734375,P07,D04,0,0,1
1104,1.69,1644836065.75,P07,D04,0,0,1
1105,1.73,1644836065.765625,P07,D04,0,0,1
1106,1.64,1644836065.78125,P07,D04,0,0,1
1107,1.56,1644836065.796875,P07,D04,0,0,1
1108,1.55,1644836065.8125,P07,D04,0,0,1
1109,1.57,1644836065.828125,P07,D04,0,0,1
1110,1.52,1644836065.84375,P07,D04,0,0,1
1111,1.31,1644836065.859375,P07,D04,0,0,1
1112,0.94,1644836065.875,P07,D04,0,0,1
1113,0.5,1644836065.890625,P07,D04,0,0,1
1114,0.1,1644836065.90625,P07,D04,0,0,1
1115,-0.16,1644836065.921875,P07,D04,0,0,1
1116,-0.3,1644836065.9375,P07,D04,0,0,1
1117,-0.4,1644836065.953125,P07,D04,0,0,1
1118,-0.56,1644836065.96875,P07,D04,0,0,1
1119,-0.8,1644836065.984375,P07,D04,0,0,1
1120,-1.05,1644836066.0,P07,D04,0,0,1
1121,-1.21,1644836066.015625,P07,D04,0,0,1
1122,-1.21,1644836066.03125,P07,D04,0,0,1
1123,-1.05,1644836066.046875,P07,D04,0,0,1
1124,-0.86,1644836066.0625,P07,D04,0,0,1
1125,-0.74,1644836066.078125,P07,D04,0,0,1
1126,-0.78,1644836066.09375,P07,D04,0,0,1
1127,-0.96,1644836066.109375,P07,D04,0,0,1
1128,-1.19,1644836066.125,P07,D04,0,0,1
1129,-1.38,1644836066.140625,P07,D04,0,0,1
1130,-1.47,1644836066.15625,P07,D04,0,0,1
1131,-1.47,1644836066.171875,P07,D04,0,0,1
1132,-1.42,1644836066.1875,P07,D04,0,0,1
1133,-1.32,1644836066.203125,P07,D04,0,0,1
1134,-1.18,1644836066.21875,P07,D04,0,0,1
1135,-0.96,1644836066.234375,P07,D04,0,0,1
1136,-0.67,1644836066.25,P07,D04,0,0,1
1137,-0.38,1644836066.265625,P07,D04,0,0,1
1138,-0.15,1644836066.28125,P07,D04,0,0,1
1139,-0.04,1644836066.296875,P07,D04,0,0,1
1140,-0.07,1644836066.3125,P07,D04,0,0,1
1141,-0.18,1644836066.328125,P07,D04,0,0,1
1142,-0.26,1644836066.34375,P07,D04,0,0,1
1143,-0.25,1644836066.359375,P07,D04,0,0,1
1144,-0.14,1644836066.375,P07,D04,0,0,1
1145,0.04,1644836066.390625,P07,D04,0,0,1
1146,0.25,1644836066.40625,P07,D04,0,0,1
1147,0.46,1644836066.421875,P07,D04,0,0,1
1148,0.65,1644836066.4375,P07,D04,0,0,1
1149,0.86,1644836066.453125,P07,D04,0,0,1
1150,1.08,1644836066.46875,P07,D04,0,0,1
1151,1.28,1644836066.484375,P07,D04,0,0,1
1152,1.4,1644836066.5,P07,D04,0,0,1
1153,1.38,1644836066.515625,P07,D04,0,0,1
1154,1.2,1644836066.53125,P07,D04,0,0,1
1155,0.9,1644836066.546875,P07,D04,0,0,1
1156,0.58,1644836066.5625,P07,D04,0,0,1
1157,0.4,1644836066.578125,P07,D04,0,0,1
1158,0.48,1644836066.59375,P07,D04,0,0,1
1159,0.85,1644836066.609375,P07,D04,0,0,1
1160,1.43,1644836066.625,P07,D04,0,0,1
1161,2.07,1644836066.640625,P07,D04,0,0,1
1162,2.63,1644836066.65625,P07,D04,0,0,1
1163,3.0,1644836066.671875,P07,D04,0,0,1
1164,3.2,1644836066.6875,P07,D04,0,0,1
1165,3.27,1644836066.703125,P07,D04,0,0,1
1166,3.24,1644836066.71875,P07,D04,0,0,1
1167,3.09,1644836066.734375,P07,D04,0,0,1
1168,2.76,1644836066.75,P07,D04,0,0,1
1169,2.22,1644836066.765625,P07,D04,0,0,1
1170,1.52,1644836066.78125,P07,D04,0,0,1
1171,0.79,1644836066.796875,P07,D04,0,0,1
1172,0.21,1644836066.8125,P07,D04,0,0,1
1173,-0.12,1644836066.828125,P07,D04,0,0,1
1174,-0.16,1644836066.84375,P07,D04,0,0,1
1175,-0.04,1644836066.859375,P07,D04,0,0,1
1176,0.08,1644836066.875,P07,D04,0,0,1
1177,0.06,1644836066.890625,P07,D04,0,0,1
1178,-0.16,1644836066.90625,P07,D04,0,0,1
1179,-0.55,1644836066.921875,P07,D04,0,0,1
1180,-1.04,1644836066.9375,P07,D04,0,0,1
1181,-1.54,1644836066.953125,P07,D04,0,0,1
1182,-2.01,1644836066.96875,P07,D04,0,0,1
1183,-2.39,1644836066.984375,P07,D04,0,0,1
1184,-2.65,1644836067.0,P07,D04,0,0,1
1185,-2.77,1644836067.015625,P07,D04,0,0,1
1186,-2.73,1644836067.03125,P07,D04,0,0,1
1187,-2.59,1644836067.046875,P07,D04,0,0,1
1188,-2.41,1644836067.0625,P07,D04,0,0,1
1189,-2.23,1644836067.078125,P07,D04,0,0,1
1190,-2.03,1644836067.09375,P07,D04,0,0,1
1191,-1.76,1644836067.109375,P07,D04,0,0,1
1192,-1.35,1644836067.125,P07,D04,0,0,1
1193,-0.82,1644836067.140625,P07,D04,0,0,1
1194,-0.23,1644836067.15625,P07,D04,0,0,1
1195,0.25,1644836067.171875,P07,D04,0,0,1
1196,0.54,1644836067.1875,P07,D04,0,0,1
1197,0.6,1644836067.203125,P07,D04,0,0,1
1198,0.53,1644836067.21875,P07,D04,0,0,1
1199,0.46,1644836067.234375,P07,D04,0,0,1
1200,0.49,1644836067.25,P07,D04,0,0,1
1201,0.61,1644836067.265625,P07,D04,0,0,1
1202,0.73,1644836067.28125,P07,D04,0,0,1
1203,0.75,1644836067.296875,P07,D04,0,0,1
1204,0.62,1644836067.3125,P07,D04,0,0,1
1205,0.39,1644836067.328125,P07,D04,0,0,1
1206,0.15,1644836067.34375,P07,D04,0,0,1
1207,-0.03,1644836067.359375,P07,D04,0,0,1
1208,-0.1,1644836067.375,P07,D04,0,0,1
1209,-0.09,1644836067.390625,P07,D04,0,0,1
1210,-0.06,1644836067.40625,P07,D04,0,0,1
1211,-0.06,1644836067.421875,P07,D04,0,0,1
1212,-0.08,1644836067.4375,P07,D04,0,0,1
1213,-0.1,1644836067.453125,P07,D04,0,0,1
1214,-0.08,1644836067.46875,P07,D04,0,0,1
1215,-0.0,1644836067.484375,P07,D04,0,0,1
1216,0.12,1644836067.5,P07,D04,0,0,1
1217,0.26,1644836067.515625,P07,D04,0,0,1
1218,0.41,1644836067.53125,P07,D04,0,0,1
1219,0.55,1644836067.546875,P07,D04,0,0,1
1220,0.7,1644836067.5625,P07,D04,0,0,1
1221,0.86,1644836067.578125,P07,D04,0,0,1
1222,1.0,1644836067.59375,P07,D04,0,0,1
1223,1.12,1644836067.609375,P07,D04,0,0,1
1224,1.16,1644836067.625,P07,D04,0,0,1
1225,1.11,1644836067.640625,P07,D04,0,0,1
1226,0.97,1644836067.65625,P07,D04,0,0,1
1227,0.76,1644836067.671875,P07,D04,0,0,1
1228,0.52,1644836067.6875,P07,D04,0,0,1
1229,0.27,1644836067.703125,P07,D04,0,0,1
1230,0.02,1644836067.71875,P07,D04,0,0,1
1231,-0.2,1644836067.734375,P07,D04,0,0,1
1232,-0.39,1644836067.75,P07,D04,0,0,1
1233,-0.54,1644836067.765625,P07,D04,0,0,1
1234,-0.63,1644836067.78125,P07,D04,0,0,1
1235,-0.68,1644836067.796875,P07,D04,0,0,1
1236,-0.75,1644836067.8125,P07,D04,0,0,1
1237,-0.86,1644836067.828125,P07,D04,0,0,1
1238,-1.01,1644836067.84375,P07,D04,0,0,1
1239,-1.18,1644836067.859375,P07,D04,0,0,1
1240,-1.31,1644836067.875,P07,D04,0,0,1
1241,-1.34,1644836067.890625,P07,D04,0,0,1
1242,-1.28,1644836067.90625,P07,D04,0,0,1
1243,-1.14,1644836067.921875,P07,D04,0,0,1
1244,-0.98,1644836067.9375,P07,D04,0,0,1
1245,-0.81,1644836067.953125,P07,D04,0,0,1
1246,-0.63,1644836067.96875,P07,D04,0,0,1
1247,-0.36,1644836067.984375,P07,D04,0,0,1
1248,0.0,1644836068.0,P07,D04,0,0,1
1249,0.44,1644836068.015625,P07,D04,0,0,1
1250,0.88,1644836068.03125,P07,D04,0,0,1
1251,1.2,1644836068.046875,P07,D04,0,0,1
1252,1.39,1644836068.0625,P07,D04,0,0,1
1253,1.46,1644836068.078125,P07,D04,0,0,1
1254,1.52,1644836068.09375,P07,D04,0,0,1
1255,1.67,1644836068.109375,P07,D04,0,0,1
1256,1.96,1644836068.125,P07,D04,0,0,1
1257,2.34,1644836068.140625,P07,D04,0,0,1
1258,2.75,1644836068.15625,P07,D04,0,0,1
1259,3.07,1644836068.171875,P07,D04,0,0,1
1260,3.23,1644836068.1875,P07,D04,0,0,1
1261,3.23,1644836068.203125,P07,D04,0,0,1
1262,3.12,1644836068.21875,P07,D04,0,0,1
1263,2.97,1644836068.234375,P07,D04,0,0,1
1264,2.85,1644836068.25,P07,D04,0,0,1
1265,2.78,1644836068.265625,P07,D04,0,0,1
1266,2.73,1644836068.28125,P07,D04,0,0,1
1267,2.62,1644836068.296875,P07,D04,0,0,1
1268,2.42,1644836068.3125,P07,D04,0,0,1
1269,2.12,1644836068.328125,P07,D04,0,0,1
1270,1.74,1644836068.34375,P07,D04,0,0,1
1271,1.34,1644836068.359375,P07,D04,0,0,1
1272,0.91,1644836068.375,P07,D04,0,0,1
1273,0.43,1644836068.390625,P07,D04,0,0,1
1274,-0.1,1644836068.40625,P07,D04,0,0,1
1275,-0.68,1644836068.421875,P07,D04,0,0,1
1276,-1.23,1644836068.4375,P07,D04,0,0,1
1277,-1.65,1644836068.453125,P07,D04,0,0,1
1278,-1.91,1644836068.46875,P07,D04,0,0,1
1279,-2.03,1644836068.484375,P07,D04,0,0,1
1280,-2.1,1644836068.5,P07,D04,0,0,1
1281,-2.22,1644836068.515625,P07,D04,0,0,1
1282,-2.38,1644836068.53125,P07,D04,0,0,1
1283,-2.54,1644836068.546875,P07,D04,0,0,1
1284,-2.58,1644836068.5625,P07,D04,0,0,1
1285,-2.48,1644836068.578125,P07,D04,0,0,1
1286,-2.27,1644836068.59375,P07,D04,0,0,1
1287,-2.04,1644836068.609375,P07,D04,0,0,1
1288,-1.85,1644836068.625,P07,D04,0,0,1
1289,-1.73,1644836068.640625,P07,D04,0,0,1
1290,-1.67,1644836068.65625,P07,D04,0,0,1
1291,-1.63,1644836068.671875,P07,D04,0,0,1
1292,-1.62,1644836068.6875,P07,D04,0,0,1
1293,-1.67,1644836068.703125,P07,D04,0,0,1
1294,-1.82,1644836068.71875,P07,D04,0,0,1
1295,-2.07,1644836068.734375,P07,D04,0,0,1
1296,-2.34,1644836068.75,P07,D04,0,0,1
1297,-2.55,1644836068.765625,P07,D04,0,0,1
1298,-2.64,1644836068.78125,P07,D04,0,0,1
1299,-2.6,1644836068.796875,P07,D04,0,0,1
1300,-2.45,1644836068.8125,P07,D04,0,0,1
1301,-2.25,1644836068.828125,P07,D04,0,0,1
1302,-2.02,1644836068.84375,P07,D04,0,0,1
1303,-1.76,1644836068.859375,P07,D04,0,0,1
1304,-1.46,1644836068.875,P07,D04,0,0,1
1305,-1.16,1644836068.890625,P07,D04,0,0,1
1306,-0.89,1644836068.90625,P07,D04,0,0,1
1307,-0.71,1644836068.921875,P07,D04,0,0,1
1308,-0.64,1644836068.9375,P07,D04,0,0,1
1309,-0.67,1644836068.953125,P07,D04,0,0,1
1310,-0.76,1644836068.96875,P07,D04,0,0,1
1311,-0.86,1644836068.984375,P07,D04,0,0,1
1312,-0.92,1644836069.0,P07,D04,0,0,1
1313,-0.91,1644836069.015625,P07,D04,0,0,1
1314,-0.81,1644836069.03125,P07,D04,0,0,1
1315,-0.64,1644836069.046875,P07,D04,0,0,1
1316,-0.41,1644836069.0625,P07,D04,0,0,1
1317,-0.18,1644836069.078125,P07,D04,0,0,1
1318,-0.01,1644836069.09375,P07,D04,0,0,1
1319,0.05,1644836069.109375,P07,D04,0,0,1
1320,-0.03,1644836069.125,P07,D04,0,0,1
1321,-0.2,1644836069.140625,P07,D04,0,0,1
1322,-0.37,1644836069.15625,P07,D04,0,0,1
1323,-0.45,1644836069.171875,P07,D04,0,0,1
1324,-0.39,1644836069.1875,P07,D04,0,0,1
1325,-0.19,1644836069.203125,P07,D04,0,0,1
1326,0.08,1644836069.21875,P07,D04,0,0,1
1327,0.34,1644836069.234375,P07,D04,0,0,1
1328,0.54,1644836069.25,P07,D04,0,0,1
1329,0.69,1644836069.265625,P07,D04,0,0,1
1330,0.82,1644836069.28125,P07,D04,0,0,1
1331,0.94,1644836069.296875,P07,D04,0,0,1
1332,1.05,1644836069.3125,P07,D04,0,0,1
1333,1.11,1644836069.328125,P07,D04,0,0,1
1334,1.1,1644836069.34375,P07,D04,0,0,1
1335,1.06,1644836069.359375,P07,D04,0,0,1
1336,1.06,1644836069.375,P07,D04,0,0,1
1337,1.16,1644836069.390625,P07,D04,0,0,1
1338,1.36,1644836069.40625,P07,D04,0,0,1
1339,1.57,1644836069.421875,P07,D04,0,0,1
1340,1.7,1644836069.4375,P07,D04,0,0,1
1341,1.65,1644836069.453125,P07,D04,0,0,1
1342,1.42,1644836069.46875,P07,D04,0,0,1
1343,1.1,1644836069.484375,P07,D04,0,0,1
1344,0.78,1644836069.5,P07,D04,0,0,1
1345,0.48,1644836069.515625,P07,D04,0,0,1
1346,0.15,1644836069.53125,P07,D04,0,0,1
1347,-0.31,1644836069.546875,P07,D04,0,0,1
1348,-0.95,1644836069.5625,P07,D04,0,0,1
1349,-1.71,1644836069.578125,P07,D04,0,0,1
1350,-2.42,1644836069.59375,P07,D04,0,0,1
1351,-2.89,1644836069.609375,P07,D04,0,0,1
1352,-3.02,1644836069.625,P07,D04,0,0,1
1353,-2.85,1644836069.640625,P07,D04,0,0,1
1354,-2.55,1644836069.65625,P07,D04,0,0,1
1355,-2.31,1644836069.671875,P07,D04,0,0,1
1356,-2.2,1644836069.6875,P07,D04,0,0,1
1357,-2.2,1644836069.703125,P07,D04,0,0,1
1358,-2.18,1644836069.71875,P07,D04,0,0,1
1359,-2.02,1644836069.734375,P07,D04,0,0,1
1360,-1.66,1644836069.75,P07,D04,0,0,1
1361,-1.18,1644836069.765625,P07,D04,0,0,1
1362,-0.66,1644836069.78125,P07,D04,0,0,1
1363,-0.2,1644836069.796875,P07,D04,0,0,1
1364,0.2,1644836069.8125,P07,D04,0,0,1
1365,0.56,1644836069.828125,P07,D04,0,0,1
1366,0.89,1644836069.84375,P07,D04,0,0,1
1367,1.19,1644836069.859375,P07,D04,0,0,1
1368,1.41,1644836069.875,P07,D04,0,0,1
1369,1.49,1644836069.890625,P07,D04,0,0,1
1370,1.45,1644836069.90625,P07,D04,0,0,1
1371,1.35,1644836069.921875,P07,D04,0,0,1
1372,1.27,1644836069.9375,P07,D04,0,0,1
1373,1.27,1644836069.953125,P07,D04,0,0,1
1374,1.35,1644836069.96875,P07,D04,0,0,1
1375,1.47,1644836069.984375,P07,D04,0,0,1
1376,1.53,1644836070.0,P07,D04,0,0,1
1377,1.49,1644836070.015625,P07,D04,0,0,1
1378,1.35,1644836070.03125,P07,D04,0,0,1
1379,1.17,1644836070.046875,P07,D04,0,0,1
1380,1.03,1644836070.0625,P07,D04,0,0,1
1381,1.0,1644836070.078125,P07,D04,0,0,1
1382,1.1,1644836070.09375,P07,D04,0,0,1
1383,1.32,1644836070.109375,P07,D04,0,0,1
1384,1.57,1644836070.125,P07,D04,0,0,1
1385,1.78,1644836070.140625,P07,D04,0,0,1
1386,1.92,1644836070.15625,P07,D04,0,0,1
1387,1.95,1644836070.171875,P07,D04,0,0,1
1388,1.89,1644836070.1875,P07,D04,0,0,1
1389,1.77,1644836070.203125,P07,D04,0,0,1
1390,1.64,1644836070.21875,P07,D04,0,0,1
1391,1.52,1644836070.234375,P07,D04,0,0,1
1392,1.46,1644836070.25,P07,D04,0,0,1
1393,1.44,1644836070.265625,P07,D04,0,0,1
1394,1.5,1644836070.28125,P07,D04,0,0,1
1395,1.59,1644836070.296875,P07,D04,0,0,1
1396,1.67,1644836070.3125,P07,D04,0,0,1
1397,1.68,1644836070.328125,P07,D04,0,0,1
1398,1.57,1644836070.34375,P07,D04,0,0,1
1399,1.34,1644836070.359375,P07,D04,0,0,1
1400,1.03,1644836070.375,P07,D04,0,0,1
1401,0.7,1644836070.390625,P07,D04,0,0,1
1402,0.44,1644836070.40625,P07,D04,0,0,1
1403,0.29,1644836070.421875,P07,D04,0,0,1
1404,0.23,1644836070.4375,P07,D04,0,0,1
1405,0.22,1644836070.453125,P07,D04,0,0,1
1406,0.17,1644836070.46875,P07,D04,0,0,1
1407,-0.0,1644836070.484375,P07,D04,0,0,1
1408,-0.3,1644836070.5,P07,D04,0,0,1
1409,-0.7,1644836070.515625,P07,D04,0,0,1
1410,-1.1,1644836070.53125,P07,D04,0,0,1
1411,-1.4,1644836070.546875,P07,D04,0,0,1
1412,-1.54,1644836070.5625,P07,D04,0,0,1
1413,-1.5,1644836070.578125,P07,D04,0,0,1
1414,-1.33,1644836070.59375,P07,D04,0,0,1
1415,-1.1,1644836070.609375,P07,D04,0,0,1
1416,-0.9,1644836070.625,P07,D04,0,0,1
1417,-0.76,1644836070.640625,P07,D04,0,0,1
1418,-0.7,1644836070.65625,P07,D04,0,0,1
1419,-0.69,1644836070.671875,P07,D04,0,0,1
1420,-0.72,1644836070.6875,P07,D04,0,0,1
1421,-0.74,1644836070.703125,P07,D04,0,0,1
1422,-0.72,1644836070.71875,P07,D04,0,0,1
1423,-0.65,1644836070.734375,P07,D04,0,0,1
1424,-0.49,1644836070.75,P07,D04,0,0,1
1425,-0.23,1644836070.765625,P07,D04,0,0,1
1426,0.11,1644836070.78125,P07,D04,0,0,1
1427,0.48,1644836070.796875,P07,D04,0,0,1
1428,0.79,1644836070.8125,P07,D04,0,0,1
1429,0.96,1644836070.828125,P07,D04,0,0,1
1430,0.93,1644836070.84375,P07,D04,0,0,1
1431,0.72,1644836070.859375,P07,D04,0,0,1
1432,0.36,1644836070.875,P07,D04,0,0,1
1433,-0.06,1644836070.890625,P07,D04,0,0,1
1434,-0.46,1644836070.90625,P07,D04,0,0,1
1435,-0.8,1644836070.921875,P07,D04,0,0,1
1436,-1.05,1644836070.9375,P07,D04,0,0,1
1437,-1.17,1644836070.953125,P07,D04,0,0,1
1438,-1.18,1644836070.96875,P07,D04,0,0,1
1439,-1.11,1644836070.984375,P07,D04,0,0,1
1440,-1.01,1644836071.0,P07,D04,0,0,1
1441,-0.94,1644836071.015625,P07,D04,0,0,1
1442,-0.93,1644836071.03125,P07,D04,0,0,1
1443,-0.98,1644836071.046875,P07,D04,0,0,1
1444,-1.04,1644836071.0625,P07,D04,0,0,1
1445,-1.11,1644836071.078125,P07,D04,0,0,1
1446,-1.18,1644836071.09375,P07,D04,0,0,1
1447,-1.27,1644836071.109375,P07,D04,0,0,1
1448,-1.38,1644836071.125,P07,D04,0,0,1
1449,-1.45,1644836071.140625,P07,D04,0,0,1
1450,-1.41,1644836071.15625,P07,D04,0,0,1
1451,-1.22,1644836071.171875,P07,D04,0,0,1
1452,-0.87,1644836071.1875,P07,D04,0,0,1
1453,-0.47,1644836071.203125,P07,D04,0,0,1
1454,-0.11,1644836071.21875,P07,D04,0,0,1
1455,0.13,1644836071.234375,P07,D04,0,0,1
1456,0.25,1644836071.25,P07,D04,0,0,1
1457,0.32,1644836071.265625,P07,D04,0,0,1
1458,0.46,1644836071.28125,P07,D04,0,0,1
1459,0.7,1644836071.296875,P07,D04,0,0,1
1460,1.01,1644836071.3125,P07,D04,0,0,1
1461,1.28,1644836071.328125,P07,D04,0,0,1
1462,1.39,1644836071.34375,P07,D04,0,0,1
1463,1.28,1644836071.359375,P07,D04,0,0,1
1464,1.0,1644836071.375,P07,D04,0,0,1
1465,0.66,1644836071.390625,P07,D04,0,0,1
1466,0.44,1644836071.40625,P07,D04,0,0,1
1467,0.46,1644836071.421875,P07,D04,0,0,1
1468,0.76,1644836071.4375,P07,D04,0,0,1
1469,1.27,1644836071.453125,P07,D04,0,0,1
1470,1.82,1644836071.46875,P07,D04,0,0,1
1471,2.26,1644836071.484375,P07,D04,0,0,1
1472,2.47,1644836071.5,P07,D04,0,0,1
1473,2.49,1644836071.515625,P07,D04,0,0,1
1474,2.39,1644836071.53125,P07,D04,0,0,1
1475,2.28,1644836071.546875,P07,D04,0,0,1
1476,2.25,1644836071.5625,P07,D04,0,0,1
1477,2.27,1644836071.578125,P07,D04,0,0,1
1478,2.28,1644836071.59375,P07,D04,0,0,1
1479,2.17,1644836071.609375,P07,D04,0,0,1
1480,1.91,1644836071.625,P07,D04,0,0,1
1481,1.5,1644836071.640625,P07,D04,0,0,1
1482,1.04,1644836071.65625,P07,D04,0,0,1
1483,0.6,1644836071.671875,P07,D04,0,0,1
1484,0.3,1644836071.6875,P07,D04,0,0,1
1485,0.14,1644836071.703125,P07,D04,0,0,1
1486,0.11,1644836071.71875,P07,D04,0,0,1
1487,0.17,1644836071.734375,P07,D04,0,0,1
1488,0.29,1644836071.75,P07,D04,0,0,1
1489,0.44,1644836071.765625,P07,D04,0,0,1
1490,0.61,1644836071.78125,P07,D04,0,0,1
1491,0.76,1644836071.796875,P07,D04,0,0,1
1492,0.89,1644836071.8125,P07,D04,0,0,1
1493,0.95,1644836071.828125,P07,D04,0,0,1
1494,0.91,1644836071.84375,P07,D04,0,0,1
1495,0.75,1644836071.859375,P07,D04,0,0,1
1496,0.49,1644836071.875,P07,D04,0,0,1
1497,0.15,1644836071.890625,P07,D04,0,0,1
1498,-0.2,1644836071.90625,P07,D04,0,0,1
1499,-0.48,1644836071.921875,P07,D04,0,0,1
1500,-0.62,1644836071.9375,P07,D04,0,0,1
1501,-0.59,1644836071.953125,P07,D04,0,0,1
1502,-0.4,1644836071.96875,P07,D04,0,0,1
1503,-0.1,1644836071.984375,P07,D04,0,0,1
1504,0.19,1644836072.0,P07,D04,0,0,1
1505,0.4,1644836072.015625,P07,D04,0,0,1
1506,0.48,1644836072.03125,P07,D04,0,0,1
1507,0.45,1644836072.046875,P07,D04,0,0,1
1508,0.35,1644836072.0625,P07,D04,0,0,1
1509,0.22,1644836072.078125,P07,D04,0,0,1
1510,0.07,1644836072.09375,P07,D04,0,0,1
1511,-0.13,1644836072.109375,P07,D04,0,0,1
1512,-0.41,1644836072.125,P07,D04,0,0,1
1513,-0.78,1644836072.140625,P07,D04,0,0,1
1514,-1.21,1644836072.15625,P07,D04,0,0,1
1515,-1.69,1644836072.171875,P07,D04,0,0,1
1516,-2.16,1644836072.1875,P07,D04,0,0,1
1517,-2.6,1644836072.203125,P07,D04,0,0,1
1518,-2.98,1644836072.21875,P07,D04,0,0,1
1519,-3.29,1644836072.234375,P07,D04,0,0,1
1520,-3.5,1644836072.25,P07,D04,0,0,1
1521,-3.6,1644836072.265625,P07,D04,0,0,1
1522,-3.59,1644836072.28125,P07,D04,0,0,1
1523,-3.45,1644836072.296875,P07,D04,0,0,1
1524,-3.18,1644836072.3125,P07,D04,0,0,1
1525,-2.78,1644836072.328125,P07,D04,0,0,1
1526,-2.23,1644836072.34375,P07,D04,0,0,1
1527,-1.55,1644836072.359375,P07,D04,0,0,1
1528,-0.81,1644836072.375,P07,D04,0,0,1
1529,-0.1,1644836072.390625,P07,D04,0,0,1
1530,0.42,1644836072.40625,P07,D04,0,0,1
1531,0.67,1644836072.421875,P07,D04,0,0,1
1532,0.63,1644836072.4375,P07,D04,0,0,1
1533,0.39,1644836072.453125,P07,D04,0,0,1
1534,0.12,1644836072.46875,P07,D04,0,0,1
1535,-0.03,1644836072.484375,P07,D04,0,0,1
1536,0.06,1644836072.5,P07,D04,0,0,1
1537,0.38,1644836072.515625,P07,D04,0,0,1
1538,0.8,1644836072.53125,P07,D04,0,0,1
1539,1.22,1644836072.546875,P07,D04,0,0,1
1540,1.51,1644836072.5625,P07,D04,0,0,1
1541,1.66,1644836072.578125,P07,D04,0,0,1
1542,1.72,1644836072.59375,P07,D04,0,0,1
1543,1.75,1644836072.609375,P07,D04,0,0,1
1544,1.79,1644836072.625,P07,D04,0,0,1
1545,1.8,1644836072.640625,P07,D04,0,0,1
1546,1.74,1644836072.65625,P07,D04,0,0,1
1547,1.58,1644836072.671875,P07,D04,0,0,1
1548,1.35,1644836072.6875,P07,D04,0,0,1
1549,1.13,1644836072.703125,P07,D04,0,0,1
1550,0.96,1644836072.71875,P07,D04,0,0,1
1551,0.84,1644836072.734375,P07,D04,0,0,1
1552,0.69,1644836072.75,P07,D04,0,0,1
1553,0.44,1644836072.765625,P07,D04,0,0,1
1554,0.08,1644836072.78125,P07,D04,0,0,1
1555,-0.33,1644836072.796875,P07,D04,0,0,1
1556,-0.66,1644836072.8125,P07,D04,0,0,1
1557,-0.78,1644836072.828125,P07,D04,0,0,1
1558,-0.63,1644836072.84375,P07,D04,0,0,1
1559,-0.29,1644836072.859375,P07,D04,0,0,1
1560,0.11,1644836072.875,P07,D04,0,0,1
1561,0.42,1644836072.890625,P07,D04,0,0,1
1562,0.56,1644836072.90625,P07,D04,0,0,1
1563,0.54,1644836072.921875,P07,D04,0,0,1
1564,0.43,1644836072.9375,P07,D04,0,0,1
1565,0.3,1644836072.953125,P07,D04,0,0,1
1566,0.22,1644836072.96875,P07,D04,0,0,1
1567,0.2,1644836072.984375,P07,D04,0,0,1
1568,0.25,1644836073.0,P07,D04,0,0,1
1569,0.37,1644836073.015625,P07,D04,0,0,1
1570,0.53,1644836073.03125,P07,D04,0,0,1
1571,0.72,1644836073.046875,P07,D04,0,0,1
1572,0.88,1644836073.0625,P07,D04,0,0,1
1573,0.99,1644836073.078125,P07,D04,0,0,1
1574,1.04,1644836073.09375,P07,D04,0,0,1
1575,1.04,1644836073.109375,P07,D04,0,0,1
1576,1.01,1644836073.125,P07,D04,0,0,1
1577,0.96,1644836073.140625,P07,D04,0,0,1
1578,0.85,1644836073.15625,P07,D04,0,0,1
1579,0.67,1644836073.171875,P07,D04,0,0,1
1580,0.42,1644836073.1875,P07,D04,0,0,1
1581,0.14,1644836073.203125,P07,D04,0,0,1
1582,-0.09,1644836073.21875,P07,D04,0,0,1
1583,-0.25,1644836073.234375,P07,D04,0,0,1
1584,-0.34,1644836073.25,P07,D04,0,0,1
1585,-0.43,1644836073.265625,P07,D04,0,0,1
1586,-0.58,1644836073.28125,P07,D04,0,0,1
1587,-0.79,1644836073.296875,P07,D04,0,0,1
1588,-1.01,1644836073.3125,P07,D04,0,0,1
1589,-1.18,1644836073.328125,P07,D04,0,0,1
1590,-1.24,1644836073.34375,P07,D04,0,0,1
1591,-1.2,1644836073.359375,P07,D04,0,0,1
1592,-1.13,1644836073.375,P07,D04,0,0,1
1593,-1.06,1644836073.390625,P07,D04,0,0,1
1594,-1.06,1644836073.40625,P07,D04,0,0,1
1595,-1.14,1644836073.421875,P07,D04,0,0,1
1596,-1.27,1644836073.4375,P07,D04,0,0,1
1597,-1.37,1644836073.453125,P07,D04,0,0,1
1598,-1.35,1644836073.46875,P07,D04,0,0,1
1599,-1.15,1644836073.484375,P07,D04,0,0,1
1600,-0.78,1644836073.5,P07,D04,0,0,1
1601,-0.31,1644836073.515625,P07,D04,0,0,1
1602,0.13,1644836073.53125,P07,D04,0,0,1
1603,0.42,1644836073.546875,P07,D04,0,0,1
1604,0.51,1644836073.5625,P07,D04,0,0,1
1605,0.44,1644836073.578125,P07,D04,0,0,1
1606,0.25,1644836073.59375,P07,D04,0,0,1
1607,-0.02,1644836073.609375,P07,D04,0,0,1
1608,-0.34,1644836073.625,P07,D04,0,0,1
1609,-0.72,1644836073.640625,P07,D04,0,0,1
1610,-1.1,1644836073.65625,P07,D04,0,0,1
1611,-1.37,1644836073.671875,P07,D04,0,0,1
1612,-1.43,1644836073.6875,P07,D04,0,0,1
1613,-1.27,1644836073.703125,P07,D04,0,0,1
1614,-1.02,1644836073.71875,P07,D04,0,0,1
1615,-0.87,1644836073.734375,P07,D04,0,0,1
1616,-0.96,1644836073.75,P07,D04,0,0,1
1617,-1.31,1644836073.765625,P07,D04,0,0,1
1618,-1.81,1644836073.78125,P07,D04,0,0,1
1619,-2.3,1644836073.796875,P07,D04,0,0,1
1620,-2.67,1644836073.8125,P07,D04,0,0,1
1621,-2.91,1644836073.828125,P07,D04,0,0,1
1622,-3.07,1644836073.84375,P07,D04,0,0,1
1623,-3.17,1644836073.859375,P07,D04,0,0,1
1624,-3.17,1644836073.875,P07,D04,0,0,1
1625,-2.98,1644836073.890625,P07,D04,0,0,1
1626,-2.51,1644836073.90625,P07,D04,0,0,1
1627,-1.79,1644836073.921875,P07,D04,0,0,1
1628,-0.96,1644836073.9375,P07,D04,0,0,1
1629,-0.22,1644836073.953125,P07,D04,0,0,1
1630,0.27,1644836073.96875,P07,D04,0,0,1
1631,0.45,1644836073.984375,P07,D04,0,0,1
1632,0.39,1644836074.0,P07,D04,0,0,1
1633,0.25,1644836074.015625,P07,D04,0,0,1
1634,0.19,1644836074.03125,P07,D04,0,0,1
1635,0.28,1644836074.046875,P07,D04,0,0,1
1636,0.54,1644836074.0625,P07,D04,0,0,1
1637,0.89,1644836074.078125,P07,D04,0,0,1
1638,1.23,1644836074.09375,P07,D04,0,0,1
1639,1.49,1644836074.109375,P07,D04,0,0,1
1640,1.63,1644836074.125,P07,D04,0,0,1
1641,1.67,1644836074.140625,P07,D04,0,0,1
1642,1.65,1644836074.15625,P07,D04,0,0,1
1643,1.61,1644836074.171875,P07,D04,0,0,1
1644,1.57,1644836074.1875,P07,D04,0,0,1
1645,1.52,1644836074.203125,P07,D04,0,0,1
1646,1.45,1644836074.21875,P07,D04,0,0,1
1647,1.33,1644836074.234375,P07,D04,0,0,1
1648,1.18,1644836074.25,P07,D04,0,0,1
1649,1.04,1644836074.265625,P07,D04,0,0,1
1650,0.96,1644836074.28125,P07,D04,0,0,1
1651,0.98,1644836074.296875,P07,D04,0,0,1
1652,1.07,1644836074.3125,P07,D04,0,0,1
1653,1.19,1644836074.328125,P07,D04,0,0,1
1654,1.29,1644836074.34375,P07,D04,0,0,1
1655,1.33,1644836074.359375,P07,D04,0,0,1
1656,1.34,1644836074.375,P07,D04,0,0,1
1657,1.34,1644836074.390625,P07,D04,0,0,1
1658,1.36,1644836074.40625,P07,D04,0,0,1
1659,1.41,1644836074.421875,P07,D04,0,0,1
1660,1.43,1644836074.4375,P07,D04,0,0,1
1661,1.36,1644836074.453125,P07,D04,0,0,1
1662,1.14,1644836074.46875,P07,D04,0,0,1
1663,0.74,1644836074.484375,P07,D04,0,0,1
1664,0.2,1644836074.5,P07,D04,0,0,1
1665,-0.4,1644836074.515625,P07,D04,0,0,1
1666,-0.91,1644836074.53125,P07,D04,0,0,1
1667,-1.24,1644836074.546875,P07,D04,0,0,1
1668,-1.32,1644836074.5625,P07,D04,0,0,1
1669,-1.14,1644836074.578125,P07,D04,0,0,1
1670,-0.77,1644836074.59375,P07,D04,0,0,1
1671,-0.29,1644836074.609375,P07,D04,0,0,1
1672,0.19,1644836074.625,P07,D04,0,0,1
1673,0.58,1644836074.640625,P07,D04,0,0,1
1674,0.8,1644836074.65625,P07,D04,0,0,1
1675,0.83,1644836074.671875,P07,D04,0,0,1
1676,0.68,1644836074.6875,P07,D04,0,0,1
1677,0.4,1644836074.703125,P07,D04,0,0,1
1678,0.08,1644836074.71875,P07,D04,0,0,1
1679,-0.16,1644836074.734375,P07,D04,0,0,1
1680,-0.27,1644836074.75,P07,D04,0,0,1
1681,-0.21,1644836074.765625,P07,D04,0,0,1
1682,-0.03,1644836074.78125,P07,D04,0,0,1
1683,0.18,1644836074.796875,P07,D04,0,0,1
1684,0.36,1644836074.8125,P07,D04,0,0,1
1685,0.47,1644836074.828125,P07,D04,0,0,1
1686,0.55,1644836074.84375,P07,D04,0,0,1
1687,0.66,1644836074.859375,P07,D04,0,0,1
1688,0.85,1644836074.875,P07,D04,0,0,1
1689,1.11,1644836074.890625,P07,D04,0,0,1
1690,1.39,1644836074.90625,P07,D04,0,0,1
1691,1.6,1644836074.921875,P07,D04,0,0,1
1692,1.66,1644836074.9375,P07,D04,0,0,1
1693,1.58,1644836074.953125,P07,D04,0,0,1
1694,1.4,1644836074.96875,P07,D04,0,0,1
1695,1.21,1644836074.984375,P07,D04,0,0,1
1696,1.05,1644836075.0,P07,D04,0,0,1
1697,0.95,1644836075.015625,P07,D04,0,0,1
1698,0.88,1644836075.03125,P07,D04,0,0,1
1699,0.82,1644836075.046875,P07,D04,0,0,1
1700,0.74,1644836075.0625,P07,D04,0,0,1
1701,0.64,1644836075.078125,P07,D04,0,0,1
1702,0.5,1644836075.09375,P07,D04,0,0,1
1703,0.31,1644836075.109375,P07,D04,0,0,1
1704,0.03,1644836075.125,P07,D04,0,0,1
1705,-0.32,1644836075.140625,P07,D04,0,0,1
1706,-0.68,1644836075.15625,P07,D04,0,0,1
1707,-0.94,1644836075.171875,P07,D04,0,0,1
1708,-0.98,1644836075.1875,P07,D04,0,0,1
1709,-0.76,1644836075.203125,P07,D04,0,0,1
1710,-0.35,1644836075.21875,P07,D04,0,0,1
1711,0.1,1644836075.234375,P07,D04,0,0,1
1712,0.4,1644836075.25,P07,D04,0,0,1
1713,0.47,1644836075.265625,P07,D04,0,0,1
1714,0.29,1644836075.28125,P07,D04,0,0,1
1715,-0.01,1644836075.296875,P07,D04,0,0,1
1716,-0.34,1644836075.3125,P07,D04,0,0,1
1717,-0.63,1644836075.328125,P07,D04,0,0,1
1718,-0.89,1644836075.34375,P07,D04,0,0,1
1719,-1.21,1644836075.359375,P07,D04,0,0,1
1720,-1.62,1644836075.375,P07,D04,0,0,1
1721,-2.05,1644836075.390625,P07,D04,0,0,1
1722,-2.39,1644836075.40625,P07,D04,0,0,1
1723,-2.51,1644836075.421875,P07,D04,0,0,1
1724,-2.37,1644836075.4375,P07,D04,0,0,1
1725,-2.04,1644836075.453125,P07,D04,0,0,1
1726,-1.66,1644836075.46875,P07,D04,0,0,1
1727,-1.33,1644836075.484375,P07,D04,0,0,1
1728,-1.06,1644836075.5,P07,D04,0,0,1
1729,-0.79,1644836075.515625,P07,D04,0,0,1
1730,-0.44,1644836075.53125,P07,D04,0,0,1
1731,0.01,1644836075.546875,P07,D04,0,0,1
1732,0.45,1644836075.5625,P07,D04,0,0,1
1733,0.73,1644836075.578125,P07,D04,0,0,1
1734,0.73,1644836075.59375,P07,D04,0,0,1
1735,0.46,1644836075.609375,P07,D04,0,0,1
1736,0.05,1644836075.625,P07,D04,0,0,1
1737,-0.27,1644836075.640625,P07,D04,0,0,1
1738,-0.38,1644836075.65625,P07,D04,0,0,1
1739,-0.25,1644836075.671875,P07,D04,0,0,1
1740,0.01,1644836075.6875,P07,D04,0,0,1
1741,0.25,1644836075.703125,P07,D04,0,0,1
1742,0.35,1644836075.71875,P07,D04,0,0,1
1743,0.28,1644836075.734375,P07,D04,0,0,1
1744,0.11,1644836075.75,P07,D04,0,0,1
1745,-0.08,1644836075.765625,P07,D04,0,0,1
1746,-0.21,1644836075.78125,P07,D04,0,0,1
1747,-0.26,1644836075.796875,P07,D04,0,0,1
1748,-0.24,1644836075.8125,P07,D04,0,0,1
1749,-0.2,1644836075.828125,P07,D04,0,0,1
1750,-0.17,1644836075.84375,P07,D04,0,0,1
1751,-0.15,1644836075.859375,P07,D04,0,0,1
1752,-0.14,1644836075.875,P07,D04,0,0,1
1753,-0.1,1644836075.890625,P07,D04,0,0,1
1754,-0.03,1644836075.90625,P07,D04,0,0,1
1755,0.07,1644836075.921875,P07,D04,0,0,1
1756,0.15,1644836075.9375,P07,D04,0,0,1
1757,0.13,1644836075.953125,P07,D04,0,0,1
1758,-0.04,1644836075.96875,P07,D04,0,0,1
1759,-0.4,1644836075.984375,P07,D04,0,0,1
1760,-0.87,1644836076.0,P07,D04,0,0,1
1761,-1.33,1644836076.015625,P07,D04,0,0,1
1762,-1.65,1644836076.03125,P07,D04,0,0,1
1763,-1.74,1644836076.046875,P07,D04,0,0,1
1764,-1.6,1644836076.0625,P07,D04,0,0,1
1765,-1.36,1644836076.078125,P07,D04,0,0,1
1766,-1.16,1644836076.09375,P07,D04,0,0,1
1767,-1.08,1644836076.109375,P07,D04,0,0,1
1768,-1.11,1644836076.125,P07,D04,0,0,1
1769,-1.17,1644836076.140625,P07,D04,0,0,1
1770,-1.12,1644836076.15625,P07,D04,0,0,1
1771,-0.9,1644836076.171875,P07,D04,0,0,1
1772,-0.54,1644836076.1875,P07,D04,0,0,1
1773,-0.17,1644836076.203125,P07,D04,0,0,1
1774,0.09,1644836076.21875,P07,D04,0,0,1
1775,0.14,1644836076.234375,P07,D04,0,0,1
1776,-0.01,1644836076.25,P07,D04,0,0,1
1777,-0.3,1644836076.265625,P07,D04,0,0,1
1778,-0.6,1644836076.28125,P07,D04,0,0,1
1779,-0.84,1644836076.296875,P07,D04,0,0,1
1780,-0.97,1644836076.3125,P07,D04,0,0,1
1781,-1.01,1644836076.328125,P07,D04,0,0,1
1782,-1.0,1644836076.34375,P07,D04,0,0,1
1783,-0.95,1644836076.359375,P07,D04,0,0,1
1784,-0.87,1644836076.375,P07,D04,0,0,1
1785,-0.73,1644836076.390625,P07,D04,0,0,1
1786,-0.53,1644836076.40625,P07,D04,0,0,1
1787,-0.28,1644836076.421875,P07,D04,0,0,1
1788,-0.01,1644836076.4375,P07,D04,0,0,1
1789,0.22,1644836076.453125,P07,D04,0,0,1
1790,0.4,1644836076.46875,P07,D04,0,0,1
1791,0.53,1644836076.484375,P07,D04,0,0,1
1792,0.68,1644836076.5,P07,D04,0,0,1
1793,0.88,1644836076.515625,P07,D04,0,0,1
1794,1.15,1644836076.53125,P07,D04,0,0,1
1795,1.42,1644836076.546875,P07,D04,0,0,1
1796,1.61,1644836076.5625,P07,D04,0,0,1
1797,1.67,1644836076.578125,P07,D04,0,0,1
1798,1.62,1644836076.59375,P07,D04,0,0,1
1799,1.58,1644836076.609375,P07,D04,0,0,1
1800,1.64,1644836076.625,P07,D04,0,0,1
1801,1.87,1644836076.640625,P07,D04,0,0,1
1802,2.23,1644836076.65625,P07,D04,0,0,1
1803,2.61,1644836076.671875,P07,D04,0,0,1
1804,2.9,1644836076.6875,P07,D04,0,0,1
1805,3.02,1644836076.703125,P07,D04,0,0,1
1806,2.98,1644836076.71875,P07,D04,0,0,1
1807,2.85,1644836076.734375,P07,D04,0,0,1
1808,2.71,1644836076.75,P07,D04,0,0,1
1809,2.6,1644836076.765625,P07,D04,0,0,1
1810,2.53,1644836076.78125,P07,D04,0,0,1
1811,2.46,1644836076.796875,P07,D04,0,0,1
1812,2.4,1644836076.8125,P07,D04,0,0,1
1813,2.37,1644836076.828125,P07,D04,0,0,1
1814,2.42,1644836076.84375,P07,D04,0,0,1
1815,2.62,1644836076.859375,P07,D04,0,0,1
1816,2.95,1644836076.875,P07,D04,0,0,1
1817,3.32,1644836076.890625,P07,D04,0,0,1
1818,3.61,1644836076.90625,P07,D04,0,0,1
1819,3.68,1644836076.921875,P07,D04,0,0,1
1820,3.46,1644836076.9375,P07,D04,0,0,1
1821,2.93,1644836076.953125,P07,D04,0,0,1
1822,2.15,1644836076.96875,P07,D04,0,0,1
1823,1.24,1644836076.984375,P07,D04,0,0,1
1824,0.36,1644836077.0,P07,D04,0,0,1
1825,-0.37,1644836077.015625,P07,D04,0,0,1
1826,-0.87,1644836077.03125,P07,D04,0,0,1
1827,-1.15,1644836077.046875,P07,D04,0,0,1
1828,-1.26,1644836077.0625,P07,D04,0,0,1
1829,-1.32,1644836077.078125,P07,D04,0,0,1
1830,-1.43,1644836077.09375,P07,D04,0,0,1
1831,-1.6,1644836077.109375,P07,D04,0,0,1
1832,-1.81,1644836077.125,P07,D04,0,0,1
1833,-1.98,1644836077.140625,P07,D04,0,0,1
1834,-2.08,1644836077.15625,P07,D04,0,0,1
1835,-2.1,1644836077.171875,P07,D04,0,0,1
1836,-2.14,1644836077.1875,P07,D04,0,0,1
1837,-2.31,1644836077.203125,P07,D04,0,0,1
1838,-2.65,1644836077.21875,P07,D04,0,0,1
1839,-3.14,1644836077.234375,P07,D04,0,0,1
1840,-3.67,1644836077.25,P07,D04,0,0,1
1841,-4.11,1644836077.265625,P07,D04,0,0,1
1842,-4.38,1644836077.28125,P07,D04,0,0,1
1843,-4.49,1644836077.296875,P07,D04,0,0,1
1844,-4.45,1644836077.3125,P07,D04,0,0,1
1845,-4.3,1644836077.328125,P07,D04,0,0,1
1846,-4.05,1644836077.34375,P07,D04,0,0,1
1847,-3.66,1644836077.359375,P07,D04,0,0,1
1848,-3.12,1644836077.375,P07,D04,0,0,1
1849,-2.47,1644836077.390625,P07,D04,0,0,1
1850,-1.76,1644836077.40625,P07,D04,0,0,1
1851,-1.12,1644836077.421875,P07,D04,0,0,1
1852,-0.62,1644836077.4375,P07,D04,0,0,1
1853,-0.3,1644836077.453125,P07,D04,0,0,1
1854,-0.15,1644836077.46875,P07,D04,0,0,1
1855,-0.1,1644836077.484375,P07,D04,0,0,1
1856,-0.09,1644836077.5,P07,D04,0,0,1
1857,-0.08,1644836077.515625,P07,D04,0,0,1
1858,-0.05,1644836077.53125,P07,D04,0,0,1
1859,-0.0,1644836077.546875,P07,D04,0,0,1
1860,0.04,1644836077.5625,P07,D04,0,0,1
1861,0.06,1644836077.578125,P07,D04,0,0,1
1862,0.04,1644836077.59375,P07,D04,0,0,1
1863,-0.0,1644836077.609375,P07,D04,0,0,1
1864,-0.07,1644836077.625,P07,D04,0,0,1
1865,-0.13,1644836077.640625,P07,D04,0,0,1
1866,-0.16,1644836077.65625,P07,D04,0,0,1
1867,-0.11,1644836077.671875,P07,D04,0,0,1
1868,0.02,1644836077.6875,P07,D04,0,0,1
1869,0.25,1644836077.703125,P07,D04,0,0,1
1870,0.52,1644836077.71875,P07,D04,0,0,1
1871,0.81,1644836077.734375,P07,D04,0,0,1
1872,1.05,1644836077.75,P07,D04,0,0,1
1873,1.2,1644836077.765625,P07,D04,0,0,1
1874,1.23,1644836077.78125,P07,D04,0,0,1
1875,1.15,1644836077.796875,P07,D04,0,0,1
1876,0.96,1644836077.8125,P07,D04,0,0,1
1877,0.71,1644836077.828125,P07,D04,0,0,1
1878,0.48,1644836077.84375,P07,D04,0,0,1
1879,0.32,1644836077.859375,P07,D04,0,0,1
1880,0.31,1644836077.875,P07,D04,0,0,1
1881,0.47,1644836077.890625,P07,D04,0,0,1
1882,0.77,1644836077.90625,P07,D04,0,0,1
1883,1.08,1644836077.921875,P07,D04,0,0,1
1884,1.27,1644836077.9375,P07,D04,0,0,1
1885,1.24,1644836077.953125,P07,D04,0,0,1
1886,1.0,1644836077.96875,P07,D04,0,0,1
1887,0.66,1644836077.984375,P07,D04,0,0,1
1888,0.34,1644836078.0,P07,D04,0,0,1
1889,0.16,1644836078.015625,P07,D04,0,0,1
1890,0.14,1644836078.03125,P07,D04,0,0,1
1891,0.21,1644836078.046875,P07,D04,0,0,1
1892,0.3,1644836078.0625,P07,D04,0,0,1
1893,0.36,1644836078.078125,P07,D04,0,0,1
1894,0.41,1644836078.09375,P07,D04,0,0,1
1895,0.49,1644836078.109375,P07,D04,0,0,1
1896,0.64,1644836078.125,P07,D04,0,0,1
1897,0.81,1644836078.140625,P07,D04,0,0,1
1898,0.97,1644836078.15625,P07,D04,0,0,1
1899,1.06,1644836078.171875,P07,D04,0,0,1
1900,1.08,1644836078.1875,P07,D04,0,0,1
1901,1.08,1644836078.203125,P07,D04,0,0,1
1902,1.09,1644836078.21875,P07,D04,0,0,1
1903,1.16,1644836078.234375,P07,D04,0,0,1
1904,1.26,1644836078.25,P07,D04,0,0,1
1905,1.35,1644836078.265625,P07,D04,0,0,1
1906,1.36,1644836078.28125,P07,D04,0,0,1
1907,1.26,1644836078.296875,P07,D04,0,0,1
1908,1.03,1644836078.3125,P07,D04,0,0,1
1909,0.69,1644836078.328125,P07,D04,0,0,1
1910,0.3,1644836078.34375,P07,D04,0,0,1
1911,-0.1,1644836078.359375,P07,D04,0,0,1
1912,-0.45,1644836078.375,P07,D04,0,0,1
1913,-0.69,1644836078.390625,P07,D04,0,0,1
1914,-0.79,1644836078.40625,P07,D04,0,0,1
1915,-0.74,1644836078.421875,P07,D04,0,0,1
1916,-0.57,1644836078.4375,P07,D04,0,0,1
1917,-0.35,1644836078.453125,P07,D04,0,0,1
1918,-0.11,1644836078.46875,P07,D04,0,0,1
1919,0.1,1644836078.484375,P07,D04,0,0,1
1920,0.25,1644836078.5,P07,D04,0,0,1
1921,0.33,1644836078.515625,P07,D04,0,0,1
1922,0.3,1644836078.53125,P07,D04,0,0,1
1923,0.18,1644836078.546875,P07,D04,0,0,1
1924,-0.02,1644836078.5625,P07,D04,0,0,1
1925,-0.22,1644836078.578125,P07,D04,0,0,1
1926,-0.31,1644836078.59375,P07,D04,0,0,1
1927,-0.2,1644836078.609375,P07,D04,0,0,1
1928,0.12,1644836078.625,P07,D04,0,0,1
1929,0.57,1644836078.640625,P07,D04,0,0,1
1930,1.02,1644836078.65625,P07,D04,0,0,1
1931,1.34,1644836078.671875,P07,D04,0,0,1
1932,1.43,1644836078.6875,P07,D04,0,0,1
1933,1.31,1644836078.703125,P07,D04,0,0,1
1934,1.04,1644836078.71875,P07,D04,0,0,1
1935,0.69,1644836078.734375,P07,D04,0,0,1
1936,0.33,1644836078.75,P07,D04,0,0,1
1937,0.0,1644836078.765625,P07,D04,0,0,1
1938,-0.25,1644836078.78125,P07,D04,0,0,1
1939,-0.34,1644836078.796875,P07,D04,0,0,1
1940,-0.21,1644836078.8125,P07,D04,0,0,1
1941,0.15,1644836078.828125,P07,D04,0,0,1
1942,0.65,1644836078.84375,P07,D04,0,0,1
1943,1.08,1644836078.859375,P07,D04,0,0,1
1944,1.23,1644836078.875,P07,D04,0,0,1
1945,0.96,1644836078.890625,P07,D04,0,0,1
1946,0.31,1644836078.90625,P07,D04,0,0,1
1947,-0.52,1644836078.921875,P07,D04,0,0,1
1948,-1.21,1644836078.9375,P07,D04,0,0,1
1949,-1.49,1644836078.953125,P07,D04,0,0,1
1950,-1.29,1644836078.96875,P07,D04,0,0,1
1951,-0.71,1644836078.984375,P07,D04,0,0,1
1952,-0.0,1644836079.0,P07,D04,0,0,1
1953,0.56,1644836079.015625,P07,D04,0,0,1
1954,0.85,1644836079.03125,P07,D04,0,0,1
1955,0.9,1644836079.046875,P07,D04,0,0,1
1956,0.88,1644836079.0625,P07,D04,0,0,1
1957,0.93,1644836079.078125,P07,D04,0,0,1
1958,1.13,1644836079.09375,P07,D04,0,0,1
1959,1.39,1644836079.109375,P07,D04,0,0,1
1960,1.58,1644836079.125,P07,D04,0,0,1
1961,1.59,1644836079.140625,P07,D04,0,0,1
1962,1.4,1644836079.15625,P07,D04,0,0,1
1963,1.12,1644836079.171875,P07,D04,0,0,1
1964,0.85,1644836079.1875,P07,D04,0,0,1
1965,0.7,1644836079.203125,P07,D04,0,0,1
1966,0.67,1644836079.21875,P07,D04,0,0,1
1967,0.7,1644836079.234375,P07,D04,0,0,1
1968,0.7,1644836079.25,P07,D04,0,0,1
1969,0.59,1644836079.265625,P07,D04,0,0,1
1970,0.34,1644836079.28125,P07,D04,0,0,1
1971,-0.01,1644836079.296875,P07,D04,0,0,1
1972,-0.38,1644836079.3125,P07,D04,0,0,1
1973,-0.72,1644836079.328125,P07,D04,0,0,1
1974,-0.99,1644836079.34375,P07,D04,0,0,1
1975,-1.19,1644836079.359375,P07,D04,0,0,1
1976,-1.33,1644836079.375,P07,D04,0,0,1
1977,-1.4,1644836079.390625,P07,D04,0,0,1
1978,-1.4,1644836079.40625,P07,D04,0,0,1
1979,-1.34,1644836079.421875,P07,D04,0,0,1
1980,-1.22,1644836079.4375,P07,D04,0,0,1
1981,-1.11,1644836079.453125,P07,D04,0,0,1
1982,-1.03,1644836079.46875,P07,D04,0,0,1
1983,-1.03,1644836079.484375,P07,D04,0,0,1
1984,-1.11,1644836079.5,P07,D04,0,0,1
1985,-1.21,1644836079.515625,P07,D04,0,0,1
1986,-1.3,1644836079.53125,P07,D04,0,0,1
1987,-1.38,1644836079.546875,P07,D04,0,0,1
1988,-1.46,1644836079.5625,P07,D04,0,0,1
1989,-1.57,1644836079.578125,P07,D04,0,0,1
1990,-1.71,1644836079.59375,P07,D04,0,0,1
1991,-1.86,1644836079.609375,P07,D04,0,0,1
1992,-1.96,1644836079.625,P07,D04,0,0,1
1993,-1.99,1644836079.640625,P07,D04,0,0,1
1994,-1.96,1644836079.65625,P07,D04,0,0,1
1995,-1.88,1644836079.671875,P07,D04,0,0,1
1996,-1.8,1644836079.6875,P07,D04,0,0,1
1997,-1.7,1644836079.703125,P07,D04,0,0,1
1998,-1.6,1644836079.71875,P07,D04,0,0,1
1999,-1.46,1644836079.734375,P07,D04,0,0,1
2000,-1.28,1644836079.75,P07,D04,0,0,1
2001,-1.07,1644836079.765625,P07,D04,0,0,1
2002,-0.85,1644836079.78125,P07,D04,0,0,1
2003,-0.63,1644836079.796875,P07,D04,0,0,1
2004,-0.5,1644836079.8125,P07,D04,0,0,1
2005,-0.48,1644836079.828125,P07,D04,0,0,1
2006,-0.64,1644836079.84375,P07,D04,0,0,1
2007,-0.97,1644836079.859375,P07,D04,0,0,1
2008,-1.45,1644836079.875,P07,D04,0,0,1
2009,-1.96,1644836079.890625,P07,D04,0,0,1
2010,-2.41,1644836079.90625,P07,D04,0,0,1
2011,-2.72,1644836079.921875,P07,D04,0,0,1
2012,-2.85,1644836079.9375,P07,D04,0,0,1
2013,-2.83,1644836079.953125,P07,D04,0,0,1
2014,-2.69,1644836079.96875,P07,D04,0,0,1
2015,-2.46,1644836079.984375,P07,D04,0,0,1
2016,-2.14,1644836080.0,P07,D04,0,0,1
2017,-1.76,1644836080.015625,P07,D04,0,0,1
2018,-1.33,1644836080.03125,P07,D04,0,0,1
2019,-0.89,1644836080.046875,P07,D04,0,0,1
2020,-0.48,1644836080.0625,P07,D04,0,0,1
2021,-0.1,1644836080.078125,P07,D04,0,0,1
2022,0.25,1644836080.09375,P07,D04,0,0,1
2023,0.64,1644836080.109375,P07,D04,0,0,1
2024,1.07,1644836080.125,P07,D04,0,0,1
2025,1.51,1644836080.140625,P07,D04,0,0,1
2026,1.87,1644836080.15625,P07,D04,0,0,1
2027,2.06,1644836080.171875,P07,D04,0,0,1
2028,2.03,1644836080.1875,P07,D04,0,0,1
2029,1.82,1644836080.203125,P07,D04,0,0,1
2030,1.56,1644836080.21875,P07,D04,0,0,1
2031,1.36,1644836080.234375,P07,D04,0,0,1
2032,1.31,1644836080.25,P07,D04,0,0,1
2033,1.39,1644836080.265625,P07,D04,0,0,1
2034,1.51,1644836080.28125,P07,D04,0,0,1
2035,1.58,1644836080.296875,P07,D04,0,0,1
2036,1.55,1644836080.3125,P07,D04,0,0,1
2037,1.46,1644836080.328125,P07,D04,0,0,1
2038,1.38,1644836080.34375,P07,D04,0,0,1
2039,1.36,1644836080.359375,P07,D04,0,0,1
2040,1.43,1644836080.375,P07,D04,0,0,1
2041,1.57,1644836080.390625,P07,D04,0,0,1
2042,1.71,1644836080.40625,P07,D04,0,0,1
2043,1.81,1644836080.421875,P07,D04,0,0,1
2044,1.85,1644836080.4375,P07,D04,0,0,1
2045,1.83,1644836080.453125,P07,D04,0,0,1
2046,1.76,1644836080.46875,P07,D04,0,0,1
2047,1.65,1644836080.484375,P07,D04,0,0,1
2048,1.52,1644836080.5,P07,D04,0,0,1
2049,1.34,1644836080.515625,P07,D04,0,0,1
2050,1.1,1644836080.53125,P07,D04,0,0,1
2051,0.78,1644836080.546875,P07,D04,0,0,1
2052,0.38,1644836080.5625,P07,D04,0,0,1
2053,-0.06,1644836080.578125,P07,D04,0,0,1
2054,-0.49,1644836080.59375,P07,D04,0,0,1
2055,-0.83,1644836080.609375,P07,D04,0,0,1
2056,-1.01,1644836080.625,P07,D04,0,0,1
2057,-1.01,1644836080.640625,P07,D04,0,0,1
2058,-0.82,1644836080.65625,P07,D04,0,0,1
2059,-0.5,1644836080.671875,P07,D04,0,0,1
2060,-0.12,1644836080.6875,P07,D04,0,0,1
2061,0.24,1644836080.703125,P07,D04,0,0,1
2062,0.51,1644836080.71875,P07,D04,0,0,1
2063,0.65,1644836080.734375,P07,D04,0,0,1
2064,0.65,1644836080.75,P07,D04,0,0,1
2065,0.57,1644836080.765625,P07,D04,0,0,1
2066,0.52,1644836080.78125,P07,D04,0,0,1
2067,0.56,1644836080.796875,P07,D04,0,0,1
2068,0.73,1644836080.8125,P07,D04,0,0,1
2069,0.99,1644836080.828125,P07,D04,0,0,1
2070,1.24,1644836080.84375,P07,D04,0,0,1
2071,1.42,1644836080.859375,P07,D04,0,0,1
2072,1.49,1644836080.875,P07,D04,0,0,1
2073,1.52,1644836080.890625,P07,D04,0,0,1
2074,1.59,1644836080.90625,P07,D04,0,0,1
2075,1.76,1644836080.921875,P07,D04,0,0,1
2076,1.98,1644836080.9375,P07,D04,0,0,1
2077,2.16,1644836080.953125,P07,D04,0,0,1
2078,2.15,1644836080.96875,P07,D04,0,0,1
2079,1.89,1644836080.984375,P07,D04,0,0,1
2080,1.43,1644836081.0,P07,D04,0,0,1
2081,0.91,1644836081.015625,P07,D04,0,0,1
2082,0.48,1644836081.03125,P07,D04,0,0,1
2083,0.19,1644836081.046875,P07,D04,0,0,1
2084,0.03,1644836081.0625,P07,D04,0,0,1
2085,-0.14,1644836081.078125,P07,D04,0,0,1
2086,-0.41,1644836081.09375,P07,D04,0,0,1
2087,-0.79,1644836081.109375,P07,D04,0,0,1
2088,-1.22,1644836081.125,P07,D04,0,0,1
2089,-1.59,1644836081.140625,P07,D04,0,0,1
2090,-1.83,1644836081.15625,P07,D04,0,0,1
2091,-1.95,1644836081.171875,P07,D04,0,0,1
2092,-2.01,1644836081.1875,P07,D04,0,0,1
2093,-2.09,1644836081.203125,P07,D04,0,0,1
2094,-2.21,1644836081.21875,P07,D04,0,0,1
2095,-2.34,1644836081.234375,P07,D04,0,0,1
2096,-2.42,1644836081.25,P07,D04,0,0,1
2097,-2.4,1644836081.265625,P07,D04,0,0,1
2098,-2.25,1644836081.28125,P07,D04,0,0,1
2099,-1.99,1644836081.296875,P07,D04,0,0,1
2100,-1.6,1644836081.3125,P07,D04,0,0,1
2101,-1.11,1644836081.328125,P07,D04,0,0,1
2102,-0.55,1644836081.34375,P07,D04,0,0,1
2103,-0.02,1644836081.359375,P07,D04,0,0,1
2104,0.33,1644836081.375,P07,D04,0,0,1
2105,0.39,1644836081.390625,P07,D04,0,0,1
2106,0.16,1644836081.40625,P07,D04,0,0,1
2107,-0.22,1644836081.421875,P07,D04,0,0,1
2108,-0.52,1644836081.4375,P07,D04,0,0,1
2109,-0.54,1644836081.453125,P07,D04,0,0,1
2110,-0.22,1644836081.46875,P07,D04,0,0,1
2111,0.32,1644836081.484375,P07,D04,0,0,1
2112,0.86,1644836081.5,P07,D04,0,0,1
2113,1.21,1644836081.515625,P07,D04,0,0,1
2114,1.28,1644836081.53125,P07,D04,0,0,1
2115,1.13,1644836081.546875,P07,D04,0,0,1
2116,0.9,1644836081.5625,P07,D04,0,0,1
2117,0.7,1644836081.578125,P07,D04,0,0,1
2118,0.56,1644836081.59375,P07,D04,0,0,1
2119,0.45,1644836081.609375,P07,D04,0,0,1
2120,0.35,1644836081.625,P07,D04,0,0,1
2121,0.23,1644836081.640625,P07,D04,0,0,1
2122,0.11,1644836081.65625,P07,D04,0,0,1
2123,-0.01,1644836081.671875,P07,D04,0,0,1
2124,-0.18,1644836081.6875,P07,D04,0,0,1
2125,-0.48,1644836081.703125,P07,D04,0,0,1
2126,-0.95,1644836081.71875,P07,D04,0,0,1
2127,-1.53,1644836081.734375,P07,D04,0,0,1
2128,-2.07,1644836081.75,P07,D04,0,0,1
2129,-2.36,1644836081.765625,P07,D04,0,0,1
2130,-2.25,1644836081.78125,P07,D04,0,0,1
2131,-1.72,1644836081.796875,P07,D04,0,0,1
2132,-0.92,1644836081.8125,P07,D04,0,0,1
2133,-0.09,1644836081.828125,P07,D04,0,0,1
2134,0.5,1644836081.84375,P07,D04,0,0,1
2135,0.7,1644836081.859375,P07,D04,0,0,1
2136,0.51,1644836081.875,P07,D04,0,0,1
2137,0.1,1644836081.890625,P07,D04,0,0,1
2138,-0.35,1644836081.90625,P07,D04,0,0,1
2139,-0.7,1644836081.921875,P07,D04,0,0,1
2140,-0.91,1644836081.9375,P07,D04,0,0,1
2141,-1.05,1644836081.953125,P07,D04,0,0,1
2142,-1.15,1644836081.96875,P07,D04,0,0,1
2143,-1.23,1644836081.984375,P07,D04,0,0,1
2144,-1.23,1644836082.0,P07,D04,0,0,1
2145,-1.08,1644836082.015625,P07,D04,0,0,1
2146,-0.77,1644836082.03125,P07,D04,0,0,1
2147,-0.36,1644836082.046875,P07,D04,0,0,1
2148,0.02,1644836082.0625,P07,D04,0,0,1
2149,0.28,1644836082.078125,P07,D04,0,0,1
2150,0.41,1644836082.09375,P07,D04,0,0,1
2151,0.51,1644836082.109375,P07,D04,0,0,1
2152,0.71,1644836082.125,P07,D04,0,0,1
2153,1.05,1644836082.140625,P07,D04,0,0,1
2154,1.49,1644836082.15625,P07,D04,0,0,1
2155,1.86,1644836082.171875,P07,D04,0,0,1
2156,2.02,1644836082.1875,P07,D04,0,0,1
2157,1.94,1644836082.203125,P07,D04,0,0,1
2158,1.73,1644836082.21875,P07,D04,0,0,1
2159,1.52,1644836082.234375,P07,D04,0,0,1
2160,1.43,1644836082.25,P07,D04,0,0,1
2161,1.45,1644836082.265625,P07,D04,0,0,1
2162,1.47,1644836082.28125,P07,D04,0,0,1
2163,1.35,1644836082.296875,P07,D04,0,0,1
2164,1.04,1644836082.3125,P07,D04,0,0,1
2165,0.59,1644836082.328125,P07,D04,0,0,1
2166,0.17,1644836082.34375,P07,D04,0,0,1
2167,-0.09,1644836082.359375,P07,D04,0,0,1
2168,-0.16,1644836082.375,P07,D04,0,0,1
2169,-0.1,1644836082.390625,P07,D04,0,0,1
2170,0.0,1644836082.40625,P07,D04,0,0,1
2171,0.08,1644836082.421875,P07,D04,0,0,1
2172,0.13,1644836082.4375,P07,D04,0,0,1
2173,0.18,1644836082.453125,P07,D04,0,0,1
2174,0.26,1644836082.46875,P07,D04,0,0,1
2175,0.37,1644836082.484375,P07,D04,0,0,1
2176,0.48,1644836082.5,P07,D04,0,0,1
2177,0.58,1644836082.515625,P07,D04,0,0,1
2178,0.67,1644836082.53125,P07,D04,0,0,1
2179,0.78,1644836082.546875,P07,D04,0,0,1
2180,0.9,1644836082.5625,P07,D04,0,0,1
2181,1.04,1644836082.578125,P07,D04,0,0,1
2182,1.16,1644836082.59375,P07,D04,0,0,1
2183,1.22,1644836082.609375,P07,D04,0,0,1
2184,1.22,1644836082.625,P07,D04,0,0,1
2185,1.18,1644836082.640625,P07,D04,0,0,1
2186,1.14,1644836082.65625,P07,D04,0,0,1
2187,1.12,1644836082.671875,P07,D04,0,0,1
2188,1.09,1644836082.6875,P07,D04,0,0,1
2189,1.01,1644836082.703125,P07,D04,0,0,1
2190,0.83,1644836082.71875,P07,D04,0,0,1
2191,0.5,1644836082.734375,P07,D04,0,0,1
2192,0.06,1644836082.75,P07,D04,0,0,1
2193,-0.44,1644836082.765625,P07,D04,0,0,1
2194,-0.86,1644836082.78125,P07,D04,0,0,1
2195,-1.07,1644836082.796875,P07,D04,0,0,1
2196,-1.04,1644836082.8125,P07,D04,0,0,1
2197,-0.85,1644836082.828125,P07,D04,0,0,1
2198,-0.65,1644836082.84375,P07,D04,0,0,1
2199,-0.62,1644836082.859375,P07,D04,0,0,1
2200,-0.84,1644836082.875,P07,D04,0,0,1
2201,-1.24,1644836082.890625,P07,D04,0,0,1
2202,-1.67,1644836082.90625,P07,D04,0,0,1
2203,-1.92,1644836082.921875,P07,D04,0,0,1
2204,-1.93,1644836082.9375,P07,D04,0,0,1
2205,-1.72,1644836082.953125,P07,D04,0,0,1
2206,-1.44,1644836082.96875,P07,D04,0,0,1
2207,-1.23,1644836082.984375,P07,D04,0,0,1
2208,-1.15,1644836083.0,P07,D04,0,0,1
2209,-1.17,1644836083.015625,P07,D04,0,0,1
2210,-1.16,1644836083.03125,P07,D04,0,0,1
2211,-1.02,1644836083.046875,P07,D04,0,0,1
2212,-0.67,1644836083.0625,P07,D04,0,0,1
2213,-0.19,1644836083.078125,P07,D04,0,0,1
2214,0.29,1644836083.09375,P07,D04,0,0,1
2215,0.56,1644836083.109375,P07,D04,0,0,1
2216,0.52,1644836083.125,P07,D04,0,0,1
2217,0.19,1644836083.140625,P07,D04,0,0,1
2218,-0.25,1644836083.15625,P07,D04,0,0,1
2219,-0.54,1644836083.171875,P07,D04,0,0,1
2220,-0.48,1644836083.1875,P07,D04,0,0,1
2221,-0.0,1644836083.203125,P07,D04,0,0,1
2222,0.74,1644836083.21875,P07,D04,0,0,1
2223,1.51,1644836083.234375,P07,D04,0,0,1
2224,2.07,1644836083.25,P07,D04,0,0,1
2225,2.32,1644836083.265625,P07,D04,0,0,1
2226,2.31,1644836083.28125,P07,D04,0,0,1
2227,2.15,1644836083.296875,P07,D04,0,0,1
2228,1.95,1644836083.3125,P07,D04,0,0,1
2229,1.71,1644836083.328125,P07,D04,0,0,1
2230,1.41,1644836083.34375,P07,D04,0,0,1
2231,0.99,1644836083.359375,P07,D04,0,0,1
2232,0.45,1644836083.375,P07,D04,0,0,1
2233,-0.13,1644836083.390625,P07,D04,0,0,1
2234,-0.66,1644836083.40625,P07,D04,0,0,1
2235,-1.05,1644836083.421875,P07,D04,0,0,1
2236,-1.24,1644836083.4375,P07,D04,0,0,1
2237,-1.23,1644836083.453125,P07,D04,0,0,1
2238,-1.1,1644836083.46875,P07,D04,0,0,1
2239,-0.91,1644836083.484375,P07,D04,0,0,1
2240,-0.73,1644836083.5,P07,D04,0,0,1
2241,-0.61,1644836083.515625,P07,D04,0,0,1
2242,-0.55,1644836083.53125,P07,D04,0,0,1
2243,-0.5,1644836083.546875,P07,D04,0,0,1
2244,-0.46,1644836083.5625,P07,D04,0,0,1
2245,-0.44,1644836083.578125,P07,D04,0,0,1
2246,-0.49,1644836083.59375,P07,D04,0,0,1
2247,-0.67,1644836083.609375,P07,D04,0,0,1
2248,-0.99,1644836083.625,P07,D04,0,0,1
2249,-1.4,1644836083.640625,P07,D04,0,0,1
2250,-1.77,1644836083.65625,P07,D04,0,0,1
2251,-2.01,1644836083.671875,P07,D04,0,0,1
2252,-2.04,1644836083.6875,P07,D04,0,0,1
2253,-1.85,1644836083.703125,P07,D04,0,0,1
2254,-1.53,1644836083.71875,P07,D04,0,0,1
2255,-1.19,1644836083.734375,P07,D04,0,0,1
2256,-0.93,1644836083.75,P07,D04,0,0,1
2257,-0.83,1644836083.765625,P07,D04,0,0,1
2258,-0.89,1644836083.78125,P07,D04,0,0,1
2259,-1.05,1644836083.796875,P07,D04,0,0,1
2260,-1.18,1644836083.8125,P07,D04,0,0,1
2261,-1.2,1644836083.828125,P07,D04,0,0,1
2262,-1.09,1644836083.84375,P07,D04,0,0,1
2263,-0.88,1644836083.859375,P07,D04,0,0,1
2264,-0.69,1644836083.875,P07,D04,0,0,1
2265,-0.62,1644836083.890625,P07,D04,0,0,1
2266,-0.66,1644836083.90625,P07,D04,0,0,1
2267,-0.77,1644836083.921875,P07,D04,0,0,1
2268,-0.8,1644836083.9375,P07,D04,0,0,1
2269,-0.68,1644836083.953125,P07,D04,0,0,1
2270,-0.35,1644836083.96875,P07,D04,0,0,1
2271,0.14,1644836083.984375,P07,D04,0,0,1
2272,0.69,1644836084.0,P07,D04,0,0,1
2273,1.2,1644836084.015625,P07,D04,0,0,1
2274,1.55,1644836084.03125,P07,D04,0,0,1
2275,1.68,1644836084.046875,P07,D04,0,0,1
2276,1.57,1644836084.0625,P07,D04,0,0,1
2277,1.3,1644836084.078125,P07,D04,0,0,1
2278,0.99,1644836084.09375,P07,D04,0,0,1
2279,0.79,1644836084.109375,P07,D04,0,0,1
2280,0.8,1644836084.125,P07,D04,0,0,1
2281,1.05,1644836084.140625,P07,D04,0,0,1
2282,1.46,1644836084.15625,P07,D04,0,0,1
2283,1.94,1644836084.171875,P07,D04,0,0,1
2284,2.36,1644836084.1875,P07,D04,0,0,1
2285,2.7,1644836084.203125,P07,D04,0,0,1
2286,2.95,1644836084.21875,P07,D04,0,0,1
2287,3.12,1644836084.234375,P07,D04,0,0,1
2288,3.25,1644836084.25,P07,D04,0,0,1
2289,3.33,1644836084.265625,P07,D04,0,0,1
2290,3.35,1644836084.28125,P07,D04,0,0,1
2291,3.29,1644836084.296875,P07,D04,0,0,1
2292,3.15,1644836084.3125,P07,D04,0,0,1
2293,2.91,1644836084.328125,P07,D04,0,0,1
2294,2.6,1644836084.34375,P07,D04,0,0,1
2295,2.22,1644836084.359375,P07,D04,0,0,1
2296,1.81,1644836084.375,P07,D04,0,0,1
2297,1.41,1644836084.390625,P07,D04,0,0,1
2298,1.08,1644836084.40625,P07,D04,0,0,1
2299,0.88,1644836084.421875,P07,D04,0,0,1
2300,0.84,1644836084.4375,P07,D04,0,0,1
2301,0.96,1644836084.453125,P07,D04,0,0,1
2302,1.2,1644836084.46875,P07,D04,0,0,1
2303,1.49,1644836084.484375,P07,D04,0,0,1
2304,1.76,1644836084.5,P07,D04,0,0,1
2305,1.96,1644836084.515625,P07,D04,0,0,1
2306,2.04,1644836084.53125,P07,D04,0,0,1
2307,1.99,1644836084.546875,P07,D04,0,0,1
2308,1.8,1644836084.5625,P07,D04,0,0,1
2309,1.46,1644836084.578125,P07,D04,0,0,1
2310,0.96,1644836084.59375,P07,D04,0,0,1
2311,0.3,1644836084.609375,P07,D04,0,0,1
2312,-0.48,1644836084.625,P07,D04,0,0,1
2313,-1.31,1644836084.640625,P07,D04,0,0,1
2314,-2.06,1644836084.65625,P07,D04,0,0,1
2315,-2.6,1644836084.671875,P07,D04,0,0,1
2316,-2.83,1644836084.6875,P07,D04,0,0,1
2317,-2.74,1644836084.703125,P07,D04,0,0,1
2318,-2.4,1644836084.71875,P07,D04,0,0,1
2319,-1.96,1644836084.734375,P07,D04,0,0,1
2320,-1.58,1644836084.75,P07,D04,0,0,1
2321,-1.39,1644836084.765625,P07,D04,0,0,1
2322,-1.4,1644836084.78125,P07,D04,0,0,1
2323,-1.56,1644836084.796875,P07,D04,0,0,1
2324,-1.76,1644836084.8125,P07,D04,0,0,1
2325,-1.88,1644836084.828125,P07,D04,0,0,1
2326,-1.86,1644836084.84375,P07,D04,0,0,1
2327,-1.71,1644836084.859375,P07,D04,0,0,1
2328,-1.49,1644836084.875,P07,D04,0,0,1
2329,-1.25,1644836084.890625,P07,D04,0,0,1
2330,-1.0,1644836084.90625,P07,D04,0,0,1
2331,-0.71,1644836084.921875,P07,D04,0,0,1
2332,-0.37,1644836084.9375,P07,D04,0,0,1
2333,0.01,1644836084.953125,P07,D04,0,0,1
2334,0.38,1644836084.96875,P07,D04,0,0,1
2335,0.62,1644836084.984375,P07,D04,0,0,1
2336,0.65,1644836085.0,P07,D04,0,0,1
2337,0.43,1644836085.015625,P07,D04,0,0,1
2338,0.02,1644836085.03125,P07,D04,0,0,1
2339,-0.48,1644836085.046875,P07,D04,0,0,1
2340,-0.96,1644836085.0625,P07,D04,0,0,1
2341,-1.35,1644836085.078125,P07,D04,0,0,1
2342,-1.59,1644836085.09375,P07,D04,0,0,1
2343,-1.66,1644836085.109375,P07,D04,0,0,1
2344,-1.57,1644836085.125,P07,D04,0,0,1
2345,-1.32,1644836085.140625,P07,D04,0,0,1
2346,-0.94,1644836085.15625,P07,D04,0,0,1
2347,-0.51,1644836085.171875,P07,D04,0,0,1
2348,-0.13,1644836085.1875,P07,D04,0,0,1
2349,0.12,1644836085.203125,P07,D04,0,0,1
2350,0.21,1644836085.21875,P07,D04,0,0,1
2351,0.22,1644836085.234375,P07,D04,0,0,1
2352,0.24,1644836085.25,P07,D04,0,0,1
2353,0.36,1644836085.265625,P07,D04,0,0,1
2354,0.57,1644836085.28125,P07,D04,0,0,1
2355,0.79,1644836085.296875,P07,D04,0,0,1
2356,0.92,1644836085.3125,P07,D04,0,0,1
2357,0.92,1644836085.328125,P07,D04,0,0,1
2358,0.82,1644836085.34375,P07,D04,0,0,1
2359,0.69,1644836085.359375,P07,D04,0,0,1
2360,0.61,1644836085.375,P07,D04,0,0,1
2361,0.56,1644836085.390625,P07,D04,0,0,1
2362,0.46,1644836085.40625,P07,D04,0,0,1
2363,0.27,1644836085.421875,P07,D04,0,0,1
2364,-0.02,1644836085.4375,P07,D04,0,0,1
2365,-0.31,1644836085.453125,P07,D04,0,0,1
2366,-0.49,1644836085.46875,P07,D04,0,0,1
2367,-0.48,1644836085.484375,P07,D04,0,0,1
2368,-0.31,1644836085.5,P07,D04,0,0,1
2369,-0.08,1644836085.515625,P07,D04,0,0,1
2370,0.1,1644836085.53125,P07,D04,0,0,1
2371,0.18,1644836085.546875,P07,D04,0,0,1
2372,0.17,1644836085.5625,P07,D04,0,0,1
2373,0.16,1644836085.578125,P07,D04,0,0,1
2374,0.22,1644836085.59375,P07,D04,0,0,1
2375,0.37,1644836085.609375,P07,D04,0,0,1
2376,0.6,1644836085.625,P07,D04,0,0,1
2377,0.84,1644836085.640625,P07,D04,0,0,1
2378,1.02,1644836085.65625,P07,D04,0,0,1
2379,1.06,1644836085.671875,P07,D04,0,0,1
2380,0.94,1644836085.6875,P07,D04,0,0,1
2381,0.68,1644836085.703125,P07,D04,0,0,1
2382,0.33,1644836085.71875,P07,D04,0,0,1
2383,-0.01,1644836085.734375,P07,D04,0,0,1
2384,-0.25,1644836085.75,P07,D04,0,0,1
2385,-0.34,1644836085.765625,P07,D04,0,0,1
2386,-0.28,1644836085.78125,P07,D04,0,0,1
2387,-0.15,1644836085.796875,P07,D04,0,0,1
2388,-0.06,1644836085.8125,P07,D04,0,0,1
2389,-0.08,1644836085.828125,P07,D04,0,0,1
2390,-0.22,1644836085.84375,P07,D04,0,0,1
2391,-0.38,1644836085.859375,P07,D04,0,0,1
2392,-0.45,1644836085.875,P07,D04,0,0,1
2393,-0.31,1644836085.890625,P07,D04,0,0,1
2394,0.05,1644836085.90625,P07,D04,0,0,1
2395,0.55,1644836085.921875,P07,D04,0,0,1
2396,1.02,1644836085.9375,P07,D04,0,0,1
2397,1.29,1644836085.953125,P07,D04,0,0,1
2398,1.29,1644836085.96875,P07,D04,0,0,1
2399,1.05,1644836085.984375,P07,D04,0,0,1
2400,0.67,1644836086.0,P07,D04,0,0,1
2401,0.29,1644836086.015625,P07,D04,0,0,1
2402,0.0,1644836086.03125,P07,D04,0,0,1
2403,-0.11,1644836086.046875,P07,D04,0,0,1
2404,-0.02,1644836086.0625,P07,D04,0,0,1
2405,0.3,1644836086.078125,P07,D04,0,0,1
2406,0.82,1644836086.09375,P07,D04,0,0,1
2407,1.5,1644836086.109375,P07,D04,0,0,1
2408,2.21,1644836086.125,P07,D04,0,0,1
2409,2.83,1644836086.140625,P07,D04,0,0,1
2410,3.22,1644836086.15625,P07,D04,0,0,1
2411,3.32,1644836086.171875,P07,D04,0,0,1
2412,3.14,1644836086.1875,P07,D04,0,0,1
2413,2.75,1644836086.203125,P07,D04,0,0,1
2414,2.24,1644836086.21875,P07,D04,0,0,1
2415,1.71,1644836086.234375,P07,D04,0,0,1
2416,1.24,1644836086.25,P07,D04,0,0,1
2417,0.88,1644836086.265625,P07,D04,0,0,1
2418,0.63,1644836086.28125,P07,D04,0,0,1
2419,0.45,1644836086.296875,P07,D04,0,0,1
2420,0.23,1644836086.3125,P07,D04,0,0,1
2421,-0.1,1644836086.328125,P07,D04,0,0,1
2422,-0.56,1644836086.34375,P07,D04,0,0,1
2423,-1.09,1644836086.359375,P07,D04,0,0,1
2424,-1.56,1644836086.375,P07,D04,0,0,1
2425,-1.89,1644836086.390625,P07,D04,0,0,1
2426,-2.03,1644836086.40625,P07,D04,0,0,1
2427,-2.03,1644836086.421875,P07,D04,0,0,1
2428,-1.96,1644836086.4375,P07,D04,0,0,1
2429,-1.9,1644836086.453125,P07,D04,0,0,1
2430,-1.84,1644836086.46875,P07,D04,0,0,1
2431,-1.75,1644836086.484375,P07,D04,0,0,1
2432,-1.56,1644836086.5,P07,D04,0,0,1
2433,-1.27,1644836086.515625,P07,D04,0,0,1
2434,-0.91,1644836086.53125,P07,D04,0,0,1
2435,-0.59,1644836086.546875,P07,D04,0,0,1
2436,-0.35,1644836086.5625,P07,D04,0,0,1
2437,-0.21,1644836086.578125,P07,D04,0,0,1
2438,-0.12,1644836086.59375,P07,D04,0,0,1
2439,0.01,1644836086.609375,P07,D04,0,0,1
2440,0.25,1644836086.625,P07,D04,0,0,1
2441,0.61,1644836086.640625,P07,D04,0,0,1
2442,1.09,1644836086.65625,P07,D04,0,0,1
2443,1.58,1644836086.671875,P07,D04,0,0,1
2444,2.02,1644836086.6875,P07,D04,0,0,1
2445,2.35,1644836086.703125,P07,D04,0,0,1
2446,2.57,1644836086.71875,P07,D04,0,0,1
2447,2.68,1644836086.734375,P07,D04,0,0,1
2448,2.74,1644836086.75,P07,D04,0,0,1
2449,2.76,1644836086.765625,P07,D04,0,0,1
2450,2.75,1644836086.78125,P07,D04,0,0,1
2451,2.71,1644836086.796875,P07,D04,0,0,1
2452,2.6,1644836086.8125,P07,D04,0,0,1
2453,2.43,1644836086.828125,P07,D04,0,0,1
2454,2.19,1644836086.84375,P07,D04,0,0,1
2455,1.94,1644836086.859375,P07,D04,0,0,1
2456,1.78,1644836086.875,P07,D04,0,0,1
2457,1.75,1644836086.890625,P07,D04,0,0,1
2458,1.9,1644836086.90625,P07,D04,0,0,1
2459,2.19,1644836086.921875,P07,D04,0,0,1
2460,2.51,1644836086.9375,P07,D04,0,0,1
2461,2.76,1644836086.953125,P07,D04,0,0,1
2462,2.85,1644836086.96875,P07,D04,0,0,1
2463,2.68,1644836086.984375,P07,D04,0,0,1
2464,2.22,1644836087.0,P07,D04,0,0,1
2465,1.46,1644836087.015625,P07,D04,0,0,1
2466,0.44,1644836087.03125,P07,D04,0,0,1
2467,-0.72,1644836087.046875,P07,D04,0,0,1
2468,-1.88,1644836087.0625,P07,D04,0,0,1
2469,-2.87,1644836087.078125,P07,D04,0,0,1
2470,-3.52,1644836087.09375,P07,D04,0,0,1
2471,-3.76,1644836087.109375,P07,D04,0,0,1
2472,-3.62,1644836087.125,P07,D04,0,0,1
2473,-3.2,1644836087.140625,P07,D04,0,0,1
2474,-2.68,1644836087.15625,P07,D04,0,0,1
2475,-2.16,1644836087.171875,P07,D04,0,0,1
2476,-1.73,1644836087.1875,P07,D04,0,0,1
2477,-1.42,1644836087.203125,P07,D04,0,0,1
2478,-1.26,1644836087.21875,P07,D04,0,0,1
2479,-1.34,1644836087.234375,P07,D04,0,0,1
2480,-1.74,1644836087.25,P07,D04,0,0,1
2481,-2.5,1644836087.265625,P07,D04,0,0,1
2482,-3.57,1644836087.28125,P07,D04,0,0,1
2483,-4.73,1644836087.296875,P07,D04,0,0,1
2484,-5.69,1644836087.3125,P07,D04,0,0,1
2485,-6.16,1644836087.328125,P07,D04,0,0,1
2486,-6.0,1644836087.34375,P07,D04,0,0,1
2487,-5.25,1644836087.359375,P07,D04,0,0,1
2488,-4.13,1644836087.375,P07,D04,0,0,1
2489,-2.99,1644836087.390625,P07,D04,0,0,1
2490,-2.13,1644836087.40625,P07,D04,0,0,1
2491,-1.71,1644836087.421875,P07,D04,0,0,1
2492,-1.74,1644836087.4375,P07,D04,0,0,1
2493,-2.08,1644836087.453125,P07,D04,0,0,1
2494,-2.5,1644836087.46875,P07,D04,0,0,1
2495,-2.8,1644836087.484375,P07,D04,0,0,1
2496,-2.85,1644836087.5,P07,D04,0,0,1
2497,-2.65,1644836087.515625,P07,D04,0,0,1
2498,-2.27,1644836087.53125,P07,D04,0,0,1
2499,-1.85,1644836087.546875,P07,D04,0,0,1
2500,-1.47,1644836087.5625,P07,D04,0,0,1
2501,-1.17,1644836087.578125,P07,D04,0,0,1
2502,-0.94,1644836087.59375,P07,D04,0,0,1
2503,-0.75,1644836087.609375,P07,D04,0,0,1
2504,-0.59,1644836087.625,P07,D04,0,0,1
2505,-0.5,1644836087.640625,P07,D04,0,0,1
2506,-0.5,1644836087.65625,P07,D04,0,0,1
2507,-0.55,1644836087.671875,P07,D04,0,0,1
2508,-0.57,1644836087.6875,P07,D04,0,0,1
2509,-0.48,1644836087.703125,P07,D04,0,0,1
2510,-0.19,1644836087.71875,P07,D04,0,0,1
2511,0.24,1644836087.734375,P07,D04,0,0,1
2512,0.69,1644836087.75,P07,D04,0,0,1
2513,1.01,1644836087.765625,P07,D04,0,0,1
2514,1.09,1644836087.78125,P07,D04,0,0,1
2515,0.94,1644836087.796875,P07,D04,0,0,1
2516,0.69,1644836087.8125,P07,D04,0,0,1
2517,0.49,1644836087.828125,P07,D04,0,0,1
2518,0.48,1644836087.84375,P07,D04,0,0,1
2519,0.68,1644836087.859375,P07,D04,0,0,1
2520,1.01,1644836087.875,P07,D04,0,0,1
2521,1.29,1644836087.890625,P07,D04,0,0,1
2522,1.37,1644836087.90625,P07,D04,0,0,1
2523,1.19,1644836087.921875,P07,D04,0,0,1
2524,0.77,1644836087.9375,P07,D04,0,0,1
2525,0.25,1644836087.953125,P07,D04,0,0,1
2526,-0.22,1644836087.96875,P07,D04,0,0,1
2527,-0.48,1644836087.984375,P07,D04,0,0,1
2528,-0.46,1644836088.0,P07,D04,0,0,1
2529,-0.22,1644836088.015625,P07,D04,0,0,1
2530,0.16,1644836088.03125,P07,D04,0,0,1
2531,0.52,1644836088.046875,P07,D04,0,0,1
2532,0.71,1644836088.0625,P07,D04,0,0,1
2533,0.66,1644836088.078125,P07,D04,0,0,1
2534,0.36,1644836088.09375,P07,D04,0,0,1
2535,-0.13,1644836088.109375,P07,D04,0,0,1
2536,-0.7,1644836088.125,P07,D04,0,0,1
2537,-1.26,1644836088.140625,P07,D04,0,0,1
2538,-1.75,1644836088.15625,P07,D04,0,0,1
2539,-2.11,1644836088.171875,P07,D04,0,0,1
2540,-2.31,1644836088.1875,P07,D04,0,0,1
2541,-2.36,1644836088.203125,P07,D04,0,0,1
2542,-2.29,1644836088.21875,P07,D04,0,0,1
2543,-2.17,1644836088.234375,P07,D04,0,0,1
2544,-2.12,1644836088.25,P07,D04,0,0,1
2545,-2.21,1644836088.265625,P07,D04,0,0,1
2546,-2.45,1644836088.28125,P07,D04,0,0,1
2547,-2.78,1644836088.296875,P07,D04,0,0,1
2548,-3.09,1644836088.3125,P07,D04,0,0,1
2549,-3.34,1644836088.328125,P07,D04,0,0,1
2550,-3.49,1644836088.34375,P07,D04,0,0,1
2551,-3.56,1644836088.359375,P07,D04,0,0,1
2552,-3.55,1644836088.375,P07,D04,0,0,1
2553,-3.37,1644836088.390625,P07,D04,0,0,1
2554,-2.91,1644836088.40625,P07,D04,0,0,1
2555,-2.09,1644836088.421875,P07,D04,0,0,1
2556,-0.95,1644836088.4375,P07,D04,0,0,1
2557,0.34,1644836088.453125,P07,D04,0,0,1
2558,1.55,1644836088.46875,P07,D04,0,0,1
2559,2.48,1644836088.484375,P07,D04,0,0,1
2560,3.1,1644836088.5,P07,D04,0,0,1
2561,3.48,1644836088.515625,P07,D04,0,0,1
2562,3.79,1644836088.53125,P07,D04,0,0,1
2563,4.15,1644836088.546875,P07,D04,0,0,1
2564,4.6,1644836088.5625,P07,D04,0,0,1
2565,5.07,1644836088.578125,P07,D04,0,0,1
2566,5.45,1644836088.59375,P07,D04,0,0,1
2567,5.68,1644836088.609375,P07,D04,0,0,1
2568,5.74,1644836088.625,P07,D04,0,0,1
2569,5.68,1644836088.640625,P07,D04,0,0,1
2570,5.54,1644836088.65625,P07,D04,0,0,1
2571,5.3,1644836088.671875,P07,D04,0,0,1
2572,4.88,1644836088.6875,P07,D04,0,0,1
2573,4.17,1644836088.703125,P07,D04,0,0,1
2574,3.12,1644836088.71875,P07,D04,0,0,1
2575,1.8,1644836088.734375,P07,D04,0,0,1
2576,0.37,1644836088.75,P07,D04,0,0,1
2577,-0.93,1644836088.765625,P07,D04,0,0,1
2578,-1.91,1644836088.78125,P07,D04,0,0,1
2579,-2.47,1644836088.796875,P07,D04,0,0,1
2580,-2.66,1644836088.8125,P07,D04,0,0,1
2581,-2.66,1644836088.828125,P07,D04,0,0,1
2582,-2.67,1644836088.84375,P07,D04,0,0,1
2583,-2.86,1644836088.859375,P07,D04,0,0,1
2584,-3.29,1644836088.875,P07,D04,0,0,1
2585,-3.85,1644836088.890625,P07,D04,0,0,1
2586,-4.35,1644836088.90625,P07,D04,0,0,1
2587,-4.62,1644836088.921875,P07,D04,0,0,1
2588,-4.52,1644836088.9375,P07,D04,0,0,1
2589,-4.09,1644836088.953125,P07,D04,0,0,1
2590,-3.48,1644836088.96875,P07,D04,0,0,1
2591,-2.9,1644836088.984375,P07,D04,0,0,1
2592,-2.54,1644836089.0,P07,D04,0,0,1
2593,-2.53,1644836089.015625,P07,D04,0,0,1
2594,-2.79,1644836089.03125,P07,D04,0,0,1
2595,-3.18,1644836089.046875,P07,D04,0,0,1
2596,-3.46,1644836089.0625,P07,D04,0,0,1
2597,-3.44,1644836089.078125,P07,D04,0,0,1
2598,-3.03,1644836089.09375,P07,D04,0,0,1
2599,-2.24,1644836089.109375,P07,D04,0,0,1
2600,-1.25,1644836089.125,P07,D04,0,0,1
2601,-0.24,1644836089.140625,P07,D04,0,0,1
2602,0.58,1644836089.15625,P07,D04,0,0,1
2603,1.1,1644836089.171875,P07,D04,0,0,1
2604,1.34,1644836089.1875,P07,D04,0,0,1
2605,1.41,1644836089.203125,P07,D04,0,0,1
2606,1.5,1644836089.21875,P07,D04,0,0,1
2607,1.75,1644836089.234375,P07,D04,0,0,1
2608,2.22,1644836089.25,P07,D04,0,0,1
2609,2.87,1644836089.265625,P07,D04,0,0,1
2610,3.58,1644836089.28125,P07,D04,0,0,1
2611,4.17,1644836089.296875,P07,D04,0,0,1
2612,4.58,1644836089.3125,P07,D04,0,0,1
2613,4.8,1644836089.328125,P07,D04,0,0,1
2614,4.95,1644836089.34375,P07,D04,0,0,1
2615,5.14,1644836089.359375,P07,D04,0,0,1
2616,5.43,1644836089.375,P07,D04,0,0,1
2617,5.74,1644836089.390625,P07,D04,0,0,1
2618,5.97,1644836089.40625,P07,D04,0,0,1
2619,5.96,1644836089.421875,P07,D04,0,0,1
2620,5.68,1644836089.4375,P07,D04,0,0,1
2621,5.17,1644836089.453125,P07,D04,0,0,1
2622,4.56,1644836089.46875,P07,D04,0,0,1
2623,3.96,1644836089.484375,P07,D04,0,0,1
2624,3.4,1644836089.5,P07,D04,0,0,1
2625,2.82,1644836089.515625,P07,D04,0,0,1
2626,2.11,1644836089.53125,P07,D04,0,0,1
2627,1.19,1644836089.546875,P07,D04,0,0,1
2628,0.05,1644836089.5625,P07,D04,0,0,1
2629,-1.17,1644836089.578125,P07,D04,0,0,1
2630,-2.3,1644836089.59375,P07,D04,0,0,1
2631,-3.15,1644836089.609375,P07,D04,0,0,1
2632,-3.6,1644836089.625,P07,D04,0,0,1
2633,-3.66,1644836089.640625,P07,D04,0,0,1
2634,-3.43,1644836089.65625,P07,D04,0,0,1
2635,-3.11,1644836089.671875,P07,D04,0,0,1
2636,-2.89,1644836089.6875,P07,D04,0,0,1
2637,-2.92,1644836089.703125,P07,D04,0,0,1
2638,-3.24,1644836089.71875,P07,D04,0,0,1
2639,-3.79,1644836089.734375,P07,D04,0,0,1
2640,-4.44,1644836089.75,P07,D04,0,0,1
2641,-5.0,1644836089.765625,P07,D04,0,0,1
2642,-5.32,1644836089.78125,P07,D04,0,0,1
2643,-5.29,1644836089.796875,P07,D04,0,0,1
2644,-4.87,1644836089.8125,P07,D04,0,0,1
2645,-4.11,1644836089.828125,P07,D04,0,0,1
2646,-3.14,1644836089.84375,P07,D04,0,0,1
2647,-2.12,1644836089.859375,P07,D04,0,0,1
2648,-1.2,1644836089.875,P07,D04,0,0,1
2649,-0.45,1644836089.890625,P07,D04,0,0,1
2650,0.13,1644836089.90625,P07,D04,0,0,1
2651,0.66,1644836089.921875,P07,D04,0,0,1
2652,1.2,1644836089.9375,P07,D04,0,0,1
2653,1.77,1644836089.953125,P07,D04,0,0,1
2654,2.3,1644836089.96875,P07,D04,0,0,1
2655,2.69,1644836089.984375,P07,D04,0,0,1
2656,2.87,1644836090.0,P07,D04,0,0,1
2657,2.91,1644836090.015625,P07,D04,0,0,1
2658,2.95,1644836090.03125,P07,D04,0,0,1
2659,3.14,1644836090.046875,P07,D04,0,0,1
2660,3.56,1644836090.0625,P07,D04,0,0,1
2661,4.12,1644836090.078125,P07,D04,0,0,1
2662,4.6,1644836090.09375,P07,D04,0,0,1
2663,4.81,1644836090.109375,P07,D04,0,0,1
2664,4.68,1644836090.125,P07,D04,0,0,1
2665,4.26,1644836090.140625,P07,D04,0,0,1
2666,3.72,1644836090.15625,P07,D04,0,0,1
2667,3.21,1644836090.171875,P07,D04,0,0,1
2668,2.78,1644836090.1875,P07,D04,0,0,1
2669,2.42,1644836090.203125,P07,D04,0,0,1
2670,2.07,1644836090.21875,P07,D04,0,0,1
2671,1.74,1644836090.234375,P07,D04,0,0,1
2672,1.45,1644836090.25,P07,D04,0,0,1
2673,1.26,1644836090.265625,P07,D04,0,0,1
2674,1.16,1644836090.28125,P07,D04,0,0,1
2675,1.09,1644836090.296875,P07,D04,0,0,1
2676,0.98,1644836090.3125,P07,D04,0,0,1
2677,0.78,1644836090.328125,P07,D04,0,0,1
2678,0.49,1644836090.34375,P07,D04,0,0,1
2679,0.12,1644836090.359375,P07,D04,0,0,1
2680,-0.35,1644836090.375,P07,D04,0,0,1
2681,-0.98,1644836090.390625,P07,D04,0,0,1
2682,-1.79,1644836090.40625,P07,D04,0,0,1
2683,-2.76,1644836090.421875,P07,D04,0,0,1
2684,-3.72,1644836090.4375,P07,D04,0,0,1
2685,-4.42,1644836090.453125,P07,D04,0,0,1
2686,-4.67,1644836090.46875,P07,D04,0,0,1
2687,-4.41,1644836090.484375,P07,D04,0,0,1
2688,-3.84,1644836090.5,P07,D04,0,0,1
2689,-3.25,1644836090.515625,P07,D04,0,0,1
2690,-2.93,1644836090.53125,P07,D04,0,0,1
2691,-2.99,1644836090.546875,P07,D04,0,0,1
2692,-3.33,1644836090.5625,P07,D04,0,0,1
2693,-3.73,1644836090.578125,P07,D04,0,0,1
2694,-3.95,1644836090.59375,P07,D04,0,0,1
2695,-3.89,1644836090.609375,P07,D04,0,0,1
2696,-3.6,1644836090.625,P07,D04,0,0,1
2697,-3.16,1644836090.640625,P07,D04,0,0,1
2698,-2.68,1644836090.65625,P07,D04,0,0,1
2699,-2.15,1644836090.671875,P07,D04,0,0,1
2700,-1.53,1644836090.6875,P07,D04,0,0,1
2701,-0.81,1644836090.703125,P07,D04,0,0,1
2702,-0.04,1644836090.71875,P07,D04,0,0,1
2703,0.63,1644836090.734375,P07,D04,0,0,1
2704,1.0,1644836090.75,P07,D04,0,0,1
2705,0.99,1644836090.765625,P07,D04,0,0,1
2706,0.64,1644836090.78125,P07,D04,0,0,1
2707,0.11,1644836090.796875,P07,D04,0,0,1
2708,-0.37,1644836090.8125,P07,D04,0,0,1
2709,-0.58,1644836090.828125,P07,D04,0,0,1
2710,-0.45,1644836090.84375,P07,D04,0,0,1
2711,-0.01,1644836090.859375,P07,D04,0,0,1
2712,0.59,1644836090.875,P07,D04,0,0,1
2713,1.19,1644836090.890625,P07,D04,0,0,1
2714,1.61,1644836090.90625,P07,D04,0,0,1
2715,1.78,1644836090.921875,P07,D04,0,0,1
2716,1.72,1644836090.9375,P07,D04,0,0,1
2717,1.5,1644836090.953125,P07,D04,0,0,1
2718,1.22,1644836090.96875,P07,D04,0,0,1
2719,0.95,1644836090.984375,P07,D04,0,0,1
2720,0.69,1644836091.0,P07,D04,0,0,1
2721,0.39,1644836091.015625,P07,D04,0,0,1
2722,0.04,1644836091.03125,P07,D04,0,0,1
2723,-0.38,1644836091.046875,P07,D04,0,0,1
2724,-0.81,1644836091.0625,P07,D04,0,0,1
2725,-1.18,1644836091.078125,P07,D04,0,0,1
2726,-1.47,1644836091.09375,P07,D04,0,0,1
2727,-1.66,1644836091.109375,P07,D04,0,0,1
2728,-1.78,1644836091.125,P07,D04,0,0,1
2729,-1.83,1644836091.140625,P07,D04,0,0,1
2730,-1.83,1644836091.15625,P07,D04,0,0,1
2731,-1.76,1644836091.171875,P07,D04,0,0,1
2732,-1.62,1644836091.1875,P07,D04,0,0,1
2733,-1.47,1644836091.203125,P07,D04,0,0,1
2734,-1.35,1644836091.21875,P07,D04,0,0,1
2735,-1.29,1644836091.234375,P07,D04,0,0,1
2736,-1.26,1644836091.25,P07,D04,0,0,1
2737,-1.16,1644836091.265625,P07,D04,0,0,1
2738,-0.93,1644836091.28125,P07,D04,0,0,1
2739,-0.52,1644836091.296875,P07,D04,0,0,1
2740,0.02,1644836091.3125,P07,D04,0,0,1
2741,0.57,1644836091.328125,P07,D04,0,0,1
2742,1.04,1644836091.34375,P07,D04,0,0,1
2743,1.35,1644836091.359375,P07,D04,0,0,1
2744,1.53,1644836091.375,P07,D04,0,0,1
2745,1.63,1644836091.390625,P07,D04,0,0,1
2746,1.73,1644836091.40625,P07,D04,0,0,1
2747,1.86,1644836091.421875,P07,D04,0,0,1
2748,2.03,1644836091.4375,P07,D04,0,0,1
2749,2.19,1644836091.453125,P07,D04,0,0,1
2750,2.32,1644836091.46875,P07,D04,0,0,1
2751,2.37,1644836091.484375,P07,D04,0,0,1
2752,2.34,1644836091.5,P07,D04,0,0,1
2753,2.21,1644836091.515625,P07,D04,0,0,1
2754,1.99,1644836091.53125,P07,D04,0,0,1
2755,1.69,1644836091.546875,P07,D04,0,0,1
2756,1.34,1644836091.5625,P07,D04,0,0,1
2757,0.99,1644836091.578125,P07,D04,0,0,1
2758,0.7,1644836091.59375,P07,D04,0,0,1
2759,0.51,1644836091.609375,P07,D04,0,0,1
2760,0.43,1644836091.625,P07,D04,0,0,1
2761,0.42,1644836091.640625,P07,D04,0,0,1
2762,0.39,1644836091.65625,P07,D04,0,0,1
2763,0.26,1644836091.671875,P07,D04,0,0,1
2764,0.0,1644836091.6875,P07,D04,0,0,1
2765,-0.36,1644836091.703125,P07,D04,0,0,1
2766,-0.77,1644836091.71875,P07,D04,0,0,1
2767,-1.15,1644836091.734375,P07,D04,0,0,1
2768,-1.47,1644836091.75,P07,D04,0,0,1
2769,-1.74,1644836091.765625,P07,D04,0,0,1
2770,-2.0,1644836091.78125,P07,D04,0,0,1
2771,-2.28,1644836091.796875,P07,D04,0,0,1
2772,-2.6,1644836091.8125,P07,D04,0,0,1
2773,-2.94,1644836091.828125,P07,D04,0,0,1
2774,-3.28,1644836091.84375,P07,D04,0,0,1
2775,-3.58,1644836091.859375,P07,D04,0,0,1
2776,-3.76,1644836091.875,P07,D04,0,0,1
2777,-3.73,1644836091.890625,P07,D04,0,0,1
2778,-3.41,1644836091.90625,P07,D04,0,0,1
2779,-2.78,1644836091.921875,P07,D04,0,0,1
2780,-1.88,1644836091.9375,P07,D04,0,0,1
2781,-0.83,1644836091.953125,P07,D04,0,0,1
2782,0.22,1644836091.96875,P07,D04,0,0,1
2783,1.13,1644836091.984375,P07,D04,0,0,1
2784,1.82,1644836092.0,P07,D04,0,0,1
2785,2.22,1644836092.015625,P07,D04,0,0,1
2786,2.31,1644836092.03125,P07,D04,0,0,1
2787,2.11,1644836092.046875,P07,D04,0,0,1
2788,1.69,1644836092.0625,P07,D04,0,0,1
2789,1.18,1644836092.078125,P07,D04,0,0,1
2790,0.74,1644836092.09375,P07,D04,0,0,1
2791,0.54,1644836092.109375,P07,D04,0,0,1
2792,0.61,1644836092.125,P07,D04,0,0,1
2793,0.9,1644836092.140625,P07,D04,0,0,1
2794,1.25,1644836092.15625,P07,D04,0,0,1
2795,1.46,1644836092.171875,P07,D04,0,0,1
2796,1.42,1644836092.1875,P07,D04,0,0,1
2797,1.09,1644836092.203125,P07,D04,0,0,1
2798,0.54,1644836092.21875,P07,D04,0,0,1
2799,-0.08,1644836092.234375,P07,D04,0,0,1
2800,-0.64,1644836092.25,P07,D04,0,0,1
2801,-1.03,1644836092.265625,P07,D04,0,0,1
2802,-1.22,1644836092.28125,P07,D04,0,0,1
2803,-1.25,1644836092.296875,P07,D04,0,0,1
2804,-1.19,1644836092.3125,P07,D04,0,0,1
2805,-1.15,1644836092.328125,P07,D04,0,0,1
2806,-1.24,1644836092.34375,P07,D04,0,0,1
2807,-1.52,1644836092.359375,P07,D04,0,0,1
2808,-2.0,1644836092.375,P07,D04,0,0,1
2809,-2.65,1644836092.390625,P07,D04,0,0,1
2810,-3.4,1644836092.40625,P07,D04,0,0,1
2811,-4.11,1644836092.421875,P07,D04,0,0,1
2812,-4.65,1644836092.4375,P07,D04,0,0,1
2813,-4.93,1644836092.453125,P07,D04,0,0,1
2814,-4.87,1644836092.46875,P07,D04,0,0,1
2815,-4.48,1644836092.484375,P07,D04,0,0,1
2816,-3.84,1644836092.5,P07,D04,0,0,1
2817,-3.07,1644836092.515625,P07,D04,0,0,1
2818,-2.27,1644836092.53125,P07,D04,0,0,1
2819,-1.5,1644836092.546875,P07,D04,0,0,1
2820,-0.77,1644836092.5625,P07,D04,0,0,1
2821,0.01,1644836092.578125,P07,D04,0,0,1
2822,0.87,1644836092.59375,P07,D04,0,0,1
2823,1.81,1644836092.609375,P07,D04,0,0,1
2824,2.71,1644836092.625,P07,D04,0,0,1
2825,3.38,1644836092.640625,P07,D04,0,0,1
2826,3.67,1644836092.65625,P07,D04,0,0,1
2827,3.52,1644836092.671875,P07,D04,0,0,1
2828,3.0,1644836092.6875,P07,D04,0,0,1
2829,2.29,1644836092.703125,P07,D04,0,0,1
2830,1.59,1644836092.71875,P07,D04,0,0,1
2831,1.04,1644836092.734375,P07,D04,0,0,1
2832,0.69,1644836092.75,P07,D04,0,0,1
2833,0.5,1644836092.765625,P07,D04,0,0,1
2834,0.4,1644836092.78125,P07,D04,0,0,1
2835,0.36,1644836092.796875,P07,D04,0,0,1
2836,0.39,1644836092.8125,P07,D04,0,0,1
2837,0.53,1644836092.828125,P07,D04,0,0,1
2838,0.79,1644836092.84375,P07,D04,0,0,1
2839,1.18,1644836092.859375,P07,D04,0,0,1
2840,1.63,1644836092.875,P07,D04,0,0,1
2841,2.06,1644836092.890625,P07,D04,0,0,1
2842,2.38,1644836092.90625,P07,D04,0,0,1
2843,2.53,1644836092.921875,P07,D04,0,0,1
2844,2.47,1644836092.9375,P07,D04,0,0,1
2845,2.21,1644836092.953125,P07,D04,0,0,1
2846,1.81,1644836092.96875,P07,D04,0,0,1
2847,1.33,1644836092.984375,P07,D04,0,0,1
2848,0.85,1644836093.0,P07,D04,0,0,1
2849,0.41,1644836093.015625,P07,D04,0,0,1
2850,0.04,1644836093.03125,P07,D04,0,0,1
2851,-0.26,1644836093.046875,P07,D04,0,0,1
2852,-0.52,1644836093.0625,P07,D04,0,0,1
2853,-0.74,1644836093.078125,P07,D04,0,0,1
2854,-0.91,1644836093.09375,P07,D04,0,0,1
2855,-0.97,1644836093.109375,P07,D04,0,0,1
2856,-0.87,1644836093.125,P07,D04,0,0,1
2857,-0.56,1644836093.140625,P07,D04,0,0,1
2858,-0.09,1644836093.15625,P07,D04,0,0,1
2859,0.41,1644836093.171875,P07,D04,0,0,1
2860,0.81,1644836093.1875,P07,D04,0,0,1
2861,0.99,1644836093.203125,P07,D04,0,0,1
2862,0.92,1644836093.21875,P07,D04,0,0,1
2863,0.68,1644836093.234375,P07,D04,0,0,1
2864,0.38,1644836093.25,P07,D04,0,0,1
2865,0.16,1644836093.265625,P07,D04,0,0,1
2866,0.12,1644836093.28125,P07,D04,0,0,1
2867,0.28,1644836093.296875,P07,D04,0,0,1
2868,0.63,1644836093.3125,P07,D04,0,0,1
2869,1.09,1644836093.328125,P07,D04,0,0,1
2870,1.54,1644836093.34375,P07,D04,0,0,1
2871,1.87,1644836093.359375,P07,D04,0,0,1
2872,1.98,1644836093.375,P07,D04,0,0,1
2873,1.82,1644836093.390625,P07,D04,0,0,1
2874,1.44,1644836093.40625,P07,D04,0,0,1
2875,0.96,1644836093.421875,P07,D04,0,0,1
2876,0.51,1644836093.4375,P07,D04,0,0,1
2877,0.21,1644836093.453125,P07,D04,0,0,1
2878,0.14,1644836093.46875,P07,D04,0,0,1
2879,0.25,1644836093.484375,P07,D04,0,0,1
2880,0.47,1644836093.5,P07,D04,0,0,1
2881,0.69,1644836093.515625,P07,D04,0,0,1
2882,0.8,1644836093.53125,P07,D04,0,0,1
2883,0.79,1644836093.546875,P07,D04,0,0,1
2884,0.67,1644836093.5625,P07,D04,0,0,1
2885,0.52,1644836093.578125,P07,D04,0,0,1
2886,0.38,1644836093.59375,P07,D04,0,0,1
2887,0.31,1644836093.609375,P07,D04,0,0,1
2888,0.28,1644836093.625,P07,D04,0,0,1
2889,0.29,1644836093.640625,P07,D04,0,0,1
2890,0.31,1644836093.65625,P07,D04,0,0,1
2891,0.34,1644836093.671875,P07,D04,0,0,1
2892,0.36,1644836093.6875,P07,D04,0,0,1
2893,0.37,1644836093.703125,P07,D04,0,0,1
2894,0.32,1644836093.71875,P07,D04,0,0,1
2895,0.22,1644836093.734375,P07,D04,0,0,1
2896,0.1,1644836093.75,P07,D04,0,0,1
2897,0.04,1644836093.765625,P07,D04,0,0,1
2898,0.14,1644836093.78125,P07,D04,0,0,1
2899,0.41,1644836093.796875,P07,D04,0,0,1
2900,0.8,1644836093.8125,P07,D04,0,0,1
2901,1.14,1644836093.828125,P07,D04,0,0,1
2902,1.3,1644836093.84375,P07,D04,0,0,1
2903,1.19,1644836093.859375,P07,D04,0,0,1
2904,0.87,1644836093.875,P07,D04,0,0,1
2905,0.46,1644836093.890625,P07,D04,0,0,1
2906,0.1,1644836093.90625,P07,D04,0,0,1
2907,-0.13,1644836093.921875,P07,D04,0,0,1
2908,-0.23,1644836093.9375,P07,D04,0,0,1
2909,-0.25,1644836093.953125,P07,D04,0,0,1
2910,-0.23,1644836093.96875,P07,D04,0,0,1
2911,-0.19,1644836093.984375,P07,D04,0,0,1
2912,-0.1,1644836094.0,P07,D04,0,0,1
2913,0.04,1644836094.015625,P07,D04,0,0,1
2914,0.18,1644836094.03125,P07,D04,0,0,1
2915,0.29,1644836094.046875,P07,D04,0,0,1
2916,0.33,1644836094.0625,P07,D04,0,0,1
2917,0.29,1644836094.078125,P07,D04,0,0,1
2918,0.2,1644836094.09375,P07,D04,0,0,1
2919,0.13,1644836094.109375,P07,D04,0,0,1
2920,0.05,1644836094.125,P07,D04,0,0,1
2921,-0.07,1644836094.140625,P07,D04,0,0,1
2922,-0.27,1644836094.15625,P07,D04,0,0,1
2923,-0.55,1644836094.171875,P07,D04,0,0,1
