,data,timestamp,participant,document,val,arou,eng
0,-0.33,1644837139.796875,P07,D06,0,0,1
1,-0.01,1644837139.8125,P07,D06,0,0,1
2,0.35,1644837139.828125,P07,D06,0,0,1
3,0.7,1644837139.84375,P07,D06,0,0,1
4,0.93,1644837139.859375,P07,D06,0,0,1
5,1.01,1644837139.875,P07,D06,0,0,1
6,0.95,1644837139.890625,P07,D06,0,0,1
7,0.86,1644837139.90625,P07,D06,0,0,1
8,0.85,1644837139.921875,P07,D06,0,0,1
9,0.96,1644837139.9375,P07,D06,0,0,1
10,1.13,1644837139.953125,P07,D06,0,0,1
11,1.24,1644837139.96875,P07,D06,0,0,1
12,1.2,1644837139.984375,P07,D06,0,0,1
13,0.98,1644837140.0,P07,D06,0,0,1
14,0.7,1644837140.015625,P07,D06,0,0,1
15,0.47,1644837140.03125,P07,D06,0,0,1
16,0.35,1644837140.046875,P07,D06,0,0,1
17,0.35,1644837140.0625,P07,D06,0,0,1
18,0.36,1644837140.078125,P07,D06,0,0,1
19,0.33,1644837140.09375,P07,D06,0,0,1
20,0.23,1644837140.109375,P07,D06,0,0,1
21,0.12,1644837140.125,P07,D06,0,0,1
22,0.05,1644837140.140625,P07,D06,0,0,1
23,-0.0,1644837140.15625,P07,D06,0,0,1
24,-0.07,1644837140.171875,P07,D06,0,0,1
25,-0.2,1644837140.1875,P07,D06,0,0,1
26,-0.41,1644837140.203125,P07,D06,0,0,1
27,-0.63,1644837140.21875,P07,D06,0,0,1
28,-0.78,1644837140.234375,P07,D06,0,0,1
29,-0.82,1644837140.25,P07,D06,0,0,1
30,-0.74,1644837140.265625,P07,D06,0,0,1
31,-0.62,1644837140.28125,P07,D06,0,0,1
32,-0.53,1644837140.296875,P07,D06,0,0,1
33,-0.49,1644837140.3125,P07,D06,0,0,1
34,-0.48,1644837140.328125,P07,D06,0,0,1
35,-0.44,1644837140.34375,P07,D06,0,0,1
36,-0.33,1644837140.359375,P07,D06,0,0,1
37,-0.2,1644837140.375,P07,D06,0,0,1
38,-0.11,1644837140.390625,P07,D06,0,0,1
39,-0.13,1644837140.40625,P07,D06,0,0,1
40,-0.28,1644837140.421875,P07,D06,0,0,1
41,-0.47,1644837140.4375,P07,D06,0,0,1
42,-0.6,1644837140.453125,P07,D06,0,0,1
43,-0.58,1644837140.46875,P07,D06,0,0,1
44,-0.42,1644837140.484375,P07,D06,0,0,1
45,-0.21,1644837140.5,P07,D06,0,0,1
46,-0.04,1644837140.515625,P07,D06,0,0,1
47,0.04,1644837140.53125,P07,D06,0,0,1
48,0.03,1644837140.546875,P07,D06,0,0,1
49,0.03,1644837140.5625,P07,D06,0,0,1
50,0.08,1644837140.578125,P07,D06,0,0,1
51,0.18,1644837140.59375,P07,D06,0,0,1
52,0.26,1644837140.609375,P07,D06,0,0,1
53,0.27,1644837140.625,P07,D06,0,0,1
54,0.17,1644837140.640625,P07,D06,0,0,1
55,0.05,1644837140.65625,P07,D06,0,0,1
56,-0.03,1644837140.671875,P07,D06,0,0,1
57,0.01,1644837140.6875,P07,D06,0,0,1
58,0.14,1644837140.703125,P07,D06,0,0,1
59,0.31,1644837140.71875,P07,D06,0,0,1
60,0.46,1644837140.734375,P07,D06,0,0,1
61,0.58,1644837140.75,P07,D06,0,0,1
62,0.68,1644837140.765625,P07,D06,0,0,1
63,0.8,1644837140.78125,P07,D06,0,0,1
64,0.93,1644837140.796875,P07,D06,0,0,1
65,1.0,1644837140.8125,P07,D06,0,0,1
66,0.95,1644837140.828125,P07,D06,0,0,1
67,0.72,1644837140.84375,P07,D06,0,0,1
68,0.31,1644837140.859375,P07,D06,0,0,1
69,-0.21,1644837140.875,P07,D06,0,0,1
70,-0.7,1644837140.890625,P07,D06,0,0,1
71,-1.05,1644837140.90625,P07,D06,0,0,1
72,-1.18,1644837140.921875,P07,D06,0,0,1
73,-1.08,1644837140.9375,P07,D06,0,0,1
74,-0.84,1644837140.953125,P07,D06,0,0,1
75,-0.58,1644837140.96875,P07,D06,0,0,1
76,-0.38,1644837140.984375,P07,D06,0,0,1
77,-0.3,1644837141.0,P07,D06,0,0,1
78,-0.29,1644837141.015625,P07,D06,0,0,1
79,-0.28,1644837141.03125,P07,D06,0,0,1
80,-0.22,1644837141.046875,P07,D06,0,0,1
81,-0.1,1644837141.0625,P07,D06,0,0,1
82,0.02,1644837141.078125,P07,D06,0,0,1
83,0.08,1644837141.09375,P07,D06,0,0,1
84,0.03,1644837141.109375,P07,D06,0,0,1
85,-0.1,1644837141.125,P07,D06,0,0,1
86,-0.26,1644837141.140625,P07,D06,0,0,1
87,-0.39,1644837141.15625,P07,D06,0,0,1
88,-0.44,1644837141.171875,P07,D06,0,0,1
89,-0.43,1644837141.1875,P07,D06,0,0,1
90,-0.37,1644837141.203125,P07,D06,0,0,1
91,-0.3,1644837141.21875,P07,D06,0,0,1
92,-0.23,1644837141.234375,P07,D06,0,0,1
93,-0.16,1644837141.25,P07,D06,0,0,1
94,-0.07,1644837141.265625,P07,D06,0,0,1
95,0.05,1644837141.28125,P07,D06,0,0,1
96,0.18,1644837141.296875,P07,D06,0,0,1
97,0.24,1644837141.3125,P07,D06,0,0,1
98,0.22,1644837141.328125,P07,D06,0,0,1
99,0.08,1644837141.34375,P07,D06,0,0,1
100,-0.12,1644837141.359375,P07,D06,0,0,1
101,-0.31,1644837141.375,P07,D06,0,0,1
102,-0.44,1644837141.390625,P07,D06,0,0,1
103,-0.47,1644837141.40625,P07,D06,0,0,1
104,-0.42,1644837141.421875,P07,D06,0,0,1
105,-0.32,1644837141.4375,P07,D06,0,0,1
106,-0.22,1644837141.453125,P07,D06,0,0,1
107,-0.14,1644837141.46875,P07,D06,0,0,1
108,-0.08,1644837141.484375,P07,D06,0,0,1
109,-0.07,1644837141.5,P07,D06,0,0,1
110,-0.11,1644837141.515625,P07,D06,0,0,1
111,-0.2,1644837141.53125,P07,D06,0,0,1
112,-0.34,1644837141.546875,P07,D06,0,0,1
113,-0.52,1644837141.5625,P07,D06,0,0,1
114,-0.7,1644837141.578125,P07,D06,0,0,1
115,-0.92,1644837141.59375,P07,D06,0,0,1
116,-1.18,1644837141.609375,P07,D06,0,0,1
117,-1.5,1644837141.625,P07,D06,0,0,1
118,-1.86,1644837141.640625,P07,D06,0,0,1
119,-2.18,1644837141.65625,P07,D06,0,0,1
120,-2.39,1644837141.671875,P07,D06,0,0,1
121,-2.41,1644837141.6875,P07,D06,0,0,1
122,-2.26,1644837141.703125,P07,D06,0,0,1
123,-2.02,1644837141.71875,P07,D06,0,0,1
124,-1.83,1644837141.734375,P07,D06,0,0,1
125,-1.8,1644837141.75,P07,D06,0,0,1
126,-2.0,1644837141.765625,P07,D06,0,0,1
127,-2.37,1644837141.78125,P07,D06,0,0,1
128,-2.82,1644837141.796875,P07,D06,0,0,1
129,-3.2,1644837141.8125,P07,D06,0,0,1
130,-3.39,1644837141.828125,P07,D06,0,0,1
131,-3.37,1644837141.84375,P07,D06,0,0,1
132,-3.21,1644837141.859375,P07,D06,0,0,1
133,-3.05,1644837141.875,P07,D06,0,0,1
134,-3.0,1644837141.890625,P07,D06,0,0,1
135,-3.13,1644837141.90625,P07,D06,0,0,1
136,-3.41,1644837141.921875,P07,D06,0,0,1
137,-3.74,1644837141.9375,P07,D06,0,0,1
138,-4.03,1644837141.953125,P07,D06,0,0,1
139,-4.24,1644837141.96875,P07,D06,0,0,1
140,-4.4,1644837141.984375,P07,D06,0,0,1
141,-4.57,1644837142.0,P07,D06,0,0,1
142,-4.8,1644837142.015625,P07,D06,0,0,1
143,-5.11,1644837142.03125,P07,D06,0,0,1
144,-5.43,1644837142.046875,P07,D06,0,0,1
145,-5.65,1644837142.0625,P07,D06,0,0,1
146,-5.74,1644837142.078125,P07,D06,0,0,1
147,-5.7,1644837142.09375,P07,D06,0,0,1
148,-5.56,1644837142.109375,P07,D06,0,0,1
149,-5.35,1644837142.125,P07,D06,0,0,1
150,-4.97,1644837142.140625,P07,D06,0,0,1
151,-4.32,1644837142.15625,P07,D06,0,0,1
152,-3.31,1644837142.171875,P07,D06,0,0,1
153,-2.03,1644837142.1875,P07,D06,0,0,1
154,-0.75,1644837142.203125,P07,D06,0,0,1
155,0.11,1644837142.21875,P07,D06,0,0,1
156,0.16,1644837142.234375,P07,D06,0,0,1
157,-0.77,1644837142.25,P07,D06,0,0,1
158,-2.62,1644837142.265625,P07,D06,0,0,1
159,-5.08,1644837142.28125,P07,D06,0,0,1
160,-7.8,1644837142.296875,P07,D06,0,0,1
161,-10.44,1644837142.3125,P07,D06,0,0,1
162,-12.77,1644837142.328125,P07,D06,0,0,1
163,-14.67,1644837142.34375,P07,D06,0,0,1
164,-16.02,1644837142.359375,P07,D06,0,0,1
165,-16.75,1644837142.375,P07,D06,0,0,1
166,-16.83,1644837142.390625,P07,D06,0,0,1
167,-16.31,1644837142.40625,P07,D06,0,0,1
168,-15.38,1644837142.421875,P07,D06,0,0,1
169,-14.25,1644837142.4375,P07,D06,0,0,1
170,-13.08,1644837142.453125,P07,D06,0,0,1
171,-11.91,1644837142.46875,P07,D06,0,0,1
172,-10.62,1644837142.484375,P07,D06,0,0,1
173,-9.01,1644837142.5,P07,D06,0,0,1
174,-6.9,1644837142.515625,P07,D06,0,0,1
175,-4.25,1644837142.53125,P07,D06,0,0,1
176,-1.09,1644837142.546875,P07,D06,0,0,1
177,2.4,1644837142.5625,P07,D06,0,0,1
178,5.98,1644837142.578125,P07,D06,0,0,1
179,9.37,1644837142.59375,P07,D06,0,0,1
180,12.23,1644837142.609375,P07,D06,0,0,1
181,14.27,1644837142.625,P07,D06,0,0,1
182,15.26,1644837142.640625,P07,D06,0,0,1
183,15.16,1644837142.65625,P07,D06,0,0,1
184,14.13,1644837142.671875,P07,D06,0,0,1
185,12.47,1644837142.6875,P07,D06,0,0,1
186,10.47,1644837142.703125,P07,D06,0,0,1
187,8.29,1644837142.71875,P07,D06,0,0,1
188,5.96,1644837142.734375,P07,D06,0,0,1
189,3.38,1644837142.75,P07,D06,0,0,1
190,0.52,1644837142.765625,P07,D06,0,0,1
191,-2.58,1644837142.78125,P07,D06,0,0,1
192,-5.79,1644837142.796875,P07,D06,0,0,1
193,-9.02,1644837142.8125,P07,D06,0,0,1
194,-12.35,1644837142.828125,P07,D06,0,0,1
195,-16.06,1644837142.84375,P07,D06,0,0,1
196,-20.47,1644837142.859375,P07,D06,0,0,1
197,-25.85,1644837142.875,P07,D06,0,0,1
198,-32.22,1644837142.890625,P07,D06,0,0,1
199,-39.31,1644837142.90625,P07,D06,0,0,1
200,-46.69,1644837142.921875,P07,D06,0,0,1
201,-53.93,1644837142.9375,P07,D06,0,0,1
202,-60.84,1644837142.953125,P07,D06,0,0,1
203,-67.52,1644837142.96875,P07,D06,0,0,1
204,-74.33,1644837142.984375,P07,D06,0,0,1
205,-81.61,1644837143.0,P07,D06,0,0,1
206,-89.46,1644837143.015625,P07,D06,0,0,1
207,-97.57,1644837143.03125,P07,D06,0,0,1
208,-105.2,1644837143.046875,P07,D06,0,0,1
209,-111.47,1644837143.0625,P07,D06,0,0,1
210,-115.73,1644837143.078125,P07,D06,0,0,1
211,-117.94,1644837143.09375,P07,D06,0,0,1
212,-118.85,1644837143.109375,P07,D06,0,0,1
213,-119.96,1644837143.125,P07,D06,0,0,1
214,-122.99,1644837143.140625,P07,D06,0,0,1
215,-129.4,1644837143.15625,P07,D06,0,0,1
216,-139.78,1644837143.171875,P07,D06,0,0,1
217,-153.57,1644837143.1875,P07,D06,0,0,1
218,-169.07,1644837143.203125,P07,D06,0,0,1
219,-183.69,1644837143.21875,P07,D06,0,0,1
220,-194.52,1644837143.234375,P07,D06,0,0,1
221,-198.87,1644837143.25,P07,D06,0,0,1
222,-194.81,1644837143.265625,P07,D06,0,0,1
223,-181.52,1644837143.28125,P07,D06,0,0,1
224,-159.46,1644837143.296875,P07,D06,0,0,1
225,-130.13,1644837143.3125,P07,D06,0,0,1
226,-95.59,1644837143.328125,P07,D06,0,0,1
227,-57.89,1644837143.34375,P07,D06,0,0,1
228,-18.44,1644837143.359375,P07,D06,0,0,1
229,22.31,1644837143.375,P07,D06,0,0,1
230,64.7,1644837143.390625,P07,D06,0,0,1
231,109.23,1644837143.40625,P07,D06,0,0,1
232,155.69,1644837143.421875,P07,D06,0,0,1
233,202.54,1644837143.4375,P07,D06,0,0,1
234,246.99,1644837143.453125,P07,D06,0,0,1
235,285.61,1644837143.46875,P07,D06,0,0,1
236,315.52,1644837143.484375,P07,D06,0,0,1
237,335.31,1644837143.5,P07,D06,0,0,1
238,345.5,1644837143.515625,P07,D06,0,0,1
239,348.26,1644837143.53125,P07,D06,0,0,1
240,346.68,1644837143.546875,P07,D06,0,0,1
241,343.72,1644837143.5625,P07,D06,0,0,1
242,341.25,1644837143.578125,P07,D06,0,0,1
243,339.55,1644837143.59375,P07,D06,0,0,1
244,337.27,1644837143.609375,P07,D06,0,0,1
245,331.93,1644837143.625,P07,D06,0,0,1
246,320.76,1644837143.640625,P07,D06,0,0,1
247,301.55,1644837143.65625,P07,D06,0,0,1
248,273.09,1644837143.671875,P07,D06,0,0,1
249,235.25,1644837143.6875,P07,D06,0,0,1
250,188.74,1644837143.703125,P07,D06,0,0,1
251,135.01,1644837143.71875,P07,D06,0,0,1
252,76.47,1644837143.734375,P07,D06,0,0,1
253,16.78,1644837143.75,P07,D06,0,0,1
254,-39.03,1644837143.765625,P07,D06,0,0,1
255,-85.4,1644837143.78125,P07,D06,0,0,1
256,-117.77,1644837143.796875,P07,D06,0,0,1
257,-134.24,1644837143.8125,P07,D06,0,0,1
258,-136.42,1644837143.828125,P07,D06,0,0,1
259,-128.76,1644837143.84375,P07,D06,0,0,1
260,-116.83,1644837143.859375,P07,D06,0,0,1
261,-105.2,1644837143.875,P07,D06,0,0,1
262,-96.11,1644837143.890625,P07,D06,0,0,1
263,-89.56,1644837143.90625,P07,D06,0,0,1
264,-84.35,1644837143.921875,P07,D06,0,0,1
265,-79.33,1644837143.9375,P07,D06,0,0,1
266,-74.19,1644837143.953125,P07,D06,0,0,1
267,-69.36,1644837143.96875,P07,D06,0,0,1
268,-65.43,1644837143.984375,P07,D06,0,0,1
269,-62.56,1644837144.0,P07,D06,0,0,1
270,-60.3,1644837144.015625,P07,D06,0,0,1
271,-57.9,1644837144.03125,P07,D06,0,0,1
272,-54.76,1644837144.046875,P07,D06,0,0,1
273,-50.72,1644837144.0625,P07,D06,0,0,1
274,-46.14,1644837144.078125,P07,D06,0,0,1
275,-41.67,1644837144.09375,P07,D06,0,0,1
276,-37.87,1644837144.109375,P07,D06,0,0,1
277,-34.91,1644837144.125,P07,D06,0,0,1
278,-32.59,1644837144.140625,P07,D06,0,0,1
279,-30.39,1644837144.15625,P07,D06,0,0,1
280,-27.85,1644837144.171875,P07,D06,0,0,1
281,-24.73,1644837144.1875,P07,D06,0,0,1
282,-21.17,1644837144.203125,P07,D06,0,0,1
283,-17.56,1644837144.21875,P07,D06,0,0,1
284,-14.35,1644837144.234375,P07,D06,0,0,1
285,-11.8,1644837144.25,P07,D06,0,0,1
286,-9.93,1644837144.265625,P07,D06,0,0,1
287,-8.5,1644837144.28125,P07,D06,0,0,1
288,-7.17,1644837144.296875,P07,D06,0,0,1
289,-5.67,1644837144.3125,P07,D06,0,0,1
290,-3.92,1644837144.328125,P07,D06,0,0,1
291,-2.0,1644837144.34375,P07,D06,0,0,1
292,-0.13,1644837144.359375,P07,D06,0,0,1
293,1.43,1644837144.375,P07,D06,0,0,1
294,2.56,1644837144.390625,P07,D06,0,0,1
295,3.23,1644837144.40625,P07,D06,0,0,1
296,3.59,1644837144.421875,P07,D06,0,0,1
297,3.9,1644837144.4375,P07,D06,0,0,1
298,4.39,1644837144.453125,P07,D06,0,0,1
299,5.21,1644837144.46875,P07,D06,0,0,1
300,6.34,1644837144.484375,P07,D06,0,0,1
301,7.63,1644837144.5,P07,D06,0,0,1
302,8.84,1644837144.515625,P07,D06,0,0,1
303,9.73,1644837144.53125,P07,D06,0,0,1
304,10.15,1644837144.546875,P07,D06,0,0,1
305,9.98,1644837144.5625,P07,D06,0,0,1
306,9.21,1644837144.578125,P07,D06,0,0,1
307,7.88,1644837144.59375,P07,D06,0,0,1
308,6.12,1644837144.609375,P07,D06,0,0,1
309,4.1,1644837144.625,P07,D06,0,0,1
310,2.07,1644837144.640625,P07,D06,0,0,1
311,0.22,1644837144.65625,P07,D06,0,0,1
312,-1.28,1644837144.671875,P07,D06,0,0,1
313,-2.37,1644837144.6875,P07,D06,0,0,1
314,-3.09,1644837144.703125,P07,D06,0,0,1
315,-3.54,1644837144.71875,P07,D06,0,0,1
316,-3.83,1644837144.734375,P07,D06,0,0,1
317,-4.07,1644837144.75,P07,D06,0,0,1
318,-4.33,1644837144.765625,P07,D06,0,0,1
319,-4.63,1644837144.78125,P07,D06,0,0,1
320,-4.95,1644837144.796875,P07,D06,0,0,1
321,-5.22,1644837144.8125,P07,D06,0,0,1
322,-5.36,1644837144.828125,P07,D06,0,0,1
323,-5.3,1644837144.84375,P07,D06,0,0,1
324,-5.01,1644837144.859375,P07,D06,0,0,1
325,-4.49,1644837144.875,P07,D06,0,0,1
326,-3.8,1644837144.890625,P07,D06,0,0,1
327,-2.98,1644837144.90625,P07,D06,0,0,1
328,-2.06,1644837144.921875,P07,D06,0,0,1
329,-1.09,1644837144.9375,P07,D06,0,0,1
330,-0.12,1644837144.953125,P07,D06,0,0,1
331,0.79,1644837144.96875,P07,D06,0,0,1
332,1.58,1644837144.984375,P07,D06,0,0,1
333,2.19,1644837145.0,P07,D06,0,0,1
334,2.59,1644837145.015625,P07,D06,0,0,1
335,2.73,1644837145.03125,P07,D06,0,0,1
336,2.63,1644837145.046875,P07,D06,0,0,1
337,2.25,1644837145.0625,P07,D06,0,0,1
338,1.61,1644837145.078125,P07,D06,0,0,1
339,0.74,1644837145.09375,P07,D06,0,0,1
340,-0.31,1644837145.109375,P07,D06,0,0,1
341,-1.45,1644837145.125,P07,D06,0,0,1
342,-2.59,1644837145.140625,P07,D06,0,0,1
343,-3.63,1644837145.15625,P07,D06,0,0,1
344,-4.5,1644837145.171875,P07,D06,0,0,1
345,-5.15,1644837145.1875,P07,D06,0,0,1
346,-5.6,1644837145.203125,P07,D06,0,0,1
347,-5.89,1644837145.21875,P07,D06,0,0,1
348,-6.08,1644837145.234375,P07,D06,0,0,1
349,-6.23,1644837145.25,P07,D06,0,0,1
350,-6.36,1644837145.265625,P07,D06,0,0,1
351,-6.46,1644837145.28125,P07,D06,0,0,1
352,-6.52,1644837145.296875,P07,D06,0,0,1
353,-6.5,1644837145.3125,P07,D06,0,0,1
354,-6.42,1644837145.328125,P07,D06,0,0,1
355,-6.27,1644837145.34375,P07,D06,0,0,1
356,-6.09,1644837145.359375,P07,D06,0,0,1
357,-5.88,1644837145.375,P07,D06,0,0,1
358,-5.62,1644837145.390625,P07,D06,0,0,1
359,-5.33,1644837145.40625,P07,D06,0,0,1
360,-5.02,1644837145.421875,P07,D06,0,0,1
361,-4.71,1644837145.4375,P07,D06,0,0,1
362,-4.41,1644837145.453125,P07,D06,0,0,1
363,-4.14,1644837145.46875,P07,D06,0,0,1
364,-3.88,1644837145.484375,P07,D06,0,0,1
365,-3.61,1644837145.5,P07,D06,0,0,1
366,-3.31,1644837145.515625,P07,D06,0,0,1
367,-3.04,1644837145.53125,P07,D06,0,0,1
368,-2.83,1644837145.546875,P07,D06,0,0,1
369,-2.73,1644837145.5625,P07,D06,0,0,1
370,-2.73,1644837145.578125,P07,D06,0,0,1
371,-2.77,1644837145.59375,P07,D06,0,0,1
372,-2.76,1644837145.609375,P07,D06,0,0,1
373,-2.66,1644837145.625,P07,D06,0,0,1
374,-2.49,1644837145.640625,P07,D06,0,0,1
375,-2.34,1644837145.65625,P07,D06,0,0,1
376,-2.25,1644837145.671875,P07,D06,0,0,1
377,-2.21,1644837145.6875,P07,D06,0,0,1
378,-2.18,1644837145.703125,P07,D06,0,0,1
379,-2.06,1644837145.71875,P07,D06,0,0,1
380,-1.81,1644837145.734375,P07,D06,0,0,1
381,-1.44,1644837145.75,P07,D06,0,0,1
382,-1.03,1644837145.765625,P07,D06,0,0,1
383,-0.65,1644837145.78125,P07,D06,0,0,1
384,-0.31,1644837145.796875,P07,D06,0,0,1
385,-0.0,1644837145.8125,P07,D06,0,0,1
386,0.31,1644837145.828125,P07,D06,0,0,1
387,0.63,1644837145.84375,P07,D06,0,0,1
388,0.93,1644837145.859375,P07,D06,0,0,1
389,1.14,1644837145.875,P07,D06,0,0,1
390,1.21,1644837145.890625,P07,D06,0,0,1
391,1.12,1644837145.90625,P07,D06,0,0,1
392,0.86,1644837145.921875,P07,D06,0,0,1
393,0.48,1644837145.9375,P07,D06,0,0,1
394,0.01,1644837145.953125,P07,D06,0,0,1
395,-0.47,1644837145.96875,P07,D06,0,0,1
396,-0.87,1644837145.984375,P07,D06,0,0,1
397,-1.07,1644837146.0,P07,D06,0,0,1
398,-0.99,1644837146.015625,P07,D06,0,0,1
399,-0.64,1644837146.03125,P07,D06,0,0,1
400,-0.1,1644837146.046875,P07,D06,0,0,1
401,0.46,1644837146.0625,P07,D06,0,0,1
402,0.9,1644837146.078125,P07,D06,0,0,1
403,1.1,1644837146.09375,P07,D06,0,0,1
404,1.05,1644837146.109375,P07,D06,0,0,1
405,0.82,1644837146.125,P07,D06,0,0,1
406,0.51,1644837146.140625,P07,D06,0,0,1
407,0.24,1644837146.15625,P07,D06,0,0,1
408,0.06,1644837146.171875,P07,D06,0,0,1
409,-0.0,1644837146.1875,P07,D06,0,0,1
410,0.05,1644837146.203125,P07,D06,0,0,1
411,0.2,1644837146.21875,P07,D06,0,0,1
412,0.41,1644837146.234375,P07,D06,0,0,1
413,0.61,1644837146.25,P07,D06,0,0,1
414,0.74,1644837146.265625,P07,D06,0,0,1
415,0.77,1644837146.28125,P07,D06,0,0,1
416,0.73,1644837146.296875,P07,D06,0,0,1
417,0.73,1644837146.3125,P07,D06,0,0,1
418,0.9,1644837146.328125,P07,D06,0,0,1
419,1.31,1644837146.34375,P07,D06,0,0,1
420,1.92,1644837146.359375,P07,D06,0,0,1
421,2.61,1644837146.375,P07,D06,0,0,1
422,3.2,1644837146.390625,P07,D06,0,0,1
423,3.54,1644837146.40625,P07,D06,0,0,1
424,3.62,1644837146.421875,P07,D06,0,0,1
425,3.49,1644837146.4375,P07,D06,0,0,1
426,3.25,1644837146.453125,P07,D06,0,0,1
427,2.98,1644837146.46875,P07,D06,0,0,1
428,2.7,1644837146.484375,P07,D06,0,0,1
429,2.41,1644837146.5,P07,D06,0,0,1
430,2.16,1644837146.515625,P07,D06,0,0,1
431,2.0,1644837146.53125,P07,D06,0,0,1
432,2.0,1644837146.546875,P07,D06,0,0,1
433,2.15,1644837146.5625,P07,D06,0,0,1
434,2.36,1644837146.578125,P07,D06,0,0,1
435,2.49,1644837146.59375,P07,D06,0,0,1
436,2.43,1644837146.609375,P07,D06,0,0,1
437,2.18,1644837146.625,P07,D06,0,0,1
438,1.83,1644837146.640625,P07,D06,0,0,1
439,1.52,1644837146.65625,P07,D06,0,0,1
440,1.39,1644837146.671875,P07,D06,0,0,1
441,1.46,1644837146.6875,P07,D06,0,0,1
442,1.68,1644837146.703125,P07,D06,0,0,1
443,1.9,1644837146.71875,P07,D06,0,0,1
444,1.99,1644837146.734375,P07,D06,0,0,1
445,1.85,1644837146.75,P07,D06,0,0,1
446,1.47,1644837146.765625,P07,D06,0,0,1
447,0.9,1644837146.78125,P07,D06,0,0,1
448,0.25,1644837146.796875,P07,D06,0,0,1
449,-0.37,1644837146.8125,P07,D06,0,0,1
450,-0.87,1644837146.828125,P07,D06,0,0,1
451,-1.2,1644837146.84375,P07,D06,0,0,1
452,-1.32,1644837146.859375,P07,D06,0,0,1
453,-1.28,1644837146.875,P07,D06,0,0,1
454,-1.12,1644837146.890625,P07,D06,0,0,1
455,-0.93,1644837146.90625,P07,D06,0,0,1
456,-0.82,1644837146.921875,P07,D06,0,0,1
457,-0.85,1644837146.9375,P07,D06,0,0,1
458,-1.04,1644837146.953125,P07,D06,0,0,1
459,-1.32,1644837146.96875,P07,D06,0,0,1
460,-1.57,1644837146.984375,P07,D06,0,0,1
461,-1.67,1644837147.0,P07,D06,0,0,1
462,-1.56,1644837147.015625,P07,D06,0,0,1
463,-1.25,1644837147.03125,P07,D06,0,0,1
464,-0.86,1644837147.046875,P07,D06,0,0,1
465,-0.51,1644837147.0625,P07,D06,0,0,1
466,-0.3,1644837147.078125,P07,D06,0,0,1
467,-0.24,1644837147.09375,P07,D06,0,0,1
468,-0.26,1644837147.109375,P07,D06,0,0,1
469,-0.27,1644837147.125,P07,D06,0,0,1
470,-0.17,1644837147.140625,P07,D06,0,0,1
471,0.03,1644837147.15625,P07,D06,0,0,1
472,0.31,1644837147.171875,P07,D06,0,0,1
473,0.62,1644837147.1875,P07,D06,0,0,1
474,0.91,1644837147.203125,P07,D06,0,0,1
475,1.15,1644837147.21875,P07,D06,0,0,1
476,1.34,1644837147.234375,P07,D06,0,0,1
477,1.45,1644837147.25,P07,D06,0,0,1
478,1.46,1644837147.265625,P07,D06,0,0,1
479,1.36,1644837147.28125,P07,D06,0,0,1
480,1.13,1644837147.296875,P07,D06,0,0,1
481,0.82,1644837147.3125,P07,D06,0,0,1
482,0.5,1644837147.328125,P07,D06,0,0,1
483,0.23,1644837147.34375,P07,D06,0,0,1
484,0.07,1644837147.359375,P07,D06,0,0,1
485,0.06,1644837147.375,P07,D06,0,0,1
486,0.21,1644837147.390625,P07,D06,0,0,1
487,0.52,1644837147.40625,P07,D06,0,0,1
488,0.98,1644837147.421875,P07,D06,0,0,1
489,1.56,1644837147.4375,P07,D06,0,0,1
490,2.21,1644837147.453125,P07,D06,0,0,1
491,2.83,1644837147.46875,P07,D06,0,0,1
492,3.32,1644837147.484375,P07,D06,0,0,1
493,3.62,1644837147.5,P07,D06,0,0,1
494,3.72,1644837147.515625,P07,D06,0,0,1
495,3.69,1644837147.53125,P07,D06,0,0,1
496,3.64,1644837147.546875,P07,D06,0,0,1
497,3.64,1644837147.5625,P07,D06,0,0,1
498,3.74,1644837147.578125,P07,D06,0,0,1
499,3.91,1644837147.59375,P07,D06,0,0,1
500,4.08,1644837147.609375,P07,D06,0,0,1
501,4.17,1644837147.625,P07,D06,0,0,1
502,4.08,1644837147.640625,P07,D06,0,0,1
503,3.8,1644837147.65625,P07,D06,0,0,1
504,3.36,1644837147.671875,P07,D06,0,0,1
505,2.86,1644837147.6875,P07,D06,0,0,1
506,2.4,1644837147.703125,P07,D06,0,0,1
507,2.01,1644837147.71875,P07,D06,0,0,1
508,1.67,1644837147.734375,P07,D06,0,0,1
509,1.28,1644837147.75,P07,D06,0,0,1
510,0.79,1644837147.765625,P07,D06,0,0,1
511,0.21,1644837147.78125,P07,D06,0,0,1
512,-0.4,1644837147.796875,P07,D06,0,0,1
513,-0.94,1644837147.8125,P07,D06,0,0,1
514,-1.34,1644837147.828125,P07,D06,0,0,1
515,-1.59,1644837147.84375,P07,D06,0,0,1
516,-1.8,1644837147.859375,P07,D06,0,0,1
517,-2.09,1644837147.875,P07,D06,0,0,1
518,-2.56,1644837147.890625,P07,D06,0,0,1
519,-3.2,1644837147.90625,P07,D06,0,0,1
520,-3.95,1644837147.921875,P07,D06,0,0,1
521,-4.71,1644837147.9375,P07,D06,0,0,1
522,-5.36,1644837147.953125,P07,D06,0,0,1
523,-5.86,1644837147.96875,P07,D06,0,0,1
524,-6.21,1644837147.984375,P07,D06,0,0,1
525,-6.45,1644837148.0,P07,D06,0,0,1
526,-6.64,1644837148.015625,P07,D06,0,0,1
527,-6.79,1644837148.03125,P07,D06,0,0,1
528,-6.87,1644837148.046875,P07,D06,0,0,1
529,-6.77,1644837148.0625,P07,D06,0,0,1
530,-6.33,1644837148.078125,P07,D06,0,0,1
531,-5.46,1644837148.09375,P07,D06,0,0,1
532,-4.11,1644837148.109375,P07,D06,0,0,1
533,-2.34,1644837148.125,P07,D06,0,0,1
534,-0.3,1644837148.140625,P07,D06,0,0,1
535,1.82,1644837148.15625,P07,D06,0,0,1
536,3.84,1644837148.171875,P07,D06,0,0,1
537,5.55,1644837148.1875,P07,D06,0,0,1
538,6.84,1644837148.203125,P07,D06,0,0,1
539,7.61,1644837148.21875,P07,D06,0,0,1
540,7.88,1644837148.234375,P07,D06,0,0,1
541,7.73,1644837148.25,P07,D06,0,0,1
542,7.29,1644837148.265625,P07,D06,0,0,1
543,6.75,1644837148.28125,P07,D06,0,0,1
544,6.25,1644837148.296875,P07,D06,0,0,1
545,5.88,1644837148.3125,P07,D06,0,0,1
546,5.64,1644837148.328125,P07,D06,0,0,1
547,5.46,1644837148.34375,P07,D06,0,0,1
548,5.31,1644837148.359375,P07,D06,0,0,1
549,5.18,1644837148.375,P07,D06,0,0,1
550,5.09,1644837148.390625,P07,D06,0,0,1
551,5.07,1644837148.40625,P07,D06,0,0,1
552,5.08,1644837148.421875,P07,D06,0,0,1
553,5.0,1644837148.4375,P07,D06,0,0,1
554,4.67,1644837148.453125,P07,D06,0,0,1
555,3.92,1644837148.46875,P07,D06,0,0,1
556,2.68,1644837148.484375,P07,D06,0,0,1
557,0.96,1644837148.5,P07,D06,0,0,1
558,-1.16,1644837148.515625,P07,D06,0,0,1
559,-3.52,1644837148.53125,P07,D06,0,0,1
560,-5.98,1644837148.546875,P07,D06,0,0,1
561,-8.39,1644837148.5625,P07,D06,0,0,1
562,-10.61,1644837148.578125,P07,D06,0,0,1
563,-12.5,1644837148.59375,P07,D06,0,0,1
564,-13.9,1644837148.609375,P07,D06,0,0,1
565,-14.67,1644837148.625,P07,D06,0,0,1
566,-14.76,1644837148.640625,P07,D06,0,0,1
567,-14.18,1644837148.65625,P07,D06,0,0,1
568,-13.12,1644837148.671875,P07,D06,0,0,1
569,-11.82,1644837148.6875,P07,D06,0,0,1
570,-10.51,1644837148.703125,P07,D06,0,0,1
571,-9.26,1644837148.71875,P07,D06,0,0,1
572,-7.96,1644837148.734375,P07,D06,0,0,1
573,-6.33,1644837148.75,P07,D06,0,0,1
574,-4.11,1644837148.765625,P07,D06,0,0,1
575,-1.27,1644837148.78125,P07,D06,0,0,1
576,1.88,1644837148.796875,P07,D06,0,0,1
577,4.76,1644837148.8125,P07,D06,0,0,1
578,6.75,1644837148.828125,P07,D06,0,0,1
579,7.52,1644837148.84375,P07,D06,0,0,1
580,7.09,1644837148.859375,P07,D06,0,0,1
581,5.86,1644837148.875,P07,D06,0,0,1
582,4.36,1644837148.890625,P07,D06,0,0,1
583,3.0,1644837148.90625,P07,D06,0,0,1
584,1.98,1644837148.921875,P07,D06,0,0,1
585,1.29,1644837148.9375,P07,D06,0,0,1
586,0.86,1644837148.953125,P07,D06,0,0,1
587,0.65,1644837148.96875,P07,D06,0,0,1
588,0.72,1644837148.984375,P07,D06,0,0,1
589,1.04,1644837149.0,P07,D06,0,0,1
590,1.51,1644837149.015625,P07,D06,0,0,1
591,1.89,1644837149.03125,P07,D06,0,0,1
592,1.95,1644837149.046875,P07,D06,0,0,1
593,1.55,1644837149.0625,P07,D06,0,0,1
594,0.77,1644837149.078125,P07,D06,0,0,1
595,-0.19,1644837149.09375,P07,D06,0,0,1
596,-1.03,1644837149.109375,P07,D06,0,0,1
597,-1.53,1644837149.125,P07,D06,0,0,1
598,-1.59,1644837149.140625,P07,D06,0,0,1
599,-1.25,1644837149.15625,P07,D06,0,0,1
600,-0.67,1644837149.171875,P07,D06,0,0,1
601,-0.04,1644837149.1875,P07,D06,0,0,1
602,0.44,1644837149.203125,P07,D06,0,0,1
603,0.65,1644837149.21875,P07,D06,0,0,1
604,0.58,1644837149.234375,P07,D06,0,0,1
605,0.29,1644837149.25,P07,D06,0,0,1
606,-0.04,1644837149.265625,P07,D06,0,0,1
607,-0.24,1644837149.28125,P07,D06,0,0,1
608,-0.21,1644837149.296875,P07,D06,0,0,1
609,0.01,1644837149.3125,P07,D06,0,0,1
610,0.33,1644837149.328125,P07,D06,0,0,1
611,0.64,1644837149.34375,P07,D06,0,0,1
612,0.92,1644837149.359375,P07,D06,0,0,1
613,1.21,1644837149.375,P07,D06,0,0,1
614,1.61,1644837149.390625,P07,D06,0,0,1
615,2.12,1644837149.40625,P07,D06,0,0,1
616,2.66,1644837149.421875,P07,D06,0,0,1
617,3.04,1644837149.4375,P07,D06,0,0,1
618,3.12,1644837149.453125,P07,D06,0,0,1
619,2.87,1644837149.46875,P07,D06,0,0,1
620,2.41,1644837149.484375,P07,D06,0,0,1
621,1.97,1644837149.5,P07,D06,0,0,1
622,1.72,1644837149.515625,P07,D06,0,0,1
623,1.7,1644837149.53125,P07,D06,0,0,1
624,1.81,1644837149.546875,P07,D06,0,0,1
625,1.88,1644837149.5625,P07,D06,0,0,1
626,1.8,1644837149.578125,P07,D06,0,0,1
627,1.57,1644837149.59375,P07,D06,0,0,1
628,1.32,1644837149.609375,P07,D06,0,0,1
629,1.2,1644837149.625,P07,D06,0,0,1
630,1.25,1644837149.640625,P07,D06,0,0,1
631,1.41,1644837149.65625,P07,D06,0,0,1
632,1.51,1644837149.671875,P07,D06,0,0,1
633,1.37,1644837149.6875,P07,D06,0,0,1
634,0.96,1644837149.703125,P07,D06,0,0,1
635,0.35,1644837149.71875,P07,D06,0,0,1
636,-0.29,1644837149.734375,P07,D06,0,0,1
637,-0.79,1644837149.75,P07,D06,0,0,1
638,-1.04,1644837149.765625,P07,D06,0,0,1
639,-1.08,1644837149.78125,P07,D06,0,0,1
640,-1.02,1644837149.796875,P07,D06,0,0,1
641,-0.98,1644837149.8125,P07,D06,0,0,1
642,-1.04,1644837149.828125,P07,D06,0,0,1
643,-1.22,1644837149.84375,P07,D06,0,0,1
644,-1.42,1644837149.859375,P07,D06,0,0,1
645,-1.56,1644837149.875,P07,D06,0,0,1
646,-1.56,1644837149.890625,P07,D06,0,0,1
647,-1.42,1644837149.90625,P07,D06,0,0,1
648,-1.25,1644837149.921875,P07,D06,0,0,1
649,-1.18,1644837149.9375,P07,D06,0,0,1
650,-1.29,1644837149.953125,P07,D06,0,0,1
651,-1.55,1644837149.96875,P07,D06,0,0,1
652,-1.83,1644837149.984375,P07,D06,0,0,1
653,-1.94,1644837150.0,P07,D06,0,0,1
654,-1.76,1644837150.015625,P07,D06,0,0,1
655,-1.33,1644837150.03125,P07,D06,0,0,1
656,-0.82,1644837150.046875,P07,D06,0,0,1
657,-0.43,1644837150.0625,P07,D06,0,0,1
658,-0.33,1644837150.078125,P07,D06,0,0,1
659,-0.48,1644837150.09375,P07,D06,0,0,1
660,-0.78,1644837150.109375,P07,D06,0,0,1
661,-1.05,1644837150.125,P07,D06,0,0,1
662,-1.19,1644837150.140625,P07,D06,0,0,1
663,-1.18,1644837150.15625,P07,D06,0,0,1
664,-1.08,1644837150.171875,P07,D06,0,0,1
665,-0.97,1644837150.1875,P07,D06,0,0,1
666,-0.86,1644837150.203125,P07,D06,0,0,1
667,-0.74,1644837150.21875,P07,D06,0,0,1
668,-0.61,1644837150.234375,P07,D06,0,0,1
669,-0.46,1644837150.25,P07,D06,0,0,1
670,-0.36,1644837150.265625,P07,D06,0,0,1
671,-0.34,1644837150.28125,P07,D06,0,0,1
672,-0.39,1644837150.296875,P07,D06,0,0,1
673,-0.48,1644837150.3125,P07,D06,0,0,1
674,-0.51,1644837150.328125,P07,D06,0,0,1
675,-0.42,1644837150.34375,P07,D06,0,0,1
676,-0.23,1644837150.359375,P07,D06,0,0,1
677,-0.0,1644837150.375,P07,D06,0,0,1
678,0.15,1644837150.390625,P07,D06,0,0,1
679,0.15,1644837150.40625,P07,D06,0,0,1
680,0.0,1644837150.421875,P07,D06,0,0,1
681,-0.18,1644837150.4375,P07,D06,0,0,1
682,-0.27,1644837150.453125,P07,D06,0,0,1
683,-0.18,1644837150.46875,P07,D06,0,0,1
684,0.08,1644837150.484375,P07,D06,0,0,1
685,0.43,1644837150.5,P07,D06,0,0,1
686,0.69,1644837150.515625,P07,D06,0,0,1
687,0.75,1644837150.53125,P07,D06,0,0,1
688,0.6,1644837150.546875,P07,D06,0,0,1
689,0.29,1644837150.5625,P07,D06,0,0,1
690,-0.06,1644837150.578125,P07,D06,0,0,1
691,-0.37,1644837150.59375,P07,D06,0,0,1
692,-0.6,1644837150.609375,P07,D06,0,0,1
693,-0.75,1644837150.625,P07,D06,0,0,1
694,-0.82,1644837150.640625,P07,D06,0,0,1
695,-0.8,1644837150.65625,P07,D06,0,0,1
696,-0.71,1644837150.671875,P07,D06,0,0,1
697,-0.55,1644837150.6875,P07,D06,0,0,1
698,-0.34,1644837150.703125,P07,D06,0,0,1
699,-0.11,1644837150.71875,P07,D06,0,0,1
700,0.12,1644837150.734375,P07,D06,0,0,1
701,0.32,1644837150.75,P07,D06,0,0,1
702,0.48,1644837150.765625,P07,D06,0,0,1
703,0.54,1644837150.78125,P07,D06,0,0,1
704,0.46,1644837150.796875,P07,D06,0,0,1
705,0.24,1644837150.8125,P07,D06,0,0,1
706,-0.09,1644837150.828125,P07,D06,0,0,1
707,-0.44,1644837150.84375,P07,D06,0,0,1
708,-0.72,1644837150.859375,P07,D06,0,0,1
709,-0.9,1644837150.875,P07,D06,0,0,1
710,-0.95,1644837150.890625,P07,D06,0,0,1
711,-0.89,1644837150.90625,P07,D06,0,0,1
712,-0.74,1644837150.921875,P07,D06,0,0,1
713,-0.5,1644837150.9375,P07,D06,0,0,1
714,-0.19,1644837150.953125,P07,D06,0,0,1
715,0.19,1644837150.96875,P07,D06,0,0,1
716,0.56,1644837150.984375,P07,D06,0,0,1
717,0.85,1644837151.0,P07,D06,0,0,1
718,0.98,1644837151.015625,P07,D06,0,0,1
719,0.93,1644837151.03125,P07,D06,0,0,1
720,0.73,1644837151.046875,P07,D06,0,0,1
721,0.47,1644837151.0625,P07,D06,0,0,1
722,0.22,1644837151.078125,P07,D06,0,0,1
723,-0.01,1644837151.09375,P07,D06,0,0,1
724,-0.22,1644837151.109375,P07,D06,0,0,1
725,-0.45,1644837151.125,P07,D06,0,0,1
726,-0.71,1644837151.140625,P07,D06,0,0,1
727,-0.98,1644837151.15625,P07,D06,0,0,1
728,-1.22,1644837151.171875,P07,D06,0,0,1
729,-1.35,1644837151.1875,P07,D06,0,0,1
730,-1.35,1644837151.203125,P07,D06,0,0,1
731,-1.24,1644837151.21875,P07,D06,0,0,1
732,-1.06,1644837151.234375,P07,D06,0,0,1
733,-0.88,1644837151.25,P07,D06,0,0,1
734,-0.74,1644837151.265625,P07,D06,0,0,1
735,-0.65,1644837151.28125,P07,D06,0,0,1
736,-0.6,1644837151.296875,P07,D06,0,0,1
737,-0.57,1644837151.3125,P07,D06,0,0,1
738,-0.56,1644837151.328125,P07,D06,0,0,1
739,-0.56,1644837151.34375,P07,D06,0,0,1
740,-0.55,1644837151.359375,P07,D06,0,0,1
741,-0.52,1644837151.375,P07,D06,0,0,1
742,-0.43,1644837151.390625,P07,D06,0,0,1
743,-0.32,1644837151.40625,P07,D06,0,0,1
744,-0.19,1644837151.421875,P07,D06,0,0,1
745,-0.03,1644837151.4375,P07,D06,0,0,1
746,0.18,1644837151.453125,P07,D06,0,0,1
747,0.44,1644837151.46875,P07,D06,0,0,1
748,0.73,1644837151.484375,P07,D06,0,0,1
749,1.0,1644837151.5,P07,D06,0,0,1
750,1.18,1644837151.515625,P07,D06,0,0,1
751,1.23,1644837151.53125,P07,D06,0,0,1
752,1.19,1644837151.546875,P07,D06,0,0,1
753,1.13,1644837151.5625,P07,D06,0,0,1
754,1.11,1644837151.578125,P07,D06,0,0,1
755,1.12,1644837151.59375,P07,D06,0,0,1
756,1.11,1644837151.609375,P07,D06,0,0,1
757,1.0,1644837151.625,P07,D06,0,0,1
758,0.76,1644837151.640625,P07,D06,0,0,1
759,0.44,1644837151.65625,P07,D06,0,0,1
760,0.15,1644837151.671875,P07,D06,0,0,1
761,-0.0,1644837151.6875,P07,D06,0,0,1
762,0.01,1644837151.703125,P07,D06,0,0,1
763,0.15,1644837151.71875,P07,D06,0,0,1
764,0.32,1644837151.734375,P07,D06,0,0,1
765,0.42,1644837151.75,P07,D06,0,0,1
766,0.41,1644837151.765625,P07,D06,0,0,1
767,0.3,1644837151.78125,P07,D06,0,0,1
768,0.11,1644837151.796875,P07,D06,0,0,1
769,-0.11,1644837151.8125,P07,D06,0,0,1
770,-0.35,1644837151.828125,P07,D06,0,0,1
771,-0.56,1644837151.84375,P07,D06,0,0,1
772,-0.72,1644837151.859375,P07,D06,0,0,1
773,-0.81,1644837151.875,P07,D06,0,0,1
774,-0.82,1644837151.890625,P07,D06,0,0,1
775,-0.78,1644837151.90625,P07,D06,0,0,1
776,-0.71,1644837151.921875,P07,D06,0,0,1
777,-0.61,1644837151.9375,P07,D06,0,0,1
778,-0.46,1644837151.953125,P07,D06,0,0,1
779,-0.21,1644837151.96875,P07,D06,0,0,1
780,0.11,1644837151.984375,P07,D06,0,0,1
781,0.45,1644837152.0,P07,D06,0,0,1
782,0.71,1644837152.015625,P07,D06,0,0,1
783,0.79,1644837152.03125,P07,D06,0,0,1
784,0.67,1644837152.046875,P07,D06,0,0,1
785,0.41,1644837152.0625,P07,D06,0,0,1
786,0.13,1644837152.078125,P07,D06,0,0,1
787,-0.09,1644837152.09375,P07,D06,0,0,1
788,-0.22,1644837152.109375,P07,D06,0,0,1
789,-0.31,1644837152.125,P07,D06,0,0,1
790,-0.41,1644837152.140625,P07,D06,0,0,1
791,-0.54,1644837152.15625,P07,D06,0,0,1
792,-0.66,1644837152.171875,P07,D06,0,0,1
793,-0.73,1644837152.1875,P07,D06,0,0,1
794,-0.73,1644837152.203125,P07,D06,0,0,1
795,-0.7,1644837152.21875,P07,D06,0,0,1
796,-0.7,1644837152.234375,P07,D06,0,0,1
797,-0.74,1644837152.25,P07,D06,0,0,1
798,-0.78,1644837152.265625,P07,D06,0,0,1
799,-0.7,1644837152.28125,P07,D06,0,0,1
800,-0.42,1644837152.296875,P07,D06,0,0,1
801,0.05,1644837152.3125,P07,D06,0,0,1
802,0.58,1644837152.328125,P07,D06,0,0,1
803,0.96,1644837152.34375,P07,D06,0,0,1
804,1.02,1644837152.359375,P07,D06,0,0,1
805,0.72,1644837152.375,P07,D06,0,0,1
806,0.19,1644837152.390625,P07,D06,0,0,1
807,-0.37,1644837152.40625,P07,D06,0,0,1
808,-0.74,1644837152.421875,P07,D06,0,0,1
809,-0.84,1644837152.4375,P07,D06,0,0,1
810,-0.69,1644837152.453125,P07,D06,0,0,1
811,-0.43,1644837152.46875,P07,D06,0,0,1
812,-0.17,1644837152.484375,P07,D06,0,0,1
813,-0.02,1644837152.5,P07,D06,0,0,1
814,0.03,1644837152.515625,P07,D06,0,0,1
815,0.05,1644837152.53125,P07,D06,0,0,1
816,0.1,1644837152.546875,P07,D06,0,0,1
817,0.21,1644837152.5625,P07,D06,0,0,1
818,0.37,1644837152.578125,P07,D06,0,0,1
819,0.56,1644837152.59375,P07,D06,0,0,1
820,0.75,1644837152.609375,P07,D06,0,0,1
821,0.89,1644837152.625,P07,D06,0,0,1
822,0.96,1644837152.640625,P07,D06,0,0,1
823,0.93,1644837152.65625,P07,D06,0,0,1
824,0.79,1644837152.671875,P07,D06,0,0,1
825,0.55,1644837152.6875,P07,D06,0,0,1
826,0.22,1644837152.703125,P07,D06,0,0,1
827,-0.14,1644837152.71875,P07,D06,0,0,1
828,-0.48,1644837152.734375,P07,D06,0,0,1
829,-0.73,1644837152.75,P07,D06,0,0,1
830,-0.87,1644837152.765625,P07,D06,0,0,1
831,-0.88,1644837152.78125,P07,D06,0,0,1
832,-0.78,1644837152.796875,P07,D06,0,0,1
833,-0.58,1644837152.8125,P07,D06,0,0,1
834,-0.29,1644837152.828125,P07,D06,0,0,1
835,0.04,1644837152.84375,P07,D06,0,0,1
836,0.36,1644837152.859375,P07,D06,0,0,1
837,0.57,1644837152.875,P07,D06,0,0,1
838,0.61,1644837152.890625,P07,D06,0,0,1
839,0.47,1644837152.90625,P07,D06,0,0,1
840,0.21,1644837152.921875,P07,D06,0,0,1
841,-0.05,1644837152.9375,P07,D06,0,0,1
842,-0.18,1644837152.953125,P07,D06,0,0,1
843,-0.14,1644837152.96875,P07,D06,0,0,1
844,0.01,1644837152.984375,P07,D06,0,0,1
845,0.18,1644837153.0,P07,D06,0,0,1
846,0.28,1644837153.015625,P07,D06,0,0,1
847,0.28,1644837153.03125,P07,D06,0,0,1
848,0.23,1644837153.046875,P07,D06,0,0,1
849,0.2,1644837153.0625,P07,D06,0,0,1
850,0.19,1644837153.078125,P07,D06,0,0,1
851,0.17,1644837153.09375,P07,D06,0,0,1
852,0.07,1644837153.109375,P07,D06,0,0,1
853,-0.13,1644837153.125,P07,D06,0,0,1
854,-0.41,1644837153.140625,P07,D06,0,0,1
855,-0.66,1644837153.15625,P07,D06,0,0,1
856,-0.79,1644837153.171875,P07,D06,0,0,1
857,-0.76,1644837153.1875,P07,D06,0,0,1
858,-0.55,1644837153.203125,P07,D06,0,0,1
859,-0.2,1644837153.21875,P07,D06,0,0,1
860,0.22,1644837153.234375,P07,D06,0,0,1
861,0.66,1644837153.25,P07,D06,0,0,1
862,1.04,1644837153.265625,P07,D06,0,0,1
863,1.27,1644837153.28125,P07,D06,0,0,1
864,1.29,1644837153.296875,P07,D06,0,0,1
865,1.05,1644837153.3125,P07,D06,0,0,1
866,0.62,1644837153.328125,P07,D06,0,0,1
867,0.12,1644837153.34375,P07,D06,0,0,1
868,-0.27,1644837153.359375,P07,D06,0,0,1
869,-0.44,1644837153.375,P07,D06,0,0,1
870,-0.4,1644837153.390625,P07,D06,0,0,1
871,-0.23,1644837153.40625,P07,D06,0,0,1
872,-0.11,1644837153.421875,P07,D06,0,0,1
873,-0.13,1644837153.4375,P07,D06,0,0,1
874,-0.32,1644837153.453125,P07,D06,0,0,1
875,-0.56,1644837153.46875,P07,D06,0,0,1
876,-0.75,1644837153.484375,P07,D06,0,0,1
877,-0.77,1644837153.5,P07,D06,0,0,1
878,-0.6,1644837153.515625,P07,D06,0,0,1
879,-0.29,1644837153.53125,P07,D06,0,0,1
880,0.07,1644837153.546875,P07,D06,0,0,1
881,0.41,1644837153.5625,P07,D06,0,0,1
882,0.68,1644837153.578125,P07,D06,0,0,1
883,0.85,1644837153.59375,P07,D06,0,0,1
884,0.87,1644837153.609375,P07,D06,0,0,1
885,0.73,1644837153.625,P07,D06,0,0,1
886,0.44,1644837153.640625,P07,D06,0,0,1
887,0.05,1644837153.65625,P07,D06,0,0,1
888,-0.35,1644837153.671875,P07,D06,0,0,1
889,-0.62,1644837153.6875,P07,D06,0,0,1
890,-0.72,1644837153.703125,P07,D06,0,0,1
891,-0.61,1644837153.71875,P07,D06,0,0,1
892,-0.39,1644837153.734375,P07,D06,0,0,1
893,-0.15,1644837153.75,P07,D06,0,0,1
894,0.01,1644837153.765625,P07,D06,0,0,1
895,0.04,1644837153.78125,P07,D06,0,0,1
896,-0.04,1644837153.796875,P07,D06,0,0,1
897,-0.21,1644837153.8125,P07,D06,0,0,1
898,-0.38,1644837153.828125,P07,D06,0,0,1
899,-0.52,1644837153.84375,P07,D06,0,0,1
900,-0.57,1644837153.859375,P07,D06,0,0,1
901,-0.49,1644837153.875,P07,D06,0,0,1
902,-0.28,1644837153.890625,P07,D06,0,0,1
903,0.07,1644837153.90625,P07,D06,0,0,1
904,0.46,1644837153.921875,P07,D06,0,0,1
905,0.79,1644837153.9375,P07,D06,0,0,1
906,0.94,1644837153.953125,P07,D06,0,0,1
907,0.84,1644837153.96875,P07,D06,0,0,1
908,0.54,1644837153.984375,P07,D06,0,0,1
909,0.14,1644837154.0,P07,D06,0,0,1
910,-0.21,1644837154.015625,P07,D06,0,0,1
911,-0.43,1644837154.03125,P07,D06,0,0,1
912,-0.52,1644837154.046875,P07,D06,0,0,1
913,-0.52,1644837154.0625,P07,D06,0,0,1
914,-0.5,1644837154.078125,P07,D06,0,0,1
915,-0.5,1644837154.09375,P07,D06,0,0,1
916,-0.52,1644837154.109375,P07,D06,0,0,1
917,-0.52,1644837154.125,P07,D06,0,0,1
918,-0.47,1644837154.140625,P07,D06,0,0,1
919,-0.37,1644837154.15625,P07,D06,0,0,1
920,-0.24,1644837154.171875,P07,D06,0,0,1
921,-0.11,1644837154.1875,P07,D06,0,0,1
922,-0.04,1644837154.203125,P07,D06,0,0,1
923,-0.04,1644837154.21875,P07,D06,0,0,1
924,-0.11,1644837154.234375,P07,D06,0,0,1
925,-0.21,1644837154.25,P07,D06,0,0,1
926,-0.33,1644837154.265625,P07,D06,0,0,1
927,-0.4,1644837154.28125,P07,D06,0,0,1
928,-0.41,1644837154.296875,P07,D06,0,0,1
929,-0.35,1644837154.3125,P07,D06,0,0,1
930,-0.24,1644837154.328125,P07,D06,0,0,1
931,-0.11,1644837154.34375,P07,D06,0,0,1
932,-0.03,1644837154.359375,P07,D06,0,0,1
933,-0.04,1644837154.375,P07,D06,0,0,1
934,-0.19,1644837154.390625,P07,D06,0,0,1
935,-0.43,1644837154.40625,P07,D06,0,0,1
936,-0.69,1644837154.421875,P07,D06,0,0,1
937,-0.87,1644837154.4375,P07,D06,0,0,1
938,-0.88,1644837154.453125,P07,D06,0,0,1
939,-0.7,1644837154.46875,P07,D06,0,0,1
940,-0.41,1644837154.484375,P07,D06,0,0,1
941,-0.15,1644837154.5,P07,D06,0,0,1
942,-0.0,1644837154.515625,P07,D06,0,0,1
943,0.04,1644837154.53125,P07,D06,0,0,1
944,0.04,1644837154.546875,P07,D06,0,0,1
945,0.11,1644837154.5625,P07,D06,0,0,1
946,0.28,1644837154.578125,P07,D06,0,0,1
947,0.48,1644837154.59375,P07,D06,0,0,1
948,0.58,1644837154.609375,P07,D06,0,0,1
949,0.47,1644837154.625,P07,D06,0,0,1
950,0.13,1644837154.640625,P07,D06,0,0,1
951,-0.3,1644837154.65625,P07,D06,0,0,1
952,-0.66,1644837154.671875,P07,D06,0,0,1
953,-0.79,1644837154.6875,P07,D06,0,0,1
954,-0.67,1644837154.703125,P07,D06,0,0,1
955,-0.4,1644837154.71875,P07,D06,0,0,1
956,-0.11,1644837154.734375,P07,D06,0,0,1
957,0.11,1644837154.75,P07,D06,0,0,1
958,0.24,1644837154.765625,P07,D06,0,0,1
959,0.35,1644837154.78125,P07,D06,0,0,1
960,0.47,1644837154.796875,P07,D06,0,0,1
961,0.6,1644837154.8125,P07,D06,0,0,1
962,0.71,1644837154.828125,P07,D06,0,0,1
963,0.75,1644837154.84375,P07,D06,0,0,1
964,0.72,1644837154.859375,P07,D06,0,0,1
965,0.68,1644837154.875,P07,D06,0,0,1
966,0.71,1644837154.890625,P07,D06,0,0,1
967,0.81,1644837154.90625,P07,D06,0,0,1
968,0.95,1644837154.921875,P07,D06,0,0,1
969,1.07,1644837154.9375,P07,D06,0,0,1
970,1.13,1644837154.953125,P07,D06,0,0,1
971,1.16,1644837154.96875,P07,D06,0,0,1
972,1.23,1644837154.984375,P07,D06,0,0,1
973,1.36,1644837155.0,P07,D06,0,0,1
974,1.56,1644837155.015625,P07,D06,0,0,1
975,1.74,1644837155.03125,P07,D06,0,0,1
976,1.84,1644837155.046875,P07,D06,0,0,1
977,1.82,1644837155.0625,P07,D06,0,0,1
978,1.7,1644837155.078125,P07,D06,0,0,1
979,1.53,1644837155.09375,P07,D06,0,0,1
980,1.32,1644837155.109375,P07,D06,0,0,1
981,1.08,1644837155.125,P07,D06,0,0,1
982,0.78,1644837155.140625,P07,D06,0,0,1
983,0.45,1644837155.15625,P07,D06,0,0,1
984,0.13,1644837155.171875,P07,D06,0,0,1
985,-0.11,1644837155.1875,P07,D06,0,0,1
986,-0.24,1644837155.203125,P07,D06,0,0,1
987,-0.29,1644837155.21875,P07,D06,0,0,1
988,-0.36,1644837155.234375,P07,D06,0,0,1
989,-0.51,1644837155.25,P07,D06,0,0,1
990,-0.79,1644837155.265625,P07,D06,0,0,1
991,-1.15,1644837155.28125,P07,D06,0,0,1
992,-1.49,1644837155.296875,P07,D06,0,0,1
993,-1.73,1644837155.3125,P07,D06,0,0,1
994,-1.81,1644837155.328125,P07,D06,0,0,1
995,-1.72,1644837155.34375,P07,D06,0,0,1
996,-1.5,1644837155.359375,P07,D06,0,0,1
997,-1.17,1644837155.375,P07,D06,0,0,1
998,-0.79,1644837155.390625,P07,D06,0,0,1
999,-0.39,1644837155.40625,P07,D06,0,0,1
1000,-0.06,1644837155.421875,P07,D06,0,0,1
1001,0.14,1644837155.4375,P07,D06,0,0,1
1002,0.17,1644837155.453125,P07,D06,0,0,1
1003,0.06,1644837155.46875,P07,D06,0,0,1
1004,-0.11,1644837155.484375,P07,D06,0,0,1
1005,-0.24,1644837155.5,P07,D06,0,0,1
1006,-0.24,1644837155.515625,P07,D06,0,0,1
1007,-0.12,1644837155.53125,P07,D06,0,0,1
1008,0.08,1644837155.546875,P07,D06,0,0,1
1009,0.24,1644837155.5625,P07,D06,0,0,1
1010,0.28,1644837155.578125,P07,D06,0,0,1
1011,0.17,1644837155.59375,P07,D06,0,0,1
1012,-0.04,1644837155.609375,P07,D06,0,0,1
1013,-0.24,1644837155.625,P07,D06,0,0,1
1014,-0.33,1644837155.640625,P07,D06,0,0,1
1015,-0.29,1644837155.65625,P07,D06,0,0,1
1016,-0.16,1644837155.671875,P07,D06,0,0,1
1017,0.01,1644837155.6875,P07,D06,0,0,1
1018,0.12,1644837155.703125,P07,D06,0,0,1
1019,0.11,1644837155.71875,P07,D06,0,0,1
1020,0.0,1644837155.734375,P07,D06,0,0,1
1021,-0.16,1644837155.75,P07,D06,0,0,1
1022,-0.32,1644837155.765625,P07,D06,0,0,1
1023,-0.44,1644837155.78125,P07,D06,0,0,1
1024,-0.48,1644837155.796875,P07,D06,0,0,1
1025,-0.44,1644837155.8125,P07,D06,0,0,1
1026,-0.28,1644837155.828125,P07,D06,0,0,1
1027,0.01,1644837155.84375,P07,D06,0,0,1
1028,0.43,1644837155.859375,P07,D06,0,0,1
1029,0.91,1644837155.875,P07,D06,0,0,1
1030,1.3,1644837155.890625,P07,D06,0,0,1
1031,1.44,1644837155.90625,P07,D06,0,0,1
1032,1.25,1644837155.921875,P07,D06,0,0,1
1033,0.73,1644837155.9375,P07,D06,0,0,1
1034,0.04,1644837155.953125,P07,D06,0,0,1
1035,-0.63,1644837155.96875,P07,D06,0,0,1
1036,-1.08,1644837155.984375,P07,D06,0,0,1
1037,-1.23,1644837156.0,P07,D06,0,0,1
1038,-1.09,1644837156.015625,P07,D06,0,0,1
1039,-0.77,1644837156.03125,P07,D06,0,0,1
1040,-0.4,1644837156.046875,P07,D06,0,0,1
1041,-0.1,1644837156.0625,P07,D06,0,0,1
1042,0.05,1644837156.078125,P07,D06,0,0,1
1043,0.05,1644837156.09375,P07,D06,0,0,1
1044,-0.05,1644837156.109375,P07,D06,0,0,1
1045,-0.18,1644837156.125,P07,D06,0,0,1
1046,-0.25,1644837156.140625,P07,D06,0,0,1
1047,-0.23,1644837156.15625,P07,D06,0,0,1
1048,-0.08,1644837156.171875,P07,D06,0,0,1
1049,0.16,1644837156.1875,P07,D06,0,0,1
1050,0.42,1644837156.203125,P07,D06,0,0,1
1051,0.62,1644837156.21875,P07,D06,0,0,1
1052,0.68,1644837156.234375,P07,D06,0,0,1
1053,0.53,1644837156.25,P07,D06,0,0,1
1054,0.21,1644837156.265625,P07,D06,0,0,1
1055,-0.22,1644837156.28125,P07,D06,0,0,1
1056,-0.61,1644837156.296875,P07,D06,0,0,1
1057,-0.86,1644837156.3125,P07,D06,0,0,1
1058,-0.92,1644837156.328125,P07,D06,0,0,1
1059,-0.8,1644837156.34375,P07,D06,0,0,1
1060,-0.62,1644837156.359375,P07,D06,0,0,1
1061,-0.46,1644837156.375,P07,D06,0,0,1
1062,-0.4,1644837156.390625,P07,D06,0,0,1
1063,-0.43,1644837156.40625,P07,D06,0,0,1
1064,-0.51,1644837156.421875,P07,D06,0,0,1
1065,-0.56,1644837156.4375,P07,D06,0,0,1
1066,-0.54,1644837156.453125,P07,D06,0,0,1
1067,-0.44,1644837156.46875,P07,D06,0,0,1
1068,-0.25,1644837156.484375,P07,D06,0,0,1
1069,-0.01,1644837156.5,P07,D06,0,0,1
1070,0.26,1644837156.515625,P07,D06,0,0,1
1071,0.53,1644837156.53125,P07,D06,0,0,1
1072,0.76,1644837156.546875,P07,D06,0,0,1
1073,0.91,1644837156.5625,P07,D06,0,0,1
1074,0.99,1644837156.578125,P07,D06,0,0,1
1075,0.99,1644837156.59375,P07,D06,0,0,1
1076,0.95,1644837156.609375,P07,D06,0,0,1
1077,0.89,1644837156.625,P07,D06,0,0,1
1078,0.79,1644837156.640625,P07,D06,0,0,1
1079,0.67,1644837156.65625,P07,D06,0,0,1
1080,0.5,1644837156.671875,P07,D06,0,0,1
1081,0.31,1644837156.6875,P07,D06,0,0,1
1082,0.14,1644837156.703125,P07,D06,0,0,1
1083,0.04,1644837156.71875,P07,D06,0,0,1
1084,0.03,1644837156.734375,P07,D06,0,0,1
1085,0.07,1644837156.75,P07,D06,0,0,1
1086,0.11,1644837156.765625,P07,D06,0,0,1
1087,0.05,1644837156.78125,P07,D06,0,0,1
1088,-0.13,1644837156.796875,P07,D06,0,0,1
1089,-0.38,1644837156.8125,P07,D06,0,0,1
1090,-0.61,1644837156.828125,P07,D06,0,0,1
1091,-0.69,1644837156.84375,P07,D06,0,0,1
1092,-0.58,1644837156.859375,P07,D06,0,0,1
1093,-0.31,1644837156.875,P07,D06,0,0,1
1094,-0.01,1644837156.890625,P07,D06,0,0,1
1095,0.23,1644837156.90625,P07,D06,0,0,1
1096,0.32,1644837156.921875,P07,D06,0,0,1
1097,0.27,1644837156.9375,P07,D06,0,0,1
1098,0.11,1644837156.953125,P07,D06,0,0,1
1099,-0.08,1644837156.96875,P07,D06,0,0,1
1100,-0.24,1644837156.984375,P07,D06,0,0,1
1101,-0.33,1644837157.0,P07,D06,0,0,1
1102,-0.27,1644837157.015625,P07,D06,0,0,1
1103,-0.05,1644837157.03125,P07,D06,0,0,1
1104,0.36,1644837157.046875,P07,D06,0,0,1
1105,0.92,1644837157.0625,P07,D06,0,0,1
1106,1.51,1644837157.078125,P07,D06,0,0,1
1107,1.99,1644837157.09375,P07,D06,0,0,1
1108,2.2,1644837157.109375,P07,D06,0,0,1
1109,2.04,1644837157.125,P07,D06,0,0,1
1110,1.53,1644837157.140625,P07,D06,0,0,1
1111,0.81,1644837157.15625,P07,D06,0,0,1
1112,0.08,1644837157.171875,P07,D06,0,0,1
1113,-0.46,1644837157.1875,P07,D06,0,0,1
1114,-0.7,1644837157.203125,P07,D06,0,0,1
1115,-0.68,1644837157.21875,P07,D06,0,0,1
1116,-0.54,1644837157.234375,P07,D06,0,0,1
1117,-0.46,1644837157.25,P07,D06,0,0,1
1118,-0.56,1644837157.265625,P07,D06,0,0,1
1119,-0.82,1644837157.28125,P07,D06,0,0,1
1120,-1.12,1644837157.296875,P07,D06,0,0,1
1121,-1.31,1644837157.3125,P07,D06,0,0,1
1122,-1.29,1644837157.328125,P07,D06,0,0,1
1123,-1.08,1644837157.34375,P07,D06,0,0,1
1124,-0.81,1644837157.359375,P07,D06,0,0,1
1125,-0.61,1644837157.375,P07,D06,0,0,1
1126,-0.56,1644837157.390625,P07,D06,0,0,1
1127,-0.66,1644837157.40625,P07,D06,0,0,1
1128,-0.85,1644837157.421875,P07,D06,0,0,1
1129,-1.05,1644837157.4375,P07,D06,0,0,1
1130,-1.21,1644837157.453125,P07,D06,0,0,1
1131,-1.34,1644837157.46875,P07,D06,0,0,1
1132,-1.49,1644837157.484375,P07,D06,0,0,1
1133,-1.65,1644837157.5,P07,D06,0,0,1
1134,-1.77,1644837157.515625,P07,D06,0,0,1
1135,-1.76,1644837157.53125,P07,D06,0,0,1
1136,-1.54,1644837157.546875,P07,D06,0,0,1
1137,-1.11,1644837157.5625,P07,D06,0,0,1
1138,-0.57,1644837157.578125,P07,D06,0,0,1
1139,-0.04,1644837157.59375,P07,D06,0,0,1
1140,0.35,1644837157.609375,P07,D06,0,0,1
1141,0.55,1644837157.625,P07,D06,0,0,1
1142,0.56,1644837157.640625,P07,D06,0,0,1
1143,0.49,1644837157.65625,P07,D06,0,0,1
1144,0.42,1644837157.671875,P07,D06,0,0,1
1145,0.42,1644837157.6875,P07,D06,0,0,1
1146,0.51,1644837157.703125,P07,D06,0,0,1
1147,0.65,1644837157.71875,P07,D06,0,0,1
1148,0.79,1644837157.734375,P07,D06,0,0,1
1149,0.9,1644837157.75,P07,D06,0,0,1
1150,0.93,1644837157.765625,P07,D06,0,0,1
1151,0.91,1644837157.78125,P07,D06,0,0,1
1152,0.85,1644837157.796875,P07,D06,0,0,1
1153,0.8,1644837157.8125,P07,D06,0,0,1
1154,0.77,1644837157.828125,P07,D06,0,0,1
1155,0.77,1644837157.84375,P07,D06,0,0,1
1156,0.76,1644837157.859375,P07,D06,0,0,1
1157,0.71,1644837157.875,P07,D06,0,0,1
1158,0.58,1644837157.890625,P07,D06,0,0,1
1159,0.37,1644837157.90625,P07,D06,0,0,1
1160,0.12,1644837157.921875,P07,D06,0,0,1
1161,-0.12,1644837157.9375,P07,D06,0,0,1
1162,-0.3,1644837157.953125,P07,D06,0,0,1
1163,-0.39,1644837157.96875,P07,D06,0,0,1
1164,-0.41,1644837157.984375,P07,D06,0,0,1
1165,-0.41,1644837158.0,P07,D06,0,0,1
1166,-0.44,1644837158.015625,P07,D06,0,0,1
1167,-0.56,1644837158.03125,P07,D06,0,0,1
1168,-0.73,1644837158.046875,P07,D06,0,0,1
1169,-0.9,1644837158.0625,P07,D06,0,0,1
1170,-0.97,1644837158.078125,P07,D06,0,0,1
1171,-0.89,1644837158.09375,P07,D06,0,0,1
1172,-0.66,1644837158.109375,P07,D06,0,0,1
1173,-0.35,1644837158.125,P07,D06,0,0,1
1174,-0.07,1644837158.140625,P07,D06,0,0,1
1175,0.09,1644837158.15625,P07,D06,0,0,1
1176,0.13,1644837158.171875,P07,D06,0,0,1
1177,0.11,1644837158.1875,P07,D06,0,0,1
1178,0.1,1644837158.203125,P07,D06,0,0,1
1179,0.16,1644837158.21875,P07,D06,0,0,1
1180,0.28,1644837158.234375,P07,D06,0,0,1
1181,0.4,1644837158.25,P07,D06,0,0,1
1182,0.47,1644837158.265625,P07,D06,0,0,1
1183,0.48,1644837158.28125,P07,D06,0,0,1
1184,0.5,1644837158.296875,P07,D06,0,0,1
1185,0.56,1644837158.3125,P07,D06,0,0,1
1186,0.7,1644837158.328125,P07,D06,0,0,1
1187,0.87,1644837158.34375,P07,D06,0,0,1
1188,1.01,1644837158.359375,P07,D06,0,0,1
1189,1.02,1644837158.375,P07,D06,0,0,1
1190,0.87,1644837158.390625,P07,D06,0,0,1
1191,0.6,1644837158.40625,P07,D06,0,0,1
1192,0.28,1644837158.421875,P07,D06,0,0,1
1193,0.02,1644837158.4375,P07,D06,0,0,1
1194,-0.14,1644837158.453125,P07,D06,0,0,1
1195,-0.18,1644837158.46875,P07,D06,0,0,1
1196,-0.14,1644837158.484375,P07,D06,0,0,1
1197,-0.06,1644837158.5,P07,D06,0,0,1
1198,0.03,1644837158.515625,P07,D06,0,0,1
1199,0.14,1644837158.53125,P07,D06,0,0,1
1200,0.29,1644837158.546875,P07,D06,0,0,1
1201,0.48,1644837158.5625,P07,D06,0,0,1
1202,0.67,1644837158.578125,P07,D06,0,0,1
1203,0.79,1644837158.59375,P07,D06,0,0,1
1204,0.77,1644837158.609375,P07,D06,0,0,1
1205,0.59,1644837158.625,P07,D06,0,0,1
1206,0.27,1644837158.640625,P07,D06,0,0,1
1207,-0.11,1644837158.65625,P07,D06,0,0,1
1208,-0.48,1644837158.671875,P07,D06,0,0,1
1209,-0.77,1644837158.6875,P07,D06,0,0,1
1210,-0.97,1644837158.703125,P07,D06,0,0,1
1211,-1.05,1644837158.71875,P07,D06,0,0,1
1212,-1.02,1644837158.734375,P07,D06,0,0,1
1213,-0.89,1644837158.75,P07,D06,0,0,1
1214,-0.67,1644837158.765625,P07,D06,0,0,1
1215,-0.44,1644837158.78125,P07,D06,0,0,1
1216,-0.27,1644837158.796875,P07,D06,0,0,1
1217,-0.2,1644837158.8125,P07,D06,0,0,1
1218,-0.24,1644837158.828125,P07,D06,0,0,1
1219,-0.31,1644837158.84375,P07,D06,0,0,1
1220,-0.35,1644837158.859375,P07,D06,0,0,1
1221,-0.31,1644837158.875,P07,D06,0,0,1
1222,-0.17,1644837158.890625,P07,D06,0,0,1
1223,-0.03,1644837158.90625,P07,D06,0,0,1
1224,0.03,1644837158.921875,P07,D06,0,0,1
1225,-0.04,1644837158.9375,P07,D06,0,0,1
1226,-0.22,1644837158.953125,P07,D06,0,0,1
1227,-0.39,1644837158.96875,P07,D06,0,0,1
1228,-0.39,1644837158.984375,P07,D06,0,0,1
1229,-0.1,1644837159.0,P07,D06,0,0,1
1230,0.44,1644837159.015625,P07,D06,0,0,1
1231,1.09,1644837159.03125,P07,D06,0,0,1
1232,1.6,1644837159.046875,P07,D06,0,0,1
1233,1.77,1644837159.0625,P07,D06,0,0,1
1234,1.52,1644837159.078125,P07,D06,0,0,1
1235,0.98,1644837159.09375,P07,D06,0,0,1
1236,0.38,1644837159.109375,P07,D06,0,0,1
1237,-0.05,1644837159.125,P07,D06,0,0,1
1238,-0.16,1644837159.140625,P07,D06,0,0,1
1239,-0.0,1644837159.15625,P07,D06,0,0,1
1240,0.26,1644837159.171875,P07,D06,0,0,1
1241,0.42,1644837159.1875,P07,D06,0,0,1
1242,0.39,1644837159.203125,P07,D06,0,0,1
1243,0.17,1644837159.21875,P07,D06,0,0,1
1244,-0.11,1644837159.234375,P07,D06,0,0,1
1245,-0.31,1644837159.25,P07,D06,0,0,1
1246,-0.35,1644837159.265625,P07,D06,0,0,1
1247,-0.23,1644837159.28125,P07,D06,0,0,1
1248,-0.07,1644837159.296875,P07,D06,0,0,1
1249,0.04,1644837159.3125,P07,D06,0,0,1
1250,0.03,1644837159.328125,P07,D06,0,0,1
1251,-0.07,1644837159.34375,P07,D06,0,0,1
1252,-0.18,1644837159.359375,P07,D06,0,0,1
1253,-0.21,1644837159.375,P07,D06,0,0,1
1254,-0.15,1644837159.390625,P07,D06,0,0,1
1255,-0.02,1644837159.40625,P07,D06,0,0,1
1256,0.08,1644837159.421875,P07,D06,0,0,1
1257,0.07,1644837159.4375,P07,D06,0,0,1
1258,-0.08,1644837159.453125,P07,D06,0,0,1
1259,-0.31,1644837159.46875,P07,D06,0,0,1
1260,-0.53,1644837159.484375,P07,D06,0,0,1
1261,-0.66,1644837159.5,P07,D06,0,0,1
1262,-0.67,1644837159.515625,P07,D06,0,0,1
1263,-0.59,1644837159.53125,P07,D06,0,0,1
1264,-0.49,1644837159.546875,P07,D06,0,0,1
1265,-0.42,1644837159.5625,P07,D06,0,0,1
1266,-0.42,1644837159.578125,P07,D06,0,0,1
1267,-0.46,1644837159.59375,P07,D06,0,0,1
1268,-0.51,1644837159.609375,P07,D06,0,0,1
1269,-0.52,1644837159.625,P07,D06,0,0,1
1270,-0.45,1644837159.640625,P07,D06,0,0,1
1271,-0.33,1644837159.65625,P07,D06,0,0,1
1272,-0.18,1644837159.671875,P07,D06,0,0,1
1273,-0.07,1644837159.6875,P07,D06,0,0,1
1274,-0.03,1644837159.703125,P07,D06,0,0,1
1275,-0.07,1644837159.71875,P07,D06,0,0,1
1276,-0.2,1644837159.734375,P07,D06,0,0,1
1277,-0.34,1644837159.75,P07,D06,0,0,1
1278,-0.43,1644837159.765625,P07,D06,0,0,1
1279,-0.42,1644837159.78125,P07,D06,0,0,1
1280,-0.3,1644837159.796875,P07,D06,0,0,1
1281,-0.08,1644837159.8125,P07,D06,0,0,1
1282,0.17,1644837159.828125,P07,D06,0,0,1
1283,0.37,1644837159.84375,P07,D06,0,0,1
1284,0.46,1644837159.859375,P07,D06,0,0,1
1285,0.43,1644837159.875,P07,D06,0,0,1
1286,0.31,1644837159.890625,P07,D06,0,0,1
1287,0.16,1644837159.90625,P07,D06,0,0,1
1288,0.08,1644837159.921875,P07,D06,0,0,1
1289,0.08,1644837159.9375,P07,D06,0,0,1
1290,0.18,1644837159.953125,P07,D06,0,0,1
1291,0.3,1644837159.96875,P07,D06,0,0,1
1292,0.39,1644837159.984375,P07,D06,0,0,1
1293,0.42,1644837160.0,P07,D06,0,0,1
1294,0.41,1644837160.015625,P07,D06,0,0,1
1295,0.43,1644837160.03125,P07,D06,0,0,1
1296,0.49,1644837160.046875,P07,D06,0,0,1
1297,0.57,1644837160.0625,P07,D06,0,0,1
1298,0.58,1644837160.078125,P07,D06,0,0,1
1299,0.45,1644837160.09375,P07,D06,0,0,1
1300,0.15,1644837160.109375,P07,D06,0,0,1
1301,-0.25,1644837160.125,P07,D06,0,0,1
1302,-0.63,1644837160.140625,P07,D06,0,0,1
1303,-0.86,1644837160.15625,P07,D06,0,0,1
1304,-0.92,1644837160.171875,P07,D06,0,0,1
1305,-0.85,1644837160.1875,P07,D06,0,0,1
1306,-0.72,1644837160.203125,P07,D06,0,0,1
1307,-0.53,1644837160.21875,P07,D06,0,0,1
1308,-0.23,1644837160.234375,P07,D06,0,0,1
1309,0.24,1644837160.25,P07,D06,0,0,1
1310,0.87,1644837160.265625,P07,D06,0,0,1
1311,1.5,1644837160.28125,P07,D06,0,0,1
1312,1.92,1644837160.296875,P07,D06,0,0,1
1313,1.92,1644837160.3125,P07,D06,0,0,1
1314,1.44,1644837160.328125,P07,D06,0,0,1
1315,0.66,1644837160.34375,P07,D06,0,0,1
1316,-0.14,1644837160.359375,P07,D06,0,0,1
1317,-0.68,1644837160.375,P07,D06,0,0,1
1318,-0.83,1644837160.390625,P07,D06,0,0,1
1319,-0.66,1644837160.40625,P07,D06,0,0,1
1320,-0.33,1644837160.421875,P07,D06,0,0,1
1321,-0.04,1644837160.4375,P07,D06,0,0,1
1322,0.12,1644837160.453125,P07,D06,0,0,1
1323,0.15,1644837160.46875,P07,D06,0,0,1
1324,0.13,1644837160.484375,P07,D06,0,0,1
1325,0.1,1644837160.5,P07,D06,0,0,1
1326,0.06,1644837160.515625,P07,D06,0,0,1
1327,-0.02,1644837160.53125,P07,D06,0,0,1
1328,-0.18,1644837160.546875,P07,D06,0,0,1
1329,-0.41,1644837160.5625,P07,D06,0,0,1
1330,-0.66,1644837160.578125,P07,D06,0,0,1
1331,-0.85,1644837160.59375,P07,D06,0,0,1
1332,-0.92,1644837160.609375,P07,D06,0,0,1
1333,-0.83,1644837160.625,P07,D06,0,0,1
1334,-0.63,1644837160.640625,P07,D06,0,0,1
1335,-0.39,1644837160.65625,P07,D06,0,0,1
1336,-0.19,1644837160.671875,P07,D06,0,0,1
1337,-0.12,1644837160.6875,P07,D06,0,0,1
1338,-0.23,1644837160.703125,P07,D06,0,0,1
1339,-0.53,1644837160.71875,P07,D06,0,0,1
1340,-0.96,1644837160.734375,P07,D06,0,0,1
1341,-1.41,1644837160.75,P07,D06,0,0,1
1342,-1.75,1644837160.765625,P07,D06,0,0,1
1343,-1.9,1644837160.78125,P07,D06,0,0,1
1344,-1.85,1644837160.796875,P07,D06,0,0,1
1345,-1.66,1644837160.8125,P07,D06,0,0,1
1346,-1.43,1644837160.828125,P07,D06,0,0,1
1347,-1.24,1644837160.84375,P07,D06,0,0,1
1348,-1.12,1644837160.859375,P07,D06,0,0,1
1349,-1.06,1644837160.875,P07,D06,0,0,1
1350,-0.99,1644837160.890625,P07,D06,0,0,1
1351,-0.87,1644837160.90625,P07,D06,0,0,1
1352,-0.69,1644837160.921875,P07,D06,0,0,1
1353,-0.48,1644837160.9375,P07,D06,0,0,1
1354,-0.25,1644837160.953125,P07,D06,0,0,1
1355,-0.01,1644837160.96875,P07,D06,0,0,1
1356,0.28,1644837160.984375,P07,D06,0,0,1
1357,0.65,1644837161.0,P07,D06,0,0,1
1358,1.1,1644837161.015625,P07,D06,0,0,1
1359,1.57,1644837161.03125,P07,D06,0,0,1
1360,2.02,1644837161.046875,P07,D06,0,0,1
1361,2.39,1644837161.0625,P07,D06,0,0,1
1362,2.64,1644837161.078125,P07,D06,0,0,1
1363,2.73,1644837161.09375,P07,D06,0,0,1
1364,2.63,1644837161.109375,P07,D06,0,0,1
1365,2.33,1644837161.125,P07,D06,0,0,1
1366,1.85,1644837161.140625,P07,D06,0,0,1
1367,1.31,1644837161.15625,P07,D06,0,0,1
1368,0.83,1644837161.171875,P07,D06,0,0,1
1369,0.53,1644837161.1875,P07,D06,0,0,1
1370,0.42,1644837161.203125,P07,D06,0,0,1
1371,0.44,1644837161.21875,P07,D06,0,0,1
1372,0.47,1644837161.234375,P07,D06,0,0,1
1373,0.46,1644837161.25,P07,D06,0,0,1
1374,0.4,1644837161.265625,P07,D06,0,0,1
1375,0.36,1644837161.28125,P07,D06,0,0,1
1376,0.38,1644837161.296875,P07,D06,0,0,1
1377,0.44,1644837161.3125,P07,D06,0,0,1
1378,0.47,1644837161.328125,P07,D06,0,0,1
1379,0.44,1644837161.34375,P07,D06,0,0,1
1380,0.33,1644837161.359375,P07,D06,0,0,1
1381,0.22,1644837161.375,P07,D06,0,0,1
1382,0.17,1644837161.390625,P07,D06,0,0,1
1383,0.21,1644837161.40625,P07,D06,0,0,1
1384,0.3,1644837161.421875,P07,D06,0,0,1
1385,0.35,1644837161.4375,P07,D06,0,0,1
1386,0.3,1644837161.453125,P07,D06,0,0,1
1387,0.15,1644837161.46875,P07,D06,0,0,1
1388,-0.05,1644837161.484375,P07,D06,0,0,1
1389,-0.22,1644837161.5,P07,D06,0,0,1
1390,-0.33,1644837161.515625,P07,D06,0,0,1
1391,-0.36,1644837161.53125,P07,D06,0,0,1
1392,-0.32,1644837161.546875,P07,D06,0,0,1
1393,-0.22,1644837161.5625,P07,D06,0,0,1
1394,-0.1,1644837161.578125,P07,D06,0,0,1
1395,0.02,1644837161.59375,P07,D06,0,0,1
1396,0.11,1644837161.609375,P07,D06,0,0,1
1397,0.12,1644837161.625,P07,D06,0,0,1
1398,0.06,1644837161.640625,P07,D06,0,0,1
1399,-0.03,1644837161.65625,P07,D06,0,0,1
1400,-0.05,1644837161.671875,P07,D06,0,0,1
1401,0.06,1644837161.6875,P07,D06,0,0,1
1402,0.33,1644837161.703125,P07,D06,0,0,1
1403,0.7,1644837161.71875,P07,D06,0,0,1
1404,1.08,1644837161.734375,P07,D06,0,0,1
1405,1.36,1644837161.75,P07,D06,0,0,1
1406,1.5,1644837161.765625,P07,D06,0,0,1
1407,1.5,1644837161.78125,P07,D06,0,0,1
1408,1.4,1644837161.796875,P07,D06,0,0,1
1409,1.24,1644837161.8125,P07,D06,0,0,1
1410,1.03,1644837161.828125,P07,D06,0,0,1
1411,0.78,1644837161.84375,P07,D06,0,0,1
1412,0.51,1644837161.859375,P07,D06,0,0,1
1413,0.26,1644837161.875,P07,D06,0,0,1
1414,0.09,1644837161.890625,P07,D06,0,0,1
1415,0.03,1644837161.90625,P07,D06,0,0,1
1416,0.05,1644837161.921875,P07,D06,0,0,1
1417,0.1,1644837161.9375,P07,D06,0,0,1
1418,0.12,1644837161.953125,P07,D06,0,0,1
1419,0.05,1644837161.96875,P07,D06,0,0,1
1420,-0.09,1644837161.984375,P07,D06,0,0,1
1421,-0.31,1644837162.0,P07,D06,0,0,1
1422,-0.56,1644837162.015625,P07,D06,0,0,1
1423,-0.82,1644837162.03125,P07,D06,0,0,1
1424,-1.08,1644837162.046875,P07,D06,0,0,1
1425,-1.32,1644837162.0625,P07,D06,0,0,1
1426,-1.53,1644837162.078125,P07,D06,0,0,1
1427,-1.7,1644837162.09375,P07,D06,0,0,1
1428,-1.79,1644837162.109375,P07,D06,0,0,1
1429,-1.79,1644837162.125,P07,D06,0,0,1
1430,-1.66,1644837162.140625,P07,D06,0,0,1
1431,-1.4,1644837162.15625,P07,D06,0,0,1
1432,-1.03,1644837162.171875,P07,D06,0,0,1
1433,-0.63,1644837162.1875,P07,D06,0,0,1
1434,-0.33,1644837162.203125,P07,D06,0,0,1
1435,-0.24,1644837162.21875,P07,D06,0,0,1
1436,-0.37,1644837162.234375,P07,D06,0,0,1
1437,-0.66,1644837162.25,P07,D06,0,0,1
1438,-0.96,1644837162.265625,P07,D06,0,0,1
1439,-1.13,1644837162.28125,P07,D06,0,0,1
1440,-1.08,1644837162.296875,P07,D06,0,0,1
1441,-0.85,1644837162.3125,P07,D06,0,0,1
1442,-0.54,1644837162.328125,P07,D06,0,0,1
1443,-0.26,1644837162.34375,P07,D06,0,0,1
1444,-0.09,1644837162.359375,P07,D06,0,0,1
1445,-0.03,1644837162.375,P07,D06,0,0,1
1446,-0.03,1644837162.390625,P07,D06,0,0,1
1447,-0.05,1644837162.40625,P07,D06,0,0,1
1448,-0.08,1644837162.421875,P07,D06,0,0,1
1449,-0.17,1644837162.4375,P07,D06,0,0,1
1450,-0.35,1644837162.453125,P07,D06,0,0,1
1451,-0.61,1644837162.46875,P07,D06,0,0,1
1452,-0.85,1644837162.484375,P07,D06,0,0,1
1453,-0.96,1644837162.5,P07,D06,0,0,1
1454,-0.87,1644837162.515625,P07,D06,0,0,1
1455,-0.6,1644837162.53125,P07,D06,0,0,1
1456,-0.28,1644837162.546875,P07,D06,0,0,1
1457,-0.09,1644837162.5625,P07,D06,0,0,1
1458,-0.15,1644837162.578125,P07,D06,0,0,1
1459,-0.5,1644837162.59375,P07,D06,0,0,1
1460,-1.01,1644837162.609375,P07,D06,0,0,1
1461,-1.48,1644837162.625,P07,D06,0,0,1
1462,-1.71,1644837162.640625,P07,D06,0,0,1
1463,-1.63,1644837162.65625,P07,D06,0,0,1
1464,-1.26,1644837162.671875,P07,D06,0,0,1
1465,-0.76,1644837162.6875,P07,D06,0,0,1
1466,-0.3,1644837162.703125,P07,D06,0,0,1
1467,0.02,1644837162.71875,P07,D06,0,0,1
1468,0.16,1644837162.734375,P07,D06,0,0,1
1469,0.2,1644837162.75,P07,D06,0,0,1
1470,0.23,1644837162.765625,P07,D06,0,0,1
1471,0.34,1644837162.78125,P07,D06,0,0,1
1472,0.55,1644837162.796875,P07,D06,0,0,1
1473,0.83,1644837162.8125,P07,D06,0,0,1
1474,1.11,1644837162.828125,P07,D06,0,0,1
1475,1.36,1644837162.84375,P07,D06,0,0,1
1476,1.53,1644837162.859375,P07,D06,0,0,1
1477,1.62,1644837162.875,P07,D06,0,0,1
1478,1.64,1644837162.890625,P07,D06,0,0,1
1479,1.59,1644837162.90625,P07,D06,0,0,1
1480,1.49,1644837162.921875,P07,D06,0,0,1
1481,1.39,1644837162.9375,P07,D06,0,0,1
1482,1.35,1644837162.953125,P07,D06,0,0,1
1483,1.39,1644837162.96875,P07,D06,0,0,1
1484,1.55,1644837162.984375,P07,D06,0,0,1
1485,1.76,1644837163.0,P07,D06,0,0,1
1486,1.94,1644837163.015625,P07,D06,0,0,1
1487,2.01,1644837163.03125,P07,D06,0,0,1
1488,1.89,1644837163.046875,P07,D06,0,0,1
1489,1.6,1644837163.0625,P07,D06,0,0,1
1490,1.19,1644837163.078125,P07,D06,0,0,1
1491,0.73,1644837163.09375,P07,D06,0,0,1
1492,0.32,1644837163.109375,P07,D06,0,0,1
1493,0.0,1644837163.125,P07,D06,0,0,1
1494,-0.19,1644837163.140625,P07,D06,0,0,1
1495,-0.27,1644837163.15625,P07,D06,0,0,1
1496,-0.24,1644837163.171875,P07,D06,0,0,1
1497,-0.17,1644837163.1875,P07,D06,0,0,1
1498,-0.14,1644837163.203125,P07,D06,0,0,1
1499,-0.17,1644837163.21875,P07,D06,0,0,1
1500,-0.32,1644837163.234375,P07,D06,0,0,1
1501,-0.55,1644837163.25,P07,D06,0,0,1
1502,-0.81,1644837163.265625,P07,D06,0,0,1
1503,-1.02,1644837163.28125,P07,D06,0,0,1
1504,-1.12,1644837163.296875,P07,D06,0,0,1
1505,-1.11,1644837163.3125,P07,D06,0,0,1
1506,-0.99,1644837163.328125,P07,D06,0,0,1
1507,-0.83,1644837163.34375,P07,D06,0,0,1
1508,-0.68,1644837163.359375,P07,D06,0,0,1
1509,-0.57,1644837163.375,P07,D06,0,0,1
1510,-0.5,1644837163.390625,P07,D06,0,0,1
1511,-0.45,1644837163.40625,P07,D06,0,0,1
1512,-0.4,1644837163.421875,P07,D06,0,0,1
1513,-0.32,1644837163.4375,P07,D06,0,0,1
1514,-0.23,1644837163.453125,P07,D06,0,0,1
1515,-0.15,1644837163.46875,P07,D06,0,0,1
1516,-0.11,1644837163.484375,P07,D06,0,0,1
1517,-0.12,1644837163.5,P07,D06,0,0,1
1518,-0.18,1644837163.515625,P07,D06,0,0,1
1519,-0.3,1644837163.53125,P07,D06,0,0,1
1520,-0.45,1644837163.546875,P07,D06,0,0,1
1521,-0.6,1644837163.5625,P07,D06,0,0,1
1522,-0.69,1644837163.578125,P07,D06,0,0,1
1523,-0.66,1644837163.59375,P07,D06,0,0,1
1524,-0.48,1644837163.609375,P07,D06,0,0,1
1525,-0.17,1644837163.625,P07,D06,0,0,1
1526,0.16,1644837163.640625,P07,D06,0,0,1
1527,0.43,1644837163.65625,P07,D06,0,0,1
1528,0.57,1644837163.671875,P07,D06,0,0,1
1529,0.6,1644837163.6875,P07,D06,0,0,1
1530,0.6,1644837163.703125,P07,D06,0,0,1
1531,0.66,1644837163.71875,P07,D06,0,0,1
1532,0.79,1644837163.734375,P07,D06,0,0,1
1533,0.92,1644837163.75,P07,D06,0,0,1
1534,0.95,1644837163.765625,P07,D06,0,0,1
1535,0.81,1644837163.78125,P07,D06,0,0,1
1536,0.54,1644837163.796875,P07,D06,0,0,1
1537,0.25,1644837163.8125,P07,D06,0,0,1
1538,0.09,1644837163.828125,P07,D06,0,0,1
1539,0.14,1644837163.84375,P07,D06,0,0,1
1540,0.37,1644837163.859375,P07,D06,0,0,1
1541,0.65,1644837163.875,P07,D06,0,0,1
1542,0.86,1644837163.890625,P07,D06,0,0,1
1543,0.91,1644837163.90625,P07,D06,0,0,1
1544,0.79,1644837163.921875,P07,D06,0,0,1
1545,0.54,1644837163.9375,P07,D06,0,0,1
1546,0.2,1644837163.953125,P07,D06,0,0,1
1547,-0.19,1644837163.96875,P07,D06,0,0,1
1548,-0.61,1644837163.984375,P07,D06,0,0,1
1549,-1.0,1644837164.0,P07,D06,0,0,1
1550,-1.31,1644837164.015625,P07,D06,0,0,1
1551,-1.47,1644837164.03125,P07,D06,0,0,1
1552,-1.45,1644837164.046875,P07,D06,0,0,1
1553,-1.24,1644837164.0625,P07,D06,0,0,1
1554,-0.91,1644837164.078125,P07,D06,0,0,1
1555,-0.55,1644837164.09375,P07,D06,0,0,1
1556,-0.23,1644837164.109375,P07,D06,0,0,1
1557,0.01,1644837164.125,P07,D06,0,0,1
1558,0.15,1644837164.140625,P07,D06,0,0,1
1559,0.17,1644837164.15625,P07,D06,0,0,1
1560,0.08,1644837164.171875,P07,D06,0,0,1
1561,-0.11,1644837164.1875,P07,D06,0,0,1
1562,-0.33,1644837164.203125,P07,D06,0,0,1
1563,-0.46,1644837164.21875,P07,D06,0,0,1
1564,-0.4,1644837164.234375,P07,D06,0,0,1
1565,-0.12,1644837164.25,P07,D06,0,0,1
1566,0.32,1644837164.265625,P07,D06,0,0,1
1567,0.78,1644837164.28125,P07,D06,0,0,1
1568,1.09,1644837164.296875,P07,D06,0,0,1
1569,1.17,1644837164.3125,P07,D06,0,0,1
1570,1.05,1644837164.328125,P07,D06,0,0,1
1571,0.87,1644837164.34375,P07,D06,0,0,1
1572,0.74,1644837164.359375,P07,D06,0,0,1
1573,0.74,1644837164.375,P07,D06,0,0,1
1574,0.79,1644837164.390625,P07,D06,0,0,1
1575,0.79,1644837164.40625,P07,D06,0,0,1
1576,0.63,1644837164.421875,P07,D06,0,0,1
1577,0.31,1644837164.4375,P07,D06,0,0,1
1578,-0.07,1644837164.453125,P07,D06,0,0,1
1579,-0.38,1644837164.46875,P07,D06,0,0,1
1580,-0.51,1644837164.484375,P07,D06,0,0,1
1581,-0.45,1644837164.5,P07,D06,0,0,1
1582,-0.28,1644837164.515625,P07,D06,0,0,1
1583,-0.11,1644837164.53125,P07,D06,0,0,1
1584,-0.01,1644837164.546875,P07,D06,0,0,1
1585,-0.03,1644837164.5625,P07,D06,0,0,1
1586,-0.15,1644837164.578125,P07,D06,0,0,1
1587,-0.34,1644837164.59375,P07,D06,0,0,1
1588,-0.51,1644837164.609375,P07,D06,0,0,1
1589,-0.61,1644837164.625,P07,D06,0,0,1
1590,-0.58,1644837164.640625,P07,D06,0,0,1
1591,-0.4,1644837164.65625,P07,D06,0,0,1
1592,-0.15,1644837164.671875,P07,D06,0,0,1
1593,0.06,1644837164.6875,P07,D06,0,0,1
1594,0.11,1644837164.703125,P07,D06,0,0,1
1595,-0.05,1644837164.71875,P07,D06,0,0,1
1596,-0.37,1644837164.734375,P07,D06,0,0,1
1597,-0.71,1644837164.75,P07,D06,0,0,1
1598,-0.92,1644837164.765625,P07,D06,0,0,1
1599,-0.92,1644837164.78125,P07,D06,0,0,1
1600,-0.7,1644837164.796875,P07,D06,0,0,1
1601,-0.36,1644837164.8125,P07,D06,0,0,1
1602,0.01,1644837164.828125,P07,D06,0,0,1
1603,0.32,1644837164.84375,P07,D06,0,0,1
1604,0.48,1644837164.859375,P07,D06,0,0,1
1605,0.46,1644837164.875,P07,D06,0,0,1
1606,0.23,1644837164.890625,P07,D06,0,0,1
1607,-0.19,1644837164.90625,P07,D06,0,0,1
1608,-0.72,1644837164.921875,P07,D06,0,0,1
1609,-1.22,1644837164.9375,P07,D06,0,0,1
1610,-1.51,1644837164.953125,P07,D06,0,0,1
1611,-1.48,1644837164.96875,P07,D06,0,0,1
1612,-1.15,1644837164.984375,P07,D06,0,0,1
1613,-0.63,1644837165.0,P07,D06,0,0,1
1614,-0.11,1644837165.015625,P07,D06,0,0,1
1615,0.25,1644837165.03125,P07,D06,0,0,1
1616,0.4,1644837165.046875,P07,D06,0,0,1
1617,0.4,1644837165.0625,P07,D06,0,0,1
1618,0.33,1644837165.078125,P07,D06,0,0,1
1619,0.3,1644837165.09375,P07,D06,0,0,1
1620,0.32,1644837165.109375,P07,D06,0,0,1
1621,0.38,1644837165.125,P07,D06,0,0,1
1622,0.45,1644837165.140625,P07,D06,0,0,1
1623,0.51,1644837165.15625,P07,D06,0,0,1
1624,0.57,1644837165.171875,P07,D06,0,0,1
1625,0.67,1644837165.1875,P07,D06,0,0,1
1626,0.8,1644837165.203125,P07,D06,0,0,1
1627,0.95,1644837165.21875,P07,D06,0,0,1
1628,1.04,1644837165.234375,P07,D06,0,0,1
1629,0.98,1644837165.25,P07,D06,0,0,1
1630,0.74,1644837165.265625,P07,D06,0,0,1
1631,0.33,1644837165.28125,P07,D06,0,0,1
1632,-0.14,1644837165.296875,P07,D06,0,0,1
1633,-0.53,1644837165.3125,P07,D06,0,0,1
1634,-0.74,1644837165.328125,P07,D06,0,0,1
1635,-0.75,1644837165.34375,P07,D06,0,0,1
1636,-0.63,1644837165.359375,P07,D06,0,0,1
1637,-0.49,1644837165.375,P07,D06,0,0,1
1638,-0.42,1644837165.390625,P07,D06,0,0,1
1639,-0.43,1644837165.40625,P07,D06,0,0,1
1640,-0.48,1644837165.421875,P07,D06,0,0,1
1641,-0.46,1644837165.4375,P07,D06,0,0,1
1642,-0.37,1644837165.453125,P07,D06,0,0,1
1643,-0.22,1644837165.46875,P07,D06,0,0,1
1644,-0.12,1644837165.484375,P07,D06,0,0,1
1645,-0.14,1644837165.5,P07,D06,0,0,1
1646,-0.27,1644837165.515625,P07,D06,0,0,1
1647,-0.43,1644837165.53125,P07,D06,0,0,1
1648,-0.52,1644837165.546875,P07,D06,0,0,1
1649,-0.47,1644837165.5625,P07,D06,0,0,1
1650,-0.3,1644837165.578125,P07,D06,0,0,1
1651,-0.12,1644837165.59375,P07,D06,0,0,1
1652,-0.03,1644837165.609375,P07,D06,0,0,1
1653,-0.11,1644837165.625,P07,D06,0,0,1
1654,-0.33,1644837165.640625,P07,D06,0,0,1
1655,-0.57,1644837165.65625,P07,D06,0,0,1
1656,-0.72,1644837165.671875,P07,D06,0,0,1
1657,-0.68,1644837165.6875,P07,D06,0,0,1
1658,-0.46,1644837165.703125,P07,D06,0,0,1
1659,-0.16,1644837165.71875,P07,D06,0,0,1
1660,0.08,1644837165.734375,P07,D06,0,0,1
1661,0.17,1644837165.75,P07,D06,0,0,1
1662,0.12,1644837165.765625,P07,D06,0,0,1
1663,0.01,1644837165.78125,P07,D06,0,0,1
1664,-0.04,1644837165.796875,P07,D06,0,0,1
1665,0.02,1644837165.8125,P07,D06,0,0,1
1666,0.21,1644837165.828125,P07,D06,0,0,1
1667,0.46,1644837165.84375,P07,D06,0,0,1
1668,0.64,1644837165.859375,P07,D06,0,0,1
1669,0.7,1644837165.875,P07,D06,0,0,1
1670,0.64,1644837165.890625,P07,D06,0,0,1
1671,0.51,1644837165.90625,P07,D06,0,0,1
1672,0.4,1644837165.921875,P07,D06,0,0,1
1673,0.33,1644837165.9375,P07,D06,0,0,1
1674,0.31,1644837165.953125,P07,D06,0,0,1
1675,0.27,1644837165.96875,P07,D06,0,0,1
1676,0.16,1644837165.984375,P07,D06,0,0,1
1677,-0.05,1644837166.0,P07,D06,0,0,1
1678,-0.3,1644837166.015625,P07,D06,0,0,1
1679,-0.53,1644837166.03125,P07,D06,0,0,1
1680,-0.64,1644837166.046875,P07,D06,0,0,1
1681,-0.59,1644837166.0625,P07,D06,0,0,1
1682,-0.41,1644837166.078125,P07,D06,0,0,1
1683,-0.17,1644837166.09375,P07,D06,0,0,1
1684,0.08,1644837166.109375,P07,D06,0,0,1
1685,0.24,1644837166.125,P07,D06,0,0,1
1686,0.32,1644837166.140625,P07,D06,0,0,1
1687,0.3,1644837166.15625,P07,D06,0,0,1
1688,0.2,1644837166.171875,P07,D06,0,0,1
1689,0.04,1644837166.1875,P07,D06,0,0,1
1690,-0.18,1644837166.203125,P07,D06,0,0,1
1691,-0.41,1644837166.21875,P07,D06,0,0,1
1692,-0.58,1644837166.234375,P07,D06,0,0,1
1693,-0.65,1644837166.25,P07,D06,0,0,1
1694,-0.57,1644837166.265625,P07,D06,0,0,1
1695,-0.38,1644837166.28125,P07,D06,0,0,1
1696,-0.15,1644837166.296875,P07,D06,0,0,1
1697,0.03,1644837166.3125,P07,D06,0,0,1
1698,0.15,1644837166.328125,P07,D06,0,0,1
1699,0.21,1644837166.34375,P07,D06,0,0,1
1700,0.29,1644837166.359375,P07,D06,0,0,1
1701,0.41,1644837166.375,P07,D06,0,0,1
1702,0.58,1644837166.390625,P07,D06,0,0,1
1703,0.77,1644837166.40625,P07,D06,0,0,1
1704,0.93,1644837166.421875,P07,D06,0,0,1
1705,1.05,1644837166.4375,P07,D06,0,0,1
1706,1.14,1644837166.453125,P07,D06,0,0,1
1707,1.22,1644837166.46875,P07,D06,0,0,1
1708,1.31,1644837166.484375,P07,D06,0,0,1
1709,1.38,1644837166.5,P07,D06,0,0,1
1710,1.38,1644837166.515625,P07,D06,0,0,1
1711,1.27,1644837166.53125,P07,D06,0,0,1
1712,1.04,1644837166.546875,P07,D06,0,0,1
1713,0.73,1644837166.5625,P07,D06,0,0,1
1714,0.4,1644837166.578125,P07,D06,0,0,1
1715,0.1,1644837166.59375,P07,D06,0,0,1
1716,-0.1,1644837166.609375,P07,D06,0,0,1
1717,-0.2,1644837166.625,P07,D06,0,0,1
1718,-0.23,1644837166.640625,P07,D06,0,0,1
1719,-0.23,1644837166.65625,P07,D06,0,0,1
1720,-0.28,1644837166.671875,P07,D06,0,0,1
1721,-0.41,1644837166.6875,P07,D06,0,0,1
1722,-0.63,1644837166.703125,P07,D06,0,0,1
1723,-0.84,1644837166.71875,P07,D06,0,0,1
1724,-0.94,1644837166.734375,P07,D06,0,0,1
1725,-0.86,1644837166.75,P07,D06,0,0,1
1726,-0.62,1644837166.765625,P07,D06,0,0,1
1727,-0.32,1644837166.78125,P07,D06,0,0,1
1728,-0.11,1644837166.796875,P07,D06,0,0,1
1729,-0.11,1644837166.8125,P07,D06,0,0,1
1730,-0.32,1644837166.828125,P07,D06,0,0,1
1731,-0.64,1644837166.84375,P07,D06,0,0,1
1732,-0.91,1644837166.859375,P07,D06,0,0,1
1733,-1.02,1644837166.875,P07,D06,0,0,1
1734,-0.93,1644837166.890625,P07,D06,0,0,1
1735,-0.74,1644837166.90625,P07,D06,0,0,1
1736,-0.57,1644837166.921875,P07,D06,0,0,1
1737,-0.48,1644837166.9375,P07,D06,0,0,1
1738,-0.5,1644837166.953125,P07,D06,0,0,1
1739,-0.55,1644837166.96875,P07,D06,0,0,1
1740,-0.57,1644837166.984375,P07,D06,0,0,1
1741,-0.49,1644837167.0,P07,D06,0,0,1
1742,-0.35,1644837167.015625,P07,D06,0,0,1
1743,-0.18,1644837167.03125,P07,D06,0,0,1
1744,-0.04,1644837167.046875,P07,D06,0,0,1
1745,0.05,1644837167.0625,P07,D06,0,0,1
1746,0.08,1644837167.078125,P07,D06,0,0,1
1747,0.06,1644837167.09375,P07,D06,0,0,1
1748,0.0,1644837167.109375,P07,D06,0,0,1
1749,-0.09,1644837167.125,P07,D06,0,0,1
1750,-0.21,1644837167.140625,P07,D06,0,0,1
1751,-0.34,1644837167.15625,P07,D06,0,0,1
1752,-0.44,1644837167.171875,P07,D06,0,0,1
1753,-0.48,1644837167.1875,P07,D06,0,0,1
1754,-0.46,1644837167.203125,P07,D06,0,0,1
1755,-0.35,1644837167.21875,P07,D06,0,0,1
1756,-0.18,1644837167.234375,P07,D06,0,0,1
1757,0.04,1644837167.25,P07,D06,0,0,1
1758,0.28,1644837167.265625,P07,D06,0,0,1
1759,0.52,1644837167.28125,P07,D06,0,0,1
1760,0.7,1644837167.296875,P07,D06,0,0,1
1761,0.77,1644837167.3125,P07,D06,0,0,1
1762,0.7,1644837167.328125,P07,D06,0,0,1
1763,0.49,1644837167.34375,P07,D06,0,0,1
1764,0.22,1644837167.359375,P07,D06,0,0,1
1765,-0.04,1644837167.375,P07,D06,0,0,1
1766,-0.24,1644837167.390625,P07,D06,0,0,1
1767,-0.34,1644837167.40625,P07,D06,0,0,1
1768,-0.4,1644837167.421875,P07,D06,0,0,1
1769,-0.43,1644837167.4375,P07,D06,0,0,1
1770,-0.45,1644837167.453125,P07,D06,0,0,1
1771,-0.41,1644837167.46875,P07,D06,0,0,1
1772,-0.29,1644837167.484375,P07,D06,0,0,1
1773,-0.07,1644837167.5,P07,D06,0,0,1
1774,0.2,1644837167.515625,P07,D06,0,0,1
1775,0.4,1644837167.53125,P07,D06,0,0,1
1776,0.4,1644837167.546875,P07,D06,0,0,1
1777,0.17,1644837167.5625,P07,D06,0,0,1
1778,-0.24,1644837167.578125,P07,D06,0,0,1
1779,-0.65,1644837167.59375,P07,D06,0,0,1
1780,-0.87,1644837167.609375,P07,D06,0,0,1
1781,-0.81,1644837167.625,P07,D06,0,0,1
1782,-0.48,1644837167.640625,P07,D06,0,0,1
1783,-0.04,1644837167.65625,P07,D06,0,0,1
1784,0.3,1644837167.671875,P07,D06,0,0,1
1785,0.4,1644837167.6875,P07,D06,0,0,1
1786,0.25,1644837167.703125,P07,D06,0,0,1
1787,-0.01,1644837167.71875,P07,D06,0,0,1
1788,-0.2,1644837167.734375,P07,D06,0,0,1
1789,-0.18,1644837167.75,P07,D06,0,0,1
1790,0.06,1644837167.765625,P07,D06,0,0,1
1791,0.43,1644837167.78125,P07,D06,0,0,1
1792,0.76,1644837167.796875,P07,D06,0,0,1
1793,0.91,1644837167.8125,P07,D06,0,0,1
1794,0.85,1644837167.828125,P07,D06,0,0,1
1795,0.62,1644837167.84375,P07,D06,0,0,1
1796,0.32,1644837167.859375,P07,D06,0,0,1
1797,0.07,1644837167.875,P07,D06,0,0,1
1798,-0.07,1644837167.890625,P07,D06,0,0,1
1799,-0.08,1644837167.90625,P07,D06,0,0,1
1800,0.03,1644837167.921875,P07,D06,0,0,1
1801,0.22,1644837167.9375,P07,D06,0,0,1
1802,0.4,1644837167.953125,P07,D06,0,0,1
1803,0.53,1644837167.96875,P07,D06,0,0,1
1804,0.54,1644837167.984375,P07,D06,0,0,1
1805,0.45,1644837168.0,P07,D06,0,0,1
1806,0.32,1644837168.015625,P07,D06,0,0,1
1807,0.24,1644837168.03125,P07,D06,0,0,1
1808,0.3,1644837168.046875,P07,D06,0,0,1
1809,0.5,1644837168.0625,P07,D06,0,0,1
1810,0.78,1644837168.078125,P07,D06,0,0,1
1811,1.01,1644837168.09375,P07,D06,0,0,1
1812,1.06,1644837168.109375,P07,D06,0,0,1
1813,0.9,1644837168.125,P07,D06,0,0,1
1814,0.58,1644837168.140625,P07,D06,0,0,1
1815,0.25,1644837168.15625,P07,D06,0,0,1
1816,0.06,1644837168.171875,P07,D06,0,0,1
1817,0.07,1644837168.1875,P07,D06,0,0,1
1818,0.27,1644837168.203125,P07,D06,0,0,1
1819,0.53,1644837168.21875,P07,D06,0,0,1
1820,0.72,1644837168.234375,P07,D06,0,0,1
1821,0.78,1644837168.25,P07,D06,0,0,1
1822,0.72,1644837168.265625,P07,D06,0,0,1
1823,0.63,1644837168.28125,P07,D06,0,0,1
1824,0.57,1644837168.296875,P07,D06,0,0,1
1825,0.58,1644837168.3125,P07,D06,0,0,1
1826,0.62,1644837168.328125,P07,D06,0,0,1
1827,0.64,1644837168.34375,P07,D06,0,0,1
1828,0.62,1644837168.359375,P07,D06,0,0,1
1829,0.58,1644837168.375,P07,D06,0,0,1
1830,0.54,1644837168.390625,P07,D06,0,0,1
1831,0.52,1644837168.40625,P07,D06,0,0,1
1832,0.46,1644837168.421875,P07,D06,0,0,1
1833,0.3,1644837168.4375,P07,D06,0,0,1
1834,0.01,1644837168.453125,P07,D06,0,0,1
1835,-0.37,1644837168.46875,P07,D06,0,0,1
1836,-0.76,1644837168.484375,P07,D06,0,0,1
1837,-1.05,1644837168.5,P07,D06,0,0,1
1838,-1.15,1644837168.515625,P07,D06,0,0,1
1839,-1.07,1644837168.53125,P07,D06,0,0,1
1840,-0.86,1644837168.546875,P07,D06,0,0,1
1841,-0.64,1644837168.5625,P07,D06,0,0,1
1842,-0.49,1644837168.578125,P07,D06,0,0,1
1843,-0.48,1644837168.59375,P07,D06,0,0,1
1844,-0.6,1644837168.609375,P07,D06,0,0,1
1845,-0.79,1644837168.625,P07,D06,0,0,1
1846,-0.98,1644837168.640625,P07,D06,0,0,1
1847,-1.09,1644837168.65625,P07,D06,0,0,1
1848,-1.09,1644837168.671875,P07,D06,0,0,1
1849,-0.99,1644837168.6875,P07,D06,0,0,1
1850,-0.85,1644837168.703125,P07,D06,0,0,1
1851,-0.75,1644837168.71875,P07,D06,0,0,1
1852,-0.7,1644837168.734375,P07,D06,0,0,1
1853,-0.69,1644837168.75,P07,D06,0,0,1
1854,-0.69,1644837168.765625,P07,D06,0,0,1
1855,-0.64,1644837168.78125,P07,D06,0,0,1
1856,-0.52,1644837168.796875,P07,D06,0,0,1
1857,-0.33,1644837168.8125,P07,D06,0,0,1
1858,-0.09,1644837168.828125,P07,D06,0,0,1
1859,0.17,1644837168.84375,P07,D06,0,0,1
1860,0.42,1644837168.859375,P07,D06,0,0,1
1861,0.64,1644837168.875,P07,D06,0,0,1
1862,0.81,1644837168.890625,P07,D06,0,0,1
1863,0.91,1644837168.90625,P07,D06,0,0,1
1864,0.94,1644837168.921875,P07,D06,0,0,1
1865,0.91,1644837168.9375,P07,D06,0,0,1
1866,0.83,1644837168.953125,P07,D06,0,0,1
1867,0.73,1644837168.96875,P07,D06,0,0,1
1868,0.63,1644837168.984375,P07,D06,0,0,1
1869,0.56,1644837169.0,P07,D06,0,0,1
1870,0.52,1644837169.015625,P07,D06,0,0,1
1871,0.49,1644837169.03125,P07,D06,0,0,1
1872,0.45,1644837169.046875,P07,D06,0,0,1
1873,0.35,1644837169.0625,P07,D06,0,0,1
1874,0.18,1644837169.078125,P07,D06,0,0,1
1875,-0.06,1644837169.09375,P07,D06,0,0,1
1876,-0.33,1644837169.109375,P07,D06,0,0,1
1877,-0.55,1644837169.125,P07,D06,0,0,1
1878,-0.64,1644837169.140625,P07,D06,0,0,1
1879,-0.57,1644837169.15625,P07,D06,0,0,1
1880,-0.38,1644837169.171875,P07,D06,0,0,1
1881,-0.15,1644837169.1875,P07,D06,0,0,1
1882,0.01,1644837169.203125,P07,D06,0,0,1
1883,0.01,1644837169.21875,P07,D06,0,0,1
1884,-0.16,1644837169.234375,P07,D06,0,0,1
1885,-0.44,1644837169.25,P07,D06,0,0,1
1886,-0.69,1644837169.265625,P07,D06,0,0,1
1887,-0.78,1644837169.28125,P07,D06,0,0,1
1888,-0.64,1644837169.296875,P07,D06,0,0,1
1889,-0.29,1644837169.3125,P07,D06,0,0,1
1890,0.14,1644837169.328125,P07,D06,0,0,1
1891,0.51,1644837169.34375,P07,D06,0,0,1
1892,0.7,1644837169.359375,P07,D06,0,0,1
1893,0.67,1644837169.375,P07,D06,0,0,1
1894,0.5,1644837169.390625,P07,D06,0,0,1
1895,0.29,1644837169.40625,P07,D06,0,0,1
1896,0.13,1644837169.421875,P07,D06,0,0,1
1897,0.03,1644837169.4375,P07,D06,0,0,1
1898,-0.02,1644837169.453125,P07,D06,0,0,1
1899,-0.06,1644837169.46875,P07,D06,0,0,1
1900,-0.05,1644837169.484375,P07,D06,0,0,1
1901,0.03,1644837169.5,P07,D06,0,0,1
1902,0.25,1644837169.515625,P07,D06,0,0,1
1903,0.62,1644837169.53125,P07,D06,0,0,1
1904,1.03,1644837169.546875,P07,D06,0,0,1
1905,1.37,1644837169.5625,P07,D06,0,0,1
1906,1.51,1644837169.578125,P07,D06,0,0,1
1907,1.42,1644837169.59375,P07,D06,0,0,1
1908,1.17,1644837169.609375,P07,D06,0,0,1
1909,0.9,1644837169.625,P07,D06,0,0,1
1910,0.69,1644837169.640625,P07,D06,0,0,1
1911,0.52,1644837169.65625,P07,D06,0,0,1
1912,0.29,1644837169.671875,P07,D06,0,0,1
1913,-0.11,1644837169.6875,P07,D06,0,0,1
1914,-0.69,1644837169.703125,P07,D06,0,0,1
1915,-1.35,1644837169.71875,P07,D06,0,0,1
1916,-1.87,1644837169.734375,P07,D06,0,0,1
1917,-2.08,1644837169.75,P07,D06,0,0,1
1918,-1.91,1644837169.765625,P07,D06,0,0,1
1919,-1.48,1644837169.78125,P07,D06,0,0,1
1920,-0.97,1644837169.796875,P07,D06,0,0,1
1921,-0.56,1644837169.8125,P07,D06,0,0,1
1922,-0.34,1644837169.828125,P07,D06,0,0,1
1923,-0.29,1644837169.84375,P07,D06,0,0,1
1924,-0.37,1644837169.859375,P07,D06,0,0,1
1925,-0.54,1644837169.875,P07,D06,0,0,1
1926,-0.79,1644837169.890625,P07,D06,0,0,1
1927,-1.11,1644837169.90625,P07,D06,0,0,1
1928,-1.45,1644837169.921875,P07,D06,0,0,1
1929,-1.71,1644837169.9375,P07,D06,0,0,1
1930,-1.8,1644837169.953125,P07,D06,0,0,1
1931,-1.67,1644837169.96875,P07,D06,0,0,1
1932,-1.35,1644837169.984375,P07,D06,0,0,1
1933,-0.94,1644837170.0,P07,D06,0,0,1
1934,-0.55,1644837170.015625,P07,D06,0,0,1
1935,-0.22,1644837170.03125,P07,D06,0,0,1
1936,0.04,1644837170.046875,P07,D06,0,0,1
1937,0.26,1644837170.0625,P07,D06,0,0,1
1938,0.45,1644837170.078125,P07,D06,0,0,1
1939,0.65,1644837170.09375,P07,D06,0,0,1
1940,0.83,1644837170.109375,P07,D06,0,0,1
1941,0.96,1644837170.125,P07,D06,0,0,1
1942,1.01,1644837170.140625,P07,D06,0,0,1
1943,0.95,1644837170.15625,P07,D06,0,0,1
1944,0.82,1644837170.171875,P07,D06,0,0,1
1945,0.66,1644837170.1875,P07,D06,0,0,1
1946,0.58,1644837170.203125,P07,D06,0,0,1
1947,0.62,1644837170.21875,P07,D06,0,0,1
1948,0.8,1644837170.234375,P07,D06,0,0,1
1949,1.02,1644837170.25,P07,D06,0,0,1
1950,1.19,1644837170.265625,P07,D06,0,0,1
1951,1.19,1644837170.28125,P07,D06,0,0,1
1952,1.01,1644837170.296875,P07,D06,0,0,1
1953,0.69,1644837170.3125,P07,D06,0,0,1
1954,0.33,1644837170.328125,P07,D06,0,0,1
1955,0.01,1644837170.34375,P07,D06,0,0,1
1956,-0.25,1644837170.359375,P07,D06,0,0,1
1957,-0.46,1644837170.375,P07,D06,0,0,1
1958,-0.66,1644837170.390625,P07,D06,0,0,1
1959,-0.85,1644837170.40625,P07,D06,0,0,1
1960,-1.04,1644837170.421875,P07,D06,0,0,1
1961,-1.23,1644837170.4375,P07,D06,0,0,1
1962,-1.39,1644837170.453125,P07,D06,0,0,1
1963,-1.52,1644837170.46875,P07,D06,0,0,1
1964,-1.59,1644837170.484375,P07,D06,0,0,1
1965,-1.6,1644837170.5,P07,D06,0,0,1
1966,-1.52,1644837170.515625,P07,D06,0,0,1
1967,-1.36,1644837170.53125,P07,D06,0,0,1
1968,-1.14,1644837170.546875,P07,D06,0,0,1
1969,-0.9,1644837170.5625,P07,D06,0,0,1
1970,-0.66,1644837170.578125,P07,D06,0,0,1
1971,-0.4,1644837170.59375,P07,D06,0,0,1
1972,-0.07,1644837170.609375,P07,D06,0,0,1
1973,0.35,1644837170.625,P07,D06,0,0,1
1974,0.84,1644837170.640625,P07,D06,0,0,1
1975,1.35,1644837170.65625,P07,D06,0,0,1
1976,1.8,1644837170.671875,P07,D06,0,0,1
1977,2.11,1644837170.6875,P07,D06,0,0,1
1978,2.27,1644837170.703125,P07,D06,0,0,1
1979,2.26,1644837170.71875,P07,D06,0,0,1
1980,2.1,1644837170.734375,P07,D06,0,0,1
1981,1.77,1644837170.75,P07,D06,0,0,1
1982,1.31,1644837170.765625,P07,D06,0,0,1
1983,0.76,1644837170.78125,P07,D06,0,0,1
1984,0.22,1644837170.796875,P07,D06,0,0,1
1985,-0.18,1644837170.8125,P07,D06,0,0,1
1986,-0.36,1644837170.828125,P07,D06,0,0,1
1987,-0.32,1644837170.84375,P07,D06,0,0,1
1988,-0.12,1644837170.859375,P07,D06,0,0,1
1989,0.1,1644837170.875,P07,D06,0,0,1
1990,0.24,1644837170.890625,P07,D06,0,0,1
1991,0.24,1644837170.90625,P07,D06,0,0,1
1992,0.09,1644837170.921875,P07,D06,0,0,1
1993,-0.16,1644837170.9375,P07,D06,0,0,1
1994,-0.48,1644837170.953125,P07,D06,0,0,1
1995,-0.8,1644837170.96875,P07,D06,0,0,1
1996,-1.07,1644837170.984375,P07,D06,0,0,1
1997,-1.24,1644837171.0,P07,D06,0,0,1
1998,-1.26,1644837171.015625,P07,D06,0,0,1
1999,-1.17,1644837171.03125,P07,D06,0,0,1
2000,-1.02,1644837171.046875,P07,D06,0,0,1
2001,-0.92,1644837171.0625,P07,D06,0,0,1
2002,-0.95,1644837171.078125,P07,D06,0,0,1
2003,-1.08,1644837171.09375,P07,D06,0,0,1
2004,-1.22,1644837171.109375,P07,D06,0,0,1
2005,-1.26,1644837171.125,P07,D06,0,0,1
2006,-1.15,1644837171.140625,P07,D06,0,0,1
2007,-0.9,1644837171.15625,P07,D06,0,0,1
2008,-0.61,1644837171.171875,P07,D06,0,0,1
2009,-0.33,1644837171.1875,P07,D06,0,0,1
2010,-0.1,1644837171.203125,P07,D06,0,0,1
2011,0.12,1644837171.21875,P07,D06,0,0,1
2012,0.38,1644837171.234375,P07,D06,0,0,1
2013,0.68,1644837171.25,P07,D06,0,0,1
2014,0.96,1644837171.265625,P07,D06,0,0,1
2015,1.15,1644837171.28125,P07,D06,0,0,1
2016,1.17,1644837171.296875,P07,D06,0,0,1
2017,1.06,1644837171.3125,P07,D06,0,0,1
2018,0.9,1644837171.328125,P07,D06,0,0,1
2019,0.8,1644837171.34375,P07,D06,0,0,1
2020,0.84,1644837171.359375,P07,D06,0,0,1
2021,1.02,1644837171.375,P07,D06,0,0,1
2022,1.24,1644837171.390625,P07,D06,0,0,1
2023,1.42,1644837171.40625,P07,D06,0,0,1
2024,1.51,1644837171.421875,P07,D06,0,0,1
2025,1.53,1644837171.4375,P07,D06,0,0,1
2026,1.56,1644837171.453125,P07,D06,0,0,1
2027,1.67,1644837171.46875,P07,D06,0,0,1
2028,1.82,1644837171.484375,P07,D06,0,0,1
2029,1.88,1644837171.5,P07,D06,0,0,1
2030,1.72,1644837171.515625,P07,D06,0,0,1
2031,1.28,1644837171.53125,P07,D06,0,0,1
2032,0.62,1644837171.546875,P07,D06,0,0,1
2033,-0.03,1644837171.5625,P07,D06,0,0,1
2034,-0.47,1644837171.578125,P07,D06,0,0,1
2035,-0.59,1644837171.59375,P07,D06,0,0,1
2036,-0.47,1644837171.609375,P07,D06,0,0,1
2037,-0.28,1644837171.625,P07,D06,0,0,1
2038,-0.2,1644837171.640625,P07,D06,0,0,1
2039,-0.27,1644837171.65625,P07,D06,0,0,1
2040,-0.4,1644837171.671875,P07,D06,0,0,1
2041,-0.43,1644837171.6875,P07,D06,0,0,1
2042,-0.28,1644837171.703125,P07,D06,0,0,1
2043,-0.0,1644837171.71875,P07,D06,0,0,1
2044,0.23,1644837171.734375,P07,D06,0,0,1
2045,0.26,1644837171.75,P07,D06,0,0,1
2046,0.05,1644837171.765625,P07,D06,0,0,1
2047,-0.29,1644837171.78125,P07,D06,0,0,1
2048,-0.57,1644837171.796875,P07,D06,0,0,1
2049,-0.65,1644837171.8125,P07,D06,0,0,1
2050,-0.49,1644837171.828125,P07,D06,0,0,1
2051,-0.18,1644837171.84375,P07,D06,0,0,1
2052,0.13,1644837171.859375,P07,D06,0,0,1
2053,0.33,1644837171.875,P07,D06,0,0,1
2054,0.4,1644837171.890625,P07,D06,0,0,1
2055,0.38,1644837171.90625,P07,D06,0,0,1
2056,0.35,1644837171.921875,P07,D06,0,0,1
2057,0.34,1644837171.9375,P07,D06,0,0,1
2058,0.33,1644837171.953125,P07,D06,0,0,1
2059,0.25,1644837171.96875,P07,D06,0,0,1
2060,0.08,1644837171.984375,P07,D06,0,0,1
2061,-0.19,1644837172.0,P07,D06,0,0,1
2062,-0.46,1644837172.015625,P07,D06,0,0,1
2063,-0.64,1644837172.03125,P07,D06,0,0,1
2064,-0.65,1644837172.046875,P07,D06,0,0,1
2065,-0.5,1644837172.0625,P07,D06,0,0,1
2066,-0.28,1644837172.078125,P07,D06,0,0,1
2067,-0.14,1644837172.09375,P07,D06,0,0,1
2068,-0.19,1644837172.109375,P07,D06,0,0,1
2069,-0.45,1644837172.125,P07,D06,0,0,1
2070,-0.84,1644837172.140625,P07,D06,0,0,1
2071,-1.2,1644837172.15625,P07,D06,0,0,1
2072,-1.4,1644837172.171875,P07,D06,0,0,1
2073,-1.39,1644837172.1875,P07,D06,0,0,1
2074,-1.22,1644837172.203125,P07,D06,0,0,1
2075,-1.0,1644837172.21875,P07,D06,0,0,1
2076,-0.81,1644837172.234375,P07,D06,0,0,1
2077,-0.69,1644837172.25,P07,D06,0,0,1
2078,-0.57,1644837172.265625,P07,D06,0,0,1
2079,-0.43,1644837172.28125,P07,D06,0,0,1
2080,-0.24,1644837172.296875,P07,D06,0,0,1
2081,-0.04,1644837172.3125,P07,D06,0,0,1
2082,0.1,1644837172.328125,P07,D06,0,0,1
2083,0.15,1644837172.34375,P07,D06,0,0,1
2084,0.13,1644837172.359375,P07,D06,0,0,1
2085,0.1,1644837172.375,P07,D06,0,0,1
2086,0.13,1644837172.390625,P07,D06,0,0,1
2087,0.22,1644837172.40625,P07,D06,0,0,1
2088,0.32,1644837172.421875,P07,D06,0,0,1
2089,0.37,1644837172.4375,P07,D06,0,0,1
2090,0.33,1644837172.453125,P07,D06,0,0,1
2091,0.23,1644837172.46875,P07,D06,0,0,1
2092,0.16,1644837172.484375,P07,D06,0,0,1
2093,0.2,1644837172.5,P07,D06,0,0,1
2094,0.35,1644837172.515625,P07,D06,0,0,1
2095,0.53,1644837172.53125,P07,D06,0,0,1
2096,0.65,1644837172.546875,P07,D06,0,0,1
2097,0.65,1644837172.5625,P07,D06,0,0,1
2098,0.55,1644837172.578125,P07,D06,0,0,1
2099,0.44,1644837172.59375,P07,D06,0,0,1
2100,0.39,1644837172.609375,P07,D06,0,0,1
2101,0.41,1644837172.625,P07,D06,0,0,1
2102,0.43,1644837172.640625,P07,D06,0,0,1
2103,0.37,1644837172.65625,P07,D06,0,0,1
2104,0.19,1644837172.671875,P07,D06,0,0,1
2105,-0.08,1644837172.6875,P07,D06,0,0,1
2106,-0.32,1644837172.703125,P07,D06,0,0,1
2107,-0.4,1644837172.71875,P07,D06,0,0,1
2108,-0.28,1644837172.734375,P07,D06,0,0,1
2109,-0.01,1644837172.75,P07,D06,0,0,1
2110,0.3,1644837172.765625,P07,D06,0,0,1
2111,0.51,1644837172.78125,P07,D06,0,0,1
2112,0.58,1644837172.796875,P07,D06,0,0,1
2113,0.53,1644837172.8125,P07,D06,0,0,1
2114,0.41,1644837172.828125,P07,D06,0,0,1
2115,0.31,1644837172.84375,P07,D06,0,0,1
2116,0.23,1644837172.859375,P07,D06,0,0,1
2117,0.15,1644837172.875,P07,D06,0,0,1
2118,0.01,1644837172.890625,P07,D06,0,0,1
2119,-0.2,1644837172.90625,P07,D06,0,0,1
2120,-0.44,1644837172.921875,P07,D06,0,0,1
2121,-0.62,1644837172.9375,P07,D06,0,0,1
2122,-0.67,1644837172.953125,P07,D06,0,0,1
2123,-0.58,1644837172.96875,P07,D06,0,0,1
2124,-0.37,1644837172.984375,P07,D06,0,0,1
2125,-0.15,1644837173.0,P07,D06,0,0,1
2126,0.01,1644837173.015625,P07,D06,0,0,1
2127,0.06,1644837173.03125,P07,D06,0,0,1
2128,0.01,1644837173.046875,P07,D06,0,0,1
2129,-0.11,1644837173.0625,P07,D06,0,0,1
2130,-0.24,1644837173.078125,P07,D06,0,0,1
2131,-0.32,1644837173.09375,P07,D06,0,0,1
2132,-0.33,1644837173.109375,P07,D06,0,0,1
2133,-0.25,1644837173.125,P07,D06,0,0,1
2134,-0.07,1644837173.140625,P07,D06,0,0,1
2135,0.17,1644837173.15625,P07,D06,0,0,1
2136,0.42,1644837173.171875,P07,D06,0,0,1
2137,0.59,1644837173.1875,P07,D06,0,0,1
2138,0.64,1644837173.203125,P07,D06,0,0,1
2139,0.56,1644837173.21875,P07,D06,0,0,1
2140,0.39,1644837173.234375,P07,D06,0,0,1
2141,0.2,1644837173.25,P07,D06,0,0,1
2142,0.04,1644837173.265625,P07,D06,0,0,1
2143,-0.08,1644837173.28125,P07,D06,0,0,1
2144,-0.17,1644837173.296875,P07,D06,0,0,1
2145,-0.23,1644837173.3125,P07,D06,0,0,1
2146,-0.26,1644837173.328125,P07,D06,0,0,1
2147,-0.22,1644837173.34375,P07,D06,0,0,1
2148,-0.12,1644837173.359375,P07,D06,0,0,1
2149,0.02,1644837173.375,P07,D06,0,0,1
2150,0.14,1644837173.390625,P07,D06,0,0,1
2151,0.19,1644837173.40625,P07,D06,0,0,1
2152,0.16,1644837173.421875,P07,D06,0,0,1
2153,0.04,1644837173.4375,P07,D06,0,0,1
2154,-0.14,1644837173.453125,P07,D06,0,0,1
2155,-0.38,1644837173.46875,P07,D06,0,0,1
2156,-0.69,1644837173.484375,P07,D06,0,0,1
2157,-1.07,1644837173.5,P07,D06,0,0,1
2158,-1.45,1644837173.515625,P07,D06,0,0,1
2159,-1.74,1644837173.53125,P07,D06,0,0,1
2160,-1.84,1644837173.546875,P07,D06,0,0,1
2161,-1.71,1644837173.5625,P07,D06,0,0,1
2162,-1.4,1644837173.578125,P07,D06,0,0,1
2163,-1.02,1644837173.59375,P07,D06,0,0,1
2164,-0.71,1644837173.609375,P07,D06,0,0,1
2165,-0.54,1644837173.625,P07,D06,0,0,1
2166,-0.48,1644837173.640625,P07,D06,0,0,1
2167,-0.45,1644837173.65625,P07,D06,0,0,1
2168,-0.39,1644837173.671875,P07,D06,0,0,1
2169,-0.26,1644837173.6875,P07,D06,0,0,1
2170,-0.1,1644837173.703125,P07,D06,0,0,1
2171,0.06,1644837173.71875,P07,D06,0,0,1
2172,0.18,1644837173.734375,P07,D06,0,0,1
2173,0.3,1644837173.75,P07,D06,0,0,1
2174,0.44,1644837173.765625,P07,D06,0,0,1
2175,0.64,1644837173.78125,P07,D06,0,0,1
2176,0.85,1644837173.796875,P07,D06,0,0,1
2177,1.04,1644837173.8125,P07,D06,0,0,1
2178,1.16,1644837173.828125,P07,D06,0,0,1
2179,1.2,1644837173.84375,P07,D06,0,0,1
2180,1.19,1644837173.859375,P07,D06,0,0,1
2181,1.17,1644837173.875,P07,D06,0,0,1
2182,1.14,1644837173.890625,P07,D06,0,0,1
2183,1.07,1644837173.90625,P07,D06,0,0,1
2184,0.91,1644837173.921875,P07,D06,0,0,1
2185,0.69,1644837173.9375,P07,D06,0,0,1
2186,0.44,1644837173.953125,P07,D06,0,0,1
2187,0.26,1644837173.96875,P07,D06,0,0,1
2188,0.2,1644837173.984375,P07,D06,0,0,1
2189,0.26,1644837174.0,P07,D06,0,0,1
2190,0.38,1644837174.015625,P07,D06,0,0,1
2191,0.47,1644837174.03125,P07,D06,0,0,1
2192,0.47,1644837174.046875,P07,D06,0,0,1
2193,0.38,1644837174.0625,P07,D06,0,0,1
2194,0.21,1644837174.078125,P07,D06,0,0,1
2195,-0.01,1644837174.09375,P07,D06,0,0,1
2196,-0.26,1644837174.109375,P07,D06,0,0,1
2197,-0.53,1644837174.125,P07,D06,0,0,1
2198,-0.8,1644837174.140625,P07,D06,0,0,1
2199,-1.02,1644837174.15625,P07,D06,0,0,1
2200,-1.17,1644837174.171875,P07,D06,0,0,1
2201,-1.19,1644837174.1875,P07,D06,0,0,1
2202,-1.1,1644837174.203125,P07,D06,0,0,1
2203,-0.93,1644837174.21875,P07,D06,0,0,1
2204,-0.72,1644837174.234375,P07,D06,0,0,1
2205,-0.52,1644837174.25,P07,D06,0,0,1
2206,-0.33,1644837174.265625,P07,D06,0,0,1
2207,-0.14,1644837174.28125,P07,D06,0,0,1
2208,0.04,1644837174.296875,P07,D06,0,0,1
2209,0.19,1644837174.3125,P07,D06,0,0,1
2210,0.28,1644837174.328125,P07,D06,0,0,1
2211,0.29,1644837174.34375,P07,D06,0,0,1
2212,0.2,1644837174.359375,P07,D06,0,0,1
2213,0.03,1644837174.375,P07,D06,0,0,1
2214,-0.16,1644837174.390625,P07,D06,0,0,1
2215,-0.32,1644837174.40625,P07,D06,0,0,1
2216,-0.4,1644837174.421875,P07,D06,0,0,1
2217,-0.4,1644837174.4375,P07,D06,0,0,1
2218,-0.33,1644837174.453125,P07,D06,0,0,1
2219,-0.24,1644837174.46875,P07,D06,0,0,1
2220,-0.16,1644837174.484375,P07,D06,0,0,1
2221,-0.08,1644837174.5,P07,D06,0,0,1
2222,0.01,1644837174.515625,P07,D06,0,0,1
2223,0.08,1644837174.53125,P07,D06,0,0,1
2224,0.12,1644837174.546875,P07,D06,0,0,1
2225,0.08,1644837174.5625,P07,D06,0,0,1
2226,-0.04,1644837174.578125,P07,D06,0,0,1
2227,-0.2,1644837174.59375,P07,D06,0,0,1
2228,-0.31,1644837174.609375,P07,D06,0,0,1
2229,-0.28,1644837174.625,P07,D06,0,0,1
2230,-0.1,1644837174.640625,P07,D06,0,0,1
2231,0.16,1644837174.65625,P07,D06,0,0,1
2232,0.37,1644837174.671875,P07,D06,0,0,1
2233,0.4,1644837174.6875,P07,D06,0,0,1
2234,0.19,1644837174.703125,P07,D06,0,0,1
2235,-0.22,1644837174.71875,P07,D06,0,0,1
2236,-0.71,1644837174.734375,P07,D06,0,0,1
2237,-1.14,1644837174.75,P07,D06,0,0,1
2238,-1.39,1644837174.765625,P07,D06,0,0,1
2239,-1.41,1644837174.78125,P07,D06,0,0,1
2240,-1.23,1644837174.796875,P07,D06,0,0,1
2241,-0.94,1644837174.8125,P07,D06,0,0,1
2242,-0.67,1644837174.828125,P07,D06,0,0,1
2243,-0.51,1644837174.84375,P07,D06,0,0,1
2244,-0.51,1644837174.859375,P07,D06,0,0,1
2245,-0.65,1644837174.875,P07,D06,0,0,1
2246,-0.82,1644837174.890625,P07,D06,0,0,1
2247,-0.89,1644837174.90625,P07,D06,0,0,1
2248,-0.77,1644837174.921875,P07,D06,0,0,1
2249,-0.46,1644837174.9375,P07,D06,0,0,1
2250,-0.01,1644837174.953125,P07,D06,0,0,1
2251,0.46,1644837174.96875,P07,D06,0,0,1
2252,0.85,1644837174.984375,P07,D06,0,0,1
2253,1.11,1644837175.0,P07,D06,0,0,1
2254,1.23,1644837175.015625,P07,D06,0,0,1
2255,1.24,1644837175.03125,P07,D06,0,0,1
2256,1.19,1644837175.046875,P07,D06,0,0,1
2257,1.08,1644837175.0625,P07,D06,0,0,1
2258,0.95,1644837175.078125,P07,D06,0,0,1
2259,0.79,1644837175.09375,P07,D06,0,0,1
2260,0.61,1644837175.109375,P07,D06,0,0,1
2261,0.45,1644837175.125,P07,D06,0,0,1
2262,0.32,1644837175.140625,P07,D06,0,0,1
2263,0.26,1644837175.15625,P07,D06,0,0,1
2264,0.28,1644837175.171875,P07,D06,0,0,1
2265,0.35,1644837175.1875,P07,D06,0,0,1
2266,0.41,1644837175.203125,P07,D06,0,0,1
2267,0.39,1644837175.21875,P07,D06,0,0,1
2268,0.26,1644837175.234375,P07,D06,0,0,1
2269,0.07,1644837175.25,P07,D06,0,0,1
2270,-0.1,1644837175.265625,P07,D06,0,0,1
2271,-0.15,1644837175.28125,P07,D06,0,0,1
2272,-0.03,1644837175.296875,P07,D06,0,0,1
2273,0.24,1644837175.3125,P07,D06,0,0,1
2274,0.55,1644837175.328125,P07,D06,0,0,1
2275,0.78,1644837175.34375,P07,D06,0,0,1
2276,0.89,1644837175.359375,P07,D06,0,0,1
2277,0.88,1644837175.375,P07,D06,0,0,1
2278,0.82,1644837175.390625,P07,D06,0,0,1
2279,0.77,1644837175.40625,P07,D06,0,0,1
2280,0.75,1644837175.421875,P07,D06,0,0,1
2281,0.75,1644837175.4375,P07,D06,0,0,1
2282,0.76,1644837175.453125,P07,D06,0,0,1
2283,0.76,1644837175.46875,P07,D06,0,0,1
2284,0.77,1644837175.484375,P07,D06,0,0,1
2285,0.75,1644837175.5,P07,D06,0,0,1
2286,0.69,1644837175.515625,P07,D06,0,0,1
2287,0.54,1644837175.53125,P07,D06,0,0,1
2288,0.32,1644837175.546875,P07,D06,0,0,1
2289,0.06,1644837175.5625,P07,D06,0,0,1
2290,-0.13,1644837175.578125,P07,D06,0,0,1
2291,-0.17,1644837175.59375,P07,D06,0,0,1
2292,-0.06,1644837175.609375,P07,D06,0,0,1
2293,0.16,1644837175.625,P07,D06,0,0,1
2294,0.38,1644837175.640625,P07,D06,0,0,1
2295,0.49,1644837175.65625,P07,D06,0,0,1
2296,0.44,1644837175.671875,P07,D06,0,0,1
2297,0.22,1644837175.6875,P07,D06,0,0,1
2298,-0.09,1644837175.703125,P07,D06,0,0,1
2299,-0.4,1644837175.71875,P07,D06,0,0,1
2300,-0.64,1644837175.734375,P07,D06,0,0,1
2301,-0.71,1644837175.75,P07,D06,0,0,1
2302,-0.61,1644837175.765625,P07,D06,0,0,1
2303,-0.37,1644837175.78125,P07,D06,0,0,1
2304,-0.1,1644837175.796875,P07,D06,0,0,1
2305,0.09,1644837175.8125,P07,D06,0,0,1
2306,0.12,1644837175.828125,P07,D06,0,0,1
2307,0.02,1644837175.84375,P07,D06,0,0,1
2308,-0.14,1644837175.859375,P07,D06,0,0,1
2309,-0.23,1644837175.875,P07,D06,0,0,1
2310,-0.2,1644837175.890625,P07,D06,0,0,1
2311,-0.06,1644837175.90625,P07,D06,0,0,1
2312,0.13,1644837175.921875,P07,D06,0,0,1
2313,0.3,1644837175.9375,P07,D06,0,0,1
2314,0.44,1644837175.953125,P07,D06,0,0,1
2315,0.57,1644837175.96875,P07,D06,0,0,1
2316,0.75,1644837175.984375,P07,D06,0,0,1
2317,0.98,1644837176.0,P07,D06,0,0,1
2318,1.2,1644837176.015625,P07,D06,0,0,1
2319,1.31,1644837176.03125,P07,D06,0,0,1
2320,1.24,1644837176.046875,P07,D06,0,0,1
2321,0.98,1644837176.0625,P07,D06,0,0,1
2322,0.61,1644837176.078125,P07,D06,0,0,1
2323,0.21,1644837176.09375,P07,D06,0,0,1
2324,-0.11,1644837176.109375,P07,D06,0,0,1
2325,-0.35,1644837176.125,P07,D06,0,0,1
2326,-0.54,1644837176.140625,P07,D06,0,0,1
2327,-0.71,1644837176.15625,P07,D06,0,0,1
2328,-0.89,1644837176.171875,P07,D06,0,0,1
2329,-1.05,1644837176.1875,P07,D06,0,0,1
2330,-1.15,1644837176.203125,P07,D06,0,0,1
2331,-1.17,1644837176.21875,P07,D06,0,0,1
2332,-1.12,1644837176.234375,P07,D06,0,0,1
2333,-1.05,1644837176.25,P07,D06,0,0,1
2334,-1.04,1644837176.265625,P07,D06,0,0,1
2335,-1.11,1644837176.28125,P07,D06,0,0,1
2336,-1.24,1644837176.296875,P07,D06,0,0,1
2337,-1.39,1644837176.3125,P07,D06,0,0,1
2338,-1.5,1644837176.328125,P07,D06,0,0,1
2339,-1.56,1644837176.34375,P07,D06,0,0,1
2340,-1.56,1644837176.359375,P07,D06,0,0,1
2341,-1.51,1644837176.375,P07,D06,0,0,1
2342,-1.37,1644837176.390625,P07,D06,0,0,1
2343,-1.12,1644837176.40625,P07,D06,0,0,1
2344,-0.74,1644837176.421875,P07,D06,0,0,1
2345,-0.26,1644837176.4375,P07,D06,0,0,1
2346,0.22,1644837176.453125,P07,D06,0,0,1
2347,0.57,1644837176.46875,P07,D06,0,0,1
2348,0.72,1644837176.484375,P07,D06,0,0,1
2349,0.64,1644837176.5,P07,D06,0,0,1
2350,0.39,1644837176.515625,P07,D06,0,0,1
2351,0.08,1644837176.53125,P07,D06,0,0,1
2352,-0.16,1644837176.546875,P07,D06,0,0,1
2353,-0.26,1644837176.5625,P07,D06,0,0,1
2354,-0.18,1644837176.578125,P07,D06,0,0,1
2355,0.04,1644837176.59375,P07,D06,0,0,1
2356,0.33,1644837176.609375,P07,D06,0,0,1
2357,0.6,1644837176.625,P07,D06,0,0,1
2358,0.77,1644837176.640625,P07,D06,0,0,1
2359,0.82,1644837176.65625,P07,D06,0,0,1
2360,0.78,1644837176.671875,P07,D06,0,0,1
2361,0.72,1644837176.6875,P07,D06,0,0,1
2362,0.7,1644837176.703125,P07,D06,0,0,1
2363,0.76,1644837176.71875,P07,D06,0,0,1
2364,0.87,1644837176.734375,P07,D06,0,0,1
2365,0.97,1644837176.75,P07,D06,0,0,1
2366,1.01,1644837176.765625,P07,D06,0,0,1
2367,0.99,1644837176.78125,P07,D06,0,0,1
2368,0.93,1644837176.796875,P07,D06,0,0,1
2369,0.87,1644837176.8125,P07,D06,0,0,1
2370,0.81,1644837176.828125,P07,D06,0,0,1
2371,0.74,1644837176.84375,P07,D06,0,0,1
2372,0.65,1644837176.859375,P07,D06,0,0,1
2373,0.58,1644837176.875,P07,D06,0,0,1
2374,0.54,1644837176.890625,P07,D06,0,0,1
2375,0.54,1644837176.90625,P07,D06,0,0,1
2376,0.54,1644837176.921875,P07,D06,0,0,1
2377,0.47,1644837176.9375,P07,D06,0,0,1
2378,0.27,1644837176.953125,P07,D06,0,0,1
2379,-0.03,1644837176.96875,P07,D06,0,0,1
2380,-0.37,1644837176.984375,P07,D06,0,0,1
2381,-0.64,1644837177.0,P07,D06,0,0,1
2382,-0.79,1644837177.015625,P07,D06,0,0,1
2383,-0.81,1644837177.03125,P07,D06,0,0,1
2384,-0.74,1644837177.046875,P07,D06,0,0,1
2385,-0.66,1644837177.0625,P07,D06,0,0,1
2386,-0.6,1644837177.078125,P07,D06,0,0,1
2387,-0.54,1644837177.09375,P07,D06,0,0,1
2388,-0.46,1644837177.109375,P07,D06,0,0,1
2389,-0.32,1644837177.125,P07,D06,0,0,1
2390,-0.14,1644837177.140625,P07,D06,0,0,1
2391,0.06,1644837177.15625,P07,D06,0,0,1
2392,0.23,1644837177.171875,P07,D06,0,0,1
2393,0.35,1644837177.1875,P07,D06,0,0,1
2394,0.4,1644837177.203125,P07,D06,0,0,1
2395,0.38,1644837177.21875,P07,D06,0,0,1
2396,0.32,1644837177.234375,P07,D06,0,0,1
2397,0.22,1644837177.25,P07,D06,0,0,1
2398,0.13,1644837177.265625,P07,D06,0,0,1
2399,0.07,1644837177.28125,P07,D06,0,0,1
2400,0.05,1644837177.296875,P07,D06,0,0,1
2401,0.05,1644837177.3125,P07,D06,0,0,1
2402,0.02,1644837177.328125,P07,D06,0,0,1
2403,-0.08,1644837177.34375,P07,D06,0,0,1
2404,-0.22,1644837177.359375,P07,D06,0,0,1
2405,-0.36,1644837177.375,P07,D06,0,0,1
2406,-0.42,1644837177.390625,P07,D06,0,0,1
2407,-0.37,1644837177.40625,P07,D06,0,0,1
2408,-0.25,1644837177.421875,P07,D06,0,0,1
2409,-0.15,1644837177.4375,P07,D06,0,0,1
2410,-0.17,1644837177.453125,P07,D06,0,0,1
2411,-0.35,1644837177.46875,P07,D06,0,0,1
2412,-0.65,1644837177.484375,P07,D06,0,0,1
2413,-1.02,1644837177.5,P07,D06,0,0,1
2414,-1.35,1644837177.515625,P07,D06,0,0,1
2415,-1.59,1644837177.53125,P07,D06,0,0,1
2416,-1.69,1644837177.546875,P07,D06,0,0,1
2417,-1.66,1644837177.5625,P07,D06,0,0,1
2418,-1.49,1644837177.578125,P07,D06,0,0,1
2419,-1.19,1644837177.59375,P07,D06,0,0,1
2420,-0.8,1644837177.609375,P07,D06,0,0,1
2421,-0.35,1644837177.625,P07,D06,0,0,1
2422,0.07,1644837177.640625,P07,D06,0,0,1
2423,0.38,1644837177.65625,P07,D06,0,0,1
2424,0.53,1644837177.671875,P07,D06,0,0,1
2425,0.52,1644837177.6875,P07,D06,0,0,1
2426,0.42,1644837177.703125,P07,D06,0,0,1
2427,0.31,1644837177.71875,P07,D06,0,0,1
2428,0.24,1644837177.734375,P07,D06,0,0,1
2429,0.23,1644837177.75,P07,D06,0,0,1
2430,0.26,1644837177.765625,P07,D06,0,0,1
2431,0.26,1644837177.78125,P07,D06,0,0,1
2432,0.2,1644837177.796875,P07,D06,0,0,1
2433,0.1,1644837177.8125,P07,D06,0,0,1
2434,0.04,1644837177.828125,P07,D06,0,0,1
2435,0.09,1644837177.84375,P07,D06,0,0,1
2436,0.28,1644837177.859375,P07,D06,0,0,1
2437,0.55,1644837177.875,P07,D06,0,0,1
2438,0.83,1644837177.890625,P07,D06,0,0,1
2439,1.03,1644837177.90625,P07,D06,0,0,1
2440,1.16,1644837177.921875,P07,D06,0,0,1
2441,1.26,1644837177.9375,P07,D06,0,0,1
2442,1.34,1644837177.953125,P07,D06,0,0,1
2443,1.4,1644837177.96875,P07,D06,0,0,1
2444,1.34,1644837177.984375,P07,D06,0,0,1
2445,1.09,1644837178.0,P07,D06,0,0,1
2446,0.65,1644837178.015625,P07,D06,0,0,1
2447,0.14,1644837178.03125,P07,D06,0,0,1
2448,-0.25,1644837178.046875,P07,D06,0,0,1
2449,-0.41,1644837178.0625,P07,D06,0,0,1
2450,-0.32,1644837178.078125,P07,D06,0,0,1
2451,-0.12,1644837178.09375,P07,D06,0,0,1
2452,0.01,1644837178.109375,P07,D06,0,0,1
2453,-0.05,1644837178.125,P07,D06,0,0,1
2454,-0.29,1644837178.140625,P07,D06,0,0,1
2455,-0.58,1644837178.15625,P07,D06,0,0,1
2456,-0.79,1644837178.171875,P07,D06,0,0,1
2457,-0.84,1644837178.1875,P07,D06,0,0,1
2458,-0.74,1644837178.203125,P07,D06,0,0,1
2459,-0.6,1644837178.21875,P07,D06,0,0,1
2460,-0.49,1644837178.234375,P07,D06,0,0,1
2461,-0.46,1644837178.25,P07,D06,0,0,1
2462,-0.48,1644837178.265625,P07,D06,0,0,1
2463,-0.52,1644837178.28125,P07,D06,0,0,1
2464,-0.57,1644837178.296875,P07,D06,0,0,1
2465,-0.67,1644837178.3125,P07,D06,0,0,1
2466,-0.84,1644837178.328125,P07,D06,0,0,1
2467,-1.08,1644837178.34375,P07,D06,0,0,1
2468,-1.34,1644837178.359375,P07,D06,0,0,1
2469,-1.52,1644837178.375,P07,D06,0,0,1
2470,-1.54,1644837178.390625,P07,D06,0,0,1
2471,-1.36,1644837178.40625,P07,D06,0,0,1
2472,-1.03,1644837178.421875,P07,D06,0,0,1
2473,-0.61,1644837178.4375,P07,D06,0,0,1
2474,-0.19,1644837178.453125,P07,D06,0,0,1
2475,0.2,1644837178.46875,P07,D06,0,0,1
2476,0.53,1644837178.484375,P07,D06,0,0,1
2477,0.78,1644837178.5,P07,D06,0,0,1
2478,0.94,1644837178.515625,P07,D06,0,0,1
2479,0.97,1644837178.53125,P07,D06,0,0,1
2480,0.86,1644837178.546875,P07,D06,0,0,1
2481,0.67,1644837178.5625,P07,D06,0,0,1
2482,0.45,1644837178.578125,P07,D06,0,0,1
2483,0.3,1644837178.59375,P07,D06,0,0,1
2484,0.25,1644837178.609375,P07,D06,0,0,1
2485,0.31,1644837178.625,P07,D06,0,0,1
2486,0.42,1644837178.640625,P07,D06,0,0,1
2487,0.55,1644837178.65625,P07,D06,0,0,1
2488,0.68,1644837178.671875,P07,D06,0,0,1
2489,0.79,1644837178.6875,P07,D06,0,0,1
2490,0.89,1644837178.703125,P07,D06,0,0,1
2491,0.92,1644837178.71875,P07,D06,0,0,1
2492,0.87,1644837178.734375,P07,D06,0,0,1
2493,0.7,1644837178.75,P07,D06,0,0,1
2494,0.49,1644837178.765625,P07,D06,0,0,1
2495,0.28,1644837178.78125,P07,D06,0,0,1
2496,0.17,1644837178.796875,P07,D06,0,0,1
2497,0.18,1644837178.8125,P07,D06,0,0,1
2498,0.28,1644837178.828125,P07,D06,0,0,1
2499,0.38,1644837178.84375,P07,D06,0,0,1
2500,0.43,1644837178.859375,P07,D06,0,0,1
2501,0.38,1644837178.875,P07,D06,0,0,1
2502,0.26,1644837178.890625,P07,D06,0,0,1
2503,0.11,1644837178.90625,P07,D06,0,0,1
2504,-0.04,1644837178.921875,P07,D06,0,0,1
2505,-0.18,1644837178.9375,P07,D06,0,0,1
2506,-0.3,1644837178.953125,P07,D06,0,0,1
2507,-0.37,1644837178.96875,P07,D06,0,0,1
2508,-0.41,1644837178.984375,P07,D06,0,0,1
2509,-0.42,1644837179.0,P07,D06,0,0,1
2510,-0.4,1644837179.015625,P07,D06,0,0,1
2511,-0.38,1644837179.03125,P07,D06,0,0,1
2512,-0.32,1644837179.046875,P07,D06,0,0,1
2513,-0.22,1644837179.0625,P07,D06,0,0,1
2514,-0.06,1644837179.078125,P07,D06,0,0,1
2515,0.13,1644837179.09375,P07,D06,0,0,1
2516,0.27,1644837179.109375,P07,D06,0,0,1
2517,0.3,1644837179.125,P07,D06,0,0,1
2518,0.18,1644837179.140625,P07,D06,0,0,1
2519,-0.02,1644837179.15625,P07,D06,0,0,1
2520,-0.21,1644837179.171875,P07,D06,0,0,1
2521,-0.28,1644837179.1875,P07,D06,0,0,1
2522,-0.18,1644837179.203125,P07,D06,0,0,1
2523,0.04,1644837179.21875,P07,D06,0,0,1
2524,0.29,1644837179.234375,P07,D06,0,0,1
2525,0.47,1644837179.25,P07,D06,0,0,1
2526,0.49,1644837179.265625,P07,D06,0,0,1
2527,0.37,1644837179.28125,P07,D06,0,0,1
2528,0.16,1644837179.296875,P07,D06,0,0,1
2529,-0.08,1644837179.3125,P07,D06,0,0,1
2530,-0.3,1644837179.328125,P07,D06,0,0,1
2531,-0.46,1644837179.34375,P07,D06,0,0,1
2532,-0.55,1644837179.359375,P07,D06,0,0,1
2533,-0.59,1644837179.375,P07,D06,0,0,1
2534,-0.58,1644837179.390625,P07,D06,0,0,1
2535,-0.54,1644837179.40625,P07,D06,0,0,1
2536,-0.46,1644837179.421875,P07,D06,0,0,1
2537,-0.37,1644837179.4375,P07,D06,0,0,1
2538,-0.28,1644837179.453125,P07,D06,0,0,1
2539,-0.21,1644837179.46875,P07,D06,0,0,1
2540,-0.19,1644837179.484375,P07,D06,0,0,1
2541,-0.2,1644837179.5,P07,D06,0,0,1
2542,-0.2,1644837179.515625,P07,D06,0,0,1
2543,-0.14,1644837179.53125,P07,D06,0,0,1
2544,-0.02,1644837179.546875,P07,D06,0,0,1
2545,0.15,1644837179.5625,P07,D06,0,0,1
2546,0.3,1644837179.578125,P07,D06,0,0,1
2547,0.4,1644837179.59375,P07,D06,0,0,1
2548,0.42,1644837179.609375,P07,D06,0,0,1
2549,0.38,1644837179.625,P07,D06,0,0,1
2550,0.36,1644837179.640625,P07,D06,0,0,1
2551,0.41,1644837179.65625,P07,D06,0,0,1
2552,0.54,1644837179.671875,P07,D06,0,0,1
2553,0.71,1644837179.6875,P07,D06,0,0,1
2554,0.86,1644837179.703125,P07,D06,0,0,1
2555,0.93,1644837179.71875,P07,D06,0,0,1
2556,0.89,1644837179.734375,P07,D06,0,0,1
2557,0.78,1644837179.75,P07,D06,0,0,1
2558,0.64,1644837179.765625,P07,D06,0,0,1
2559,0.54,1644837179.78125,P07,D06,0,0,1
2560,0.49,1644837179.796875,P07,D06,0,0,1
2561,0.47,1644837179.8125,P07,D06,0,0,1
2562,0.46,1644837179.828125,P07,D06,0,0,1
2563,0.43,1644837179.84375,P07,D06,0,0,1
2564,0.37,1644837179.859375,P07,D06,0,0,1
2565,0.3,1644837179.875,P07,D06,0,0,1
2566,0.23,1644837179.890625,P07,D06,0,0,1
2567,0.13,1644837179.90625,P07,D06,0,0,1
2568,-0.03,1644837179.921875,P07,D06,0,0,1
2569,-0.27,1644837179.9375,P07,D06,0,0,1
2570,-0.57,1644837179.953125,P07,D06,0,0,1
2571,-0.9,1644837179.96875,P07,D06,0,0,1
2572,-1.21,1644837179.984375,P07,D06,0,0,1
2573,-1.47,1644837180.0,P07,D06,0,0,1
2574,-1.65,1644837180.015625,P07,D06,0,0,1
2575,-1.75,1644837180.03125,P07,D06,0,0,1
2576,-1.74,1644837180.046875,P07,D06,0,0,1
2577,-1.61,1644837180.0625,P07,D06,0,0,1
2578,-1.33,1644837180.078125,P07,D06,0,0,1
2579,-0.94,1644837180.09375,P07,D06,0,0,1
2580,-0.54,1644837180.109375,P07,D06,0,0,1
2581,-0.21,1644837180.125,P07,D06,0,0,1
2582,-0.02,1644837180.140625,P07,D06,0,0,1
2583,0.07,1644837180.15625,P07,D06,0,0,1
2584,0.13,1644837180.171875,P07,D06,0,0,1
2585,0.25,1644837180.1875,P07,D06,0,0,1
2586,0.44,1644837180.203125,P07,D06,0,0,1
2587,0.62,1644837180.21875,P07,D06,0,0,1
2588,0.7,1644837180.234375,P07,D06,0,0,1
2589,0.6,1644837180.25,P07,D06,0,0,1
2590,0.35,1644837180.265625,P07,D06,0,0,1
2591,0.05,1644837180.28125,P07,D06,0,0,1
2592,-0.19,1644837180.296875,P07,D06,0,0,1
2593,-0.29,1644837180.3125,P07,D06,0,0,1
2594,-0.27,1644837180.328125,P07,D06,0,0,1
2595,-0.17,1644837180.34375,P07,D06,0,0,1
2596,-0.08,1644837180.359375,P07,D06,0,0,1
2597,-0.03,1644837180.375,P07,D06,0,0,1
2598,-0.05,1644837180.390625,P07,D06,0,0,1
2599,-0.12,1644837180.40625,P07,D06,0,0,1
2600,-0.25,1644837180.421875,P07,D06,0,0,1
2601,-0.42,1644837180.4375,P07,D06,0,0,1
2602,-0.55,1644837180.453125,P07,D06,0,0,1
2603,-0.54,1644837180.46875,P07,D06,0,0,1
2604,-0.34,1644837180.484375,P07,D06,0,0,1
2605,0.05,1644837180.5,P07,D06,0,0,1
2606,0.48,1644837180.515625,P07,D06,0,0,1
2607,0.8,1644837180.53125,P07,D06,0,0,1
2608,0.85,1644837180.546875,P07,D06,0,0,1
2609,0.63,1644837180.5625,P07,D06,0,0,1
2610,0.26,1644837180.578125,P07,D06,0,0,1
2611,-0.06,1644837180.59375,P07,D06,0,0,1
2612,-0.21,1644837180.609375,P07,D06,0,0,1
2613,-0.12,1644837180.625,P07,D06,0,0,1
2614,0.12,1644837180.640625,P07,D06,0,0,1
2615,0.4,1644837180.65625,P07,D06,0,0,1
2616,0.59,1644837180.671875,P07,D06,0,0,1
2617,0.64,1644837180.6875,P07,D06,0,0,1
2618,0.56,1644837180.703125,P07,D06,0,0,1
2619,0.41,1644837180.71875,P07,D06,0,0,1
2620,0.23,1644837180.734375,P07,D06,0,0,1
2621,0.08,1644837180.75,P07,D06,0,0,1
2622,-0.01,1644837180.765625,P07,D06,0,0,1
2623,0.0,1644837180.78125,P07,D06,0,0,1
2624,0.12,1644837180.796875,P07,D06,0,0,1
2625,0.3,1644837180.8125,P07,D06,0,0,1
2626,0.5,1644837180.828125,P07,D06,0,0,1
2627,0.67,1644837180.84375,P07,D06,0,0,1
2628,0.76,1644837180.859375,P07,D06,0,0,1
2629,0.76,1644837180.875,P07,D06,0,0,1
2630,0.62,1644837180.890625,P07,D06,0,0,1
2631,0.34,1644837180.90625,P07,D06,0,0,1
2632,-0.08,1644837180.921875,P07,D06,0,0,1
2633,-0.53,1644837180.9375,P07,D06,0,0,1
2634,-0.9,1644837180.953125,P07,D06,0,0,1
2635,-1.07,1644837180.96875,P07,D06,0,0,1
2636,-0.97,1644837180.984375,P07,D06,0,0,1
2637,-0.69,1644837181.0,P07,D06,0,0,1
2638,-0.4,1644837181.015625,P07,D06,0,0,1
2639,-0.24,1644837181.03125,P07,D06,0,0,1
2640,-0.29,1644837181.046875,P07,D06,0,0,1
2641,-0.51,1644837181.0625,P07,D06,0,0,1
2642,-0.77,1644837181.078125,P07,D06,0,0,1
2643,-0.94,1644837181.09375,P07,D06,0,0,1
2644,-0.97,1644837181.109375,P07,D06,0,0,1
2645,-0.88,1644837181.125,P07,D06,0,0,1
2646,-0.75,1644837181.140625,P07,D06,0,0,1
2647,-0.62,1644837181.15625,P07,D06,0,0,1
2648,-0.5,1644837181.171875,P07,D06,0,0,1
2649,-0.37,1644837181.1875,P07,D06,0,0,1
2650,-0.21,1644837181.203125,P07,D06,0,0,1
2651,-0.06,1644837181.21875,P07,D06,0,0,1
2652,0.04,1644837181.234375,P07,D06,0,0,1
2653,0.06,1644837181.25,P07,D06,0,0,1
2654,0.02,1644837181.265625,P07,D06,0,0,1
2655,-0.02,1644837181.28125,P07,D06,0,0,1
2656,0.0,1644837181.296875,P07,D06,0,0,1
2657,0.11,1644837181.3125,P07,D06,0,0,1
2658,0.3,1644837181.328125,P07,D06,0,0,1
2659,0.52,1644837181.34375,P07,D06,0,0,1
2660,0.71,1644837181.359375,P07,D06,0,0,1
2661,0.85,1644837181.375,P07,D06,0,0,1
2662,0.95,1644837181.390625,P07,D06,0,0,1
2663,1.05,1644837181.40625,P07,D06,0,0,1
2664,1.19,1644837181.421875,P07,D06,0,0,1
2665,1.39,1644837181.4375,P07,D06,0,0,1
2666,1.6,1644837181.453125,P07,D06,0,0,1
2667,1.77,1644837181.46875,P07,D06,0,0,1
2668,1.8,1644837181.484375,P07,D06,0,0,1
2669,1.65,1644837181.5,P07,D06,0,0,1
2670,1.35,1644837181.515625,P07,D06,0,0,1
2671,1.04,1644837181.53125,P07,D06,0,0,1
2672,0.85,1644837181.546875,P07,D06,0,0,1
2673,0.86,1644837181.5625,P07,D06,0,0,1
2674,1.05,1644837181.578125,P07,D06,0,0,1
2675,1.27,1644837181.59375,P07,D06,0,0,1
2676,1.35,1644837181.609375,P07,D06,0,0,1
2677,1.2,1644837181.625,P07,D06,0,0,1
2678,0.84,1644837181.640625,P07,D06,0,0,1
2679,0.37,1644837181.65625,P07,D06,0,0,1
2680,-0.07,1644837181.671875,P07,D06,0,0,1
2681,-0.4,1644837181.6875,P07,D06,0,0,1
2682,-0.59,1644837181.703125,P07,D06,0,0,1
2683,-0.66,1644837181.71875,P07,D06,0,0,1
2684,-0.66,1644837181.734375,P07,D06,0,0,1
2685,-0.64,1644837181.75,P07,D06,0,0,1
2686,-0.67,1644837181.765625,P07,D06,0,0,1
2687,-0.8,1644837181.78125,P07,D06,0,0,1
2688,-1.05,1644837181.796875,P07,D06,0,0,1
2689,-1.38,1644837181.8125,P07,D06,0,0,1
2690,-1.7,1644837181.828125,P07,D06,0,0,1
2691,-1.91,1644837181.84375,P07,D06,0,0,1
2692,-1.96,1644837181.859375,P07,D06,0,0,1
2693,-1.86,1644837181.875,P07,D06,0,0,1
2694,-1.69,1644837181.890625,P07,D06,0,0,1
2695,-1.5,1644837181.90625,P07,D06,0,0,1
2696,-1.32,1644837181.921875,P07,D06,0,0,1
2697,-1.1,1644837181.9375,P07,D06,0,0,1
2698,-0.84,1644837181.953125,P07,D06,0,0,1
2699,-0.55,1644837181.96875,P07,D06,0,0,1
2700,-0.34,1644837181.984375,P07,D06,0,0,1
2701,-0.26,1644837182.0,P07,D06,0,0,1
2702,-0.33,1644837182.015625,P07,D06,0,0,1
2703,-0.47,1644837182.03125,P07,D06,0,0,1
2704,-0.55,1644837182.046875,P07,D06,0,0,1
2705,-0.48,1644837182.0625,P07,D06,0,0,1
2706,-0.29,1644837182.078125,P07,D06,0,0,1
2707,-0.04,1644837182.09375,P07,D06,0,0,1
2708,0.17,1644837182.109375,P07,D06,0,0,1
2709,0.27,1644837182.125,P07,D06,0,0,1
2710,0.28,1644837182.140625,P07,D06,0,0,1
2711,0.26,1644837182.15625,P07,D06,0,0,1
2712,0.26,1644837182.171875,P07,D06,0,0,1
2713,0.31,1644837182.1875,P07,D06,0,0,1
2714,0.37,1644837182.203125,P07,D06,0,0,1
2715,0.38,1644837182.21875,P07,D06,0,0,1
2716,0.3,1644837182.234375,P07,D06,0,0,1
2717,0.11,1644837182.25,P07,D06,0,0,1
2718,-0.11,1644837182.265625,P07,D06,0,0,1
2719,-0.29,1644837182.28125,P07,D06,0,0,1
2720,-0.31,1644837182.296875,P07,D06,0,0,1
2721,-0.1,1644837182.3125,P07,D06,0,0,1
2722,0.31,1644837182.328125,P07,D06,0,0,1
2723,0.82,1644837182.34375,P07,D06,0,0,1
2724,1.27,1644837182.359375,P07,D06,0,0,1
2725,1.53,1644837182.375,P07,D06,0,0,1
2726,1.54,1644837182.390625,P07,D06,0,0,1
2727,1.32,1644837182.40625,P07,D06,0,0,1
2728,1.0,1644837182.421875,P07,D06,0,0,1
2729,0.67,1644837182.4375,P07,D06,0,0,1
2730,0.41,1644837182.453125,P07,D06,0,0,1
2731,0.22,1644837182.46875,P07,D06,0,0,1
2732,0.1,1644837182.484375,P07,D06,0,0,1
2733,0.03,1644837182.5,P07,D06,0,0,1
2734,0.04,1644837182.515625,P07,D06,0,0,1
2735,0.13,1644837182.53125,P07,D06,0,0,1
2736,0.31,1644837182.546875,P07,D06,0,0,1
2737,0.53,1644837182.5625,P07,D06,0,0,1
2738,0.74,1644837182.578125,P07,D06,0,0,1
2739,0.87,1644837182.59375,P07,D06,0,0,1
2740,0.87,1644837182.609375,P07,D06,0,0,1
2741,0.75,1644837182.625,P07,D06,0,0,1
2742,0.56,1644837182.640625,P07,D06,0,0,1
2743,0.36,1644837182.65625,P07,D06,0,0,1
2744,0.19,1644837182.671875,P07,D06,0,0,1
2745,0.07,1644837182.6875,P07,D06,0,0,1
2746,-0.01,1644837182.703125,P07,D06,0,0,1
2747,-0.09,1644837182.71875,P07,D06,0,0,1
2748,-0.21,1644837182.734375,P07,D06,0,0,1
2749,-0.37,1644837182.75,P07,D06,0,0,1
2750,-0.52,1644837182.765625,P07,D06,0,0,1
2751,-0.57,1644837182.78125,P07,D06,0,0,1
2752,-0.45,1644837182.796875,P07,D06,0,0,1
2753,-0.17,1644837182.8125,P07,D06,0,0,1
2754,0.22,1644837182.828125,P07,D06,0,0,1
2755,0.59,1644837182.84375,P07,D06,0,0,1
2756,0.85,1644837182.859375,P07,D06,0,0,1
2757,0.96,1644837182.875,P07,D06,0,0,1
2758,0.94,1644837182.890625,P07,D06,0,0,1
2759,0.81,1644837182.90625,P07,D06,0,0,1
2760,0.61,1644837182.921875,P07,D06,0,0,1
2761,0.31,1644837182.9375,P07,D06,0,0,1
2762,-0.06,1644837182.953125,P07,D06,0,0,1
2763,-0.46,1644837182.96875,P07,D06,0,0,1
2764,-0.82,1644837182.984375,P07,D06,0,0,1
2765,-1.05,1644837183.0,P07,D06,0,0,1
2766,-1.12,1644837183.015625,P07,D06,0,0,1
2767,-1.06,1644837183.03125,P07,D06,0,0,1
2768,-0.94,1644837183.046875,P07,D06,0,0,1
2769,-0.81,1644837183.0625,P07,D06,0,0,1
2770,-0.69,1644837183.078125,P07,D06,0,0,1
2771,-0.59,1644837183.09375,P07,D06,0,0,1
2772,-0.52,1644837183.109375,P07,D06,0,0,1
2773,-0.53,1644837183.125,P07,D06,0,0,1
2774,-0.69,1644837183.140625,P07,D06,0,0,1
2775,-1.05,1644837183.15625,P07,D06,0,0,1
2776,-1.54,1644837183.171875,P07,D06,0,0,1
2777,-2.04,1644837183.1875,P07,D06,0,0,1
2778,-2.34,1644837183.203125,P07,D06,0,0,1
2779,-2.3,1644837183.21875,P07,D06,0,0,1
2780,-1.87,1644837183.234375,P07,D06,0,0,1
2781,-1.15,1644837183.25,P07,D06,0,0,1
2782,-0.35,1644837183.265625,P07,D06,0,0,1
2783,0.28,1644837183.28125,P07,D06,0,0,1
2784,0.57,1644837183.296875,P07,D06,0,0,1
2785,0.49,1644837183.3125,P07,D06,0,0,1
2786,0.17,1644837183.328125,P07,D06,0,0,1
2787,-0.17,1644837183.34375,P07,D06,0,0,1
2788,-0.35,1644837183.359375,P07,D06,0,0,1
2789,-0.29,1644837183.375,P07,D06,0,0,1
2790,-0.01,1644837183.390625,P07,D06,0,0,1
2791,0.38,1644837183.40625,P07,D06,0,0,1
2792,0.78,1644837183.421875,P07,D06,0,0,1
2793,1.07,1644837183.4375,P07,D06,0,0,1
2794,1.23,1644837183.453125,P07,D06,0,0,1
2795,1.23,1644837183.46875,P07,D06,0,0,1
2796,1.09,1644837183.484375,P07,D06,0,0,1
2797,0.82,1644837183.5,P07,D06,0,0,1
2798,0.44,1644837183.515625,P07,D06,0,0,1
2799,0.04,1644837183.53125,P07,D06,0,0,1
2800,-0.3,1644837183.546875,P07,D06,0,0,1
2801,-0.47,1644837183.5625,P07,D06,0,0,1
2802,-0.45,1644837183.578125,P07,D06,0,0,1
2803,-0.3,1644837183.59375,P07,D06,0,0,1
2804,-0.17,1644837183.609375,P07,D06,0,0,1
2805,-0.19,1644837183.625,P07,D06,0,0,1
2806,-0.42,1644837183.640625,P07,D06,0,0,1
2807,-0.78,1644837183.65625,P07,D06,0,0,1
2808,-1.08,1644837183.671875,P07,D06,0,0,1
2809,-1.19,1644837183.6875,P07,D06,0,0,1
2810,-1.03,1644837183.703125,P07,D06,0,0,1
2811,-0.71,1644837183.71875,P07,D06,0,0,1
2812,-0.4,1644837183.734375,P07,D06,0,0,1
2813,-0.25,1644837183.75,P07,D06,0,0,1
2814,-0.33,1644837183.765625,P07,D06,0,0,1
2815,-0.52,1644837183.78125,P07,D06,0,0,1
2816,-0.67,1644837183.796875,P07,D06,0,0,1
2817,-0.66,1644837183.8125,P07,D06,0,0,1
2818,-0.49,1644837183.828125,P07,D06,0,0,1
2819,-0.26,1644837183.84375,P07,D06,0,0,1
2820,-0.08,1644837183.859375,P07,D06,0,0,1
2821,-0.01,1644837183.875,P07,D06,0,0,1
2822,0.02,1644837183.890625,P07,D06,0,0,1
2823,0.1,1644837183.90625,P07,D06,0,0,1
2824,0.32,1644837183.921875,P07,D06,0,0,1
2825,0.66,1644837183.9375,P07,D06,0,0,1
2826,1.02,1644837183.953125,P07,D06,0,0,1
2827,1.25,1644837183.96875,P07,D06,0,0,1
2828,1.26,1644837183.984375,P07,D06,0,0,1
2829,1.08,1644837184.0,P07,D06,0,0,1
2830,0.83,1644837184.015625,P07,D06,0,0,1
2831,0.65,1644837184.03125,P07,D06,0,0,1
2832,0.61,1644837184.046875,P07,D06,0,0,1
2833,0.66,1644837184.0625,P07,D06,0,0,1
2834,0.68,1644837184.078125,P07,D06,0,0,1
2835,0.52,1644837184.09375,P07,D06,0,0,1
2836,0.17,1644837184.109375,P07,D06,0,0,1
2837,-0.28,1644837184.125,P07,D06,0,0,1
2838,-0.65,1644837184.140625,P07,D06,0,0,1
2839,-0.78,1644837184.15625,P07,D06,0,0,1
2840,-0.61,1644837184.171875,P07,D06,0,0,1
2841,-0.22,1644837184.1875,P07,D06,0,0,1
2842,0.19,1644837184.203125,P07,D06,0,0,1
2843,0.48,1644837184.21875,P07,D06,0,0,1
2844,0.59,1644837184.234375,P07,D06,0,0,1
2845,0.55,1644837184.25,P07,D06,0,0,1
2846,0.46,1644837184.265625,P07,D06,0,0,1
2847,0.38,1644837184.28125,P07,D06,0,0,1
2848,0.31,1644837184.296875,P07,D06,0,0,1
2849,0.22,1644837184.3125,P07,D06,0,0,1
2850,0.06,1644837184.328125,P07,D06,0,0,1
2851,-0.12,1644837184.34375,P07,D06,0,0,1
2852,-0.24,1644837184.359375,P07,D06,0,0,1
2853,-0.2,1644837184.375,P07,D06,0,0,1
2854,0.02,1644837184.390625,P07,D06,0,0,1
2855,0.34,1644837184.40625,P07,D06,0,0,1
2856,0.66,1644837184.421875,P07,D06,0,0,1
2857,0.87,1644837184.4375,P07,D06,0,0,1
2858,0.94,1644837184.453125,P07,D06,0,0,1
2859,0.91,1644837184.46875,P07,D06,0,0,1
2860,0.85,1644837184.484375,P07,D06,0,0,1
2861,0.83,1644837184.5,P07,D06,0,0,1
2862,0.84,1644837184.515625,P07,D06,0,0,1
2863,0.86,1644837184.53125,P07,D06,0,0,1
2864,0.86,1644837184.546875,P07,D06,0,0,1
2865,0.82,1644837184.5625,P07,D06,0,0,1
2866,0.77,1644837184.578125,P07,D06,0,0,1
2867,0.77,1644837184.59375,P07,D06,0,0,1
2868,0.85,1644837184.609375,P07,D06,0,0,1
2869,1.03,1644837184.625,P07,D06,0,0,1
2870,1.26,1644837184.640625,P07,D06,0,0,1
2871,1.47,1644837184.65625,P07,D06,0,0,1
2872,1.58,1644837184.671875,P07,D06,0,0,1
2873,1.53,1644837184.6875,P07,D06,0,0,1
2874,1.25,1644837184.703125,P07,D06,0,0,1
2875,0.77,1644837184.71875,P07,D06,0,0,1
2876,0.14,1644837184.734375,P07,D06,0,0,1
2877,-0.55,1644837184.75,P07,D06,0,0,1
2878,-1.15,1644837184.765625,P07,D06,0,0,1
2879,-1.57,1644837184.78125,P07,D06,0,0,1
2880,-1.74,1644837184.796875,P07,D06,0,0,1
2881,-1.66,1644837184.8125,P07,D06,0,0,1
2882,-1.37,1644837184.828125,P07,D06,0,0,1
2883,-0.95,1644837184.84375,P07,D06,0,0,1
2884,-0.52,1644837184.859375,P07,D06,0,0,1
2885,-0.2,1644837184.875,P07,D06,0,0,1
2886,-0.06,1644837184.890625,P07,D06,0,0,1
2887,-0.16,1644837184.90625,P07,D06,0,0,1
2888,-0.44,1644837184.921875,P07,D06,0,0,1
2889,-0.8,1644837184.9375,P07,D06,0,0,1
2890,-1.11,1644837184.953125,P07,D06,0,0,1
2891,-1.31,1644837184.96875,P07,D06,0,0,1
2892,-1.38,1644837184.984375,P07,D06,0,0,1
2893,-1.35,1644837185.0,P07,D06,0,0,1
2894,-1.26,1644837185.015625,P07,D06,0,0,1
2895,-1.13,1644837185.03125,P07,D06,0,0,1
2896,-0.96,1644837185.046875,P07,D06,0,0,1
2897,-0.76,1644837185.0625,P07,D06,0,0,1
2898,-0.58,1644837185.078125,P07,D06,0,0,1
2899,-0.46,1644837185.09375,P07,D06,0,0,1
2900,-0.41,1644837185.109375,P07,D06,0,0,1
2901,-0.39,1644837185.125,P07,D06,0,0,1
2902,-0.34,1644837185.140625,P07,D06,0,0,1
2903,-0.25,1644837185.15625,P07,D06,0,0,1
2904,-0.16,1644837185.171875,P07,D06,0,0,1
2905,-0.08,1644837185.1875,P07,D06,0,0,1
2906,-0.03,1644837185.203125,P07,D06,0,0,1
2907,0.08,1644837185.21875,P07,D06,0,0,1
2908,0.33,1644837185.234375,P07,D06,0,0,1
2909,0.76,1644837185.25,P07,D06,0,0,1
2910,1.27,1644837185.265625,P07,D06,0,0,1
2911,1.7,1644837185.28125,P07,D06,0,0,1
2912,1.89,1644837185.296875,P07,D06,0,0,1
2913,1.83,1644837185.3125,P07,D06,0,0,1
2914,1.6,1644837185.328125,P07,D06,0,0,1
2915,1.36,1644837185.34375,P07,D06,0,0,1
