,data,timestamp,participant,document,val,arou,eng
0,-0.4,1644585141.125,P03,D05,1,1,1
1,-0.14,1644585141.140625,P03,D05,1,1,1
2,0.17,1644585141.15625,P03,D05,1,1,1
3,0.51,1644585141.171875,P03,D05,1,1,1
4,0.79,1644585141.1875,P03,D05,1,1,1
5,0.92,1644585141.203125,P03,D05,1,1,1
6,0.84,1644585141.21875,P03,D05,1,1,1
7,0.57,1644585141.234375,P03,D05,1,1,1
8,0.22,1644585141.25,P03,D05,1,1,1
9,-0.08,1644585141.265625,P03,D05,1,1,1
10,-0.22,1644585141.28125,P03,D05,1,1,1
11,-0.13,1644585141.296875,P03,D05,1,1,1
12,0.16,1644585141.3125,P03,D05,1,1,1
13,0.5,1644585141.328125,P03,D05,1,1,1
14,0.76,1644585141.34375,P03,D05,1,1,1
15,0.82,1644585141.359375,P03,D05,1,1,1
16,0.67,1644585141.375,P03,D05,1,1,1
17,0.37,1644585141.390625,P03,D05,1,1,1
18,0.04,1644585141.40625,P03,D05,1,1,1
19,-0.2,1644585141.421875,P03,D05,1,1,1
20,-0.34,1644585141.4375,P03,D05,1,1,1
21,-0.44,1644585141.453125,P03,D05,1,1,1
22,-0.59,1644585141.46875,P03,D05,1,1,1
23,-0.82,1644585141.484375,P03,D05,1,1,1
24,-1.05,1644585141.5,P03,D05,1,1,1
25,-1.17,1644585141.515625,P03,D05,1,1,1
26,-1.05,1644585141.53125,P03,D05,1,1,1
27,-0.69,1644585141.546875,P03,D05,1,1,1
28,-0.2,1644585141.5625,P03,D05,1,1,1
29,0.21,1644585141.578125,P03,D05,1,1,1
30,0.4,1644585141.59375,P03,D05,1,1,1
31,0.34,1644585141.609375,P03,D05,1,1,1
32,0.17,1644585141.625,P03,D05,1,1,1
33,0.06,1644585141.640625,P03,D05,1,1,1
34,0.12,1644585141.65625,P03,D05,1,1,1
35,0.38,1644585141.671875,P03,D05,1,1,1
36,0.69,1644585141.6875,P03,D05,1,1,1
37,0.87,1644585141.703125,P03,D05,1,1,1
38,0.8,1644585141.71875,P03,D05,1,1,1
39,0.47,1644585141.734375,P03,D05,1,1,1
40,-0.01,1644585141.75,P03,D05,1,1,1
41,-0.46,1644585141.765625,P03,D05,1,1,1
42,-0.74,1644585141.78125,P03,D05,1,1,1
43,-0.8,1644585141.796875,P03,D05,1,1,1
44,-0.68,1644585141.8125,P03,D05,1,1,1
45,-0.48,1644585141.828125,P03,D05,1,1,1
46,-0.28,1644585141.84375,P03,D05,1,1,1
47,-0.12,1644585141.859375,P03,D05,1,1,1
48,0.04,1644585141.875,P03,D05,1,1,1
49,0.22,1644585141.890625,P03,D05,1,1,1
50,0.39,1644585141.90625,P03,D05,1,1,1
51,0.49,1644585141.921875,P03,D05,1,1,1
52,0.42,1644585141.9375,P03,D05,1,1,1
53,0.13,1644585141.953125,P03,D05,1,1,1
54,-0.3,1644585141.96875,P03,D05,1,1,1
55,-0.75,1644585141.984375,P03,D05,1,1,1
56,-1.06,1644585142.0,P03,D05,1,1,1
57,-1.14,1644585142.015625,P03,D05,1,1,1
58,-1.02,1644585142.03125,P03,D05,1,1,1
59,-0.77,1644585142.046875,P03,D05,1,1,1
60,-0.47,1644585142.0625,P03,D05,1,1,1
61,-0.18,1644585142.078125,P03,D05,1,1,1
62,0.12,1644585142.09375,P03,D05,1,1,1
63,0.44,1644585142.109375,P03,D05,1,1,1
64,0.77,1644585142.125,P03,D05,1,1,1
65,1.09,1644585142.140625,P03,D05,1,1,1
66,1.32,1644585142.15625,P03,D05,1,1,1
67,1.42,1644585142.171875,P03,D05,1,1,1
68,1.36,1644585142.1875,P03,D05,1,1,1
69,1.16,1644585142.203125,P03,D05,1,1,1
70,0.89,1644585142.21875,P03,D05,1,1,1
71,0.62,1644585142.234375,P03,D05,1,1,1
72,0.4,1644585142.25,P03,D05,1,1,1
73,0.29,1644585142.265625,P03,D05,1,1,1
74,0.3,1644585142.28125,P03,D05,1,1,1
75,0.39,1644585142.296875,P03,D05,1,1,1
76,0.52,1644585142.3125,P03,D05,1,1,1
77,0.59,1644585142.328125,P03,D05,1,1,1
78,0.55,1644585142.34375,P03,D05,1,1,1
79,0.36,1644585142.359375,P03,D05,1,1,1
80,0.06,1644585142.375,P03,D05,1,1,1
81,-0.28,1644585142.390625,P03,D05,1,1,1
82,-0.54,1644585142.40625,P03,D05,1,1,1
83,-0.65,1644585142.421875,P03,D05,1,1,1
84,-0.56,1644585142.4375,P03,D05,1,1,1
85,-0.31,1644585142.453125,P03,D05,1,1,1
86,-0.02,1644585142.46875,P03,D05,1,1,1
87,0.2,1644585142.484375,P03,D05,1,1,1
88,0.24,1644585142.5,P03,D05,1,1,1
89,0.08,1644585142.515625,P03,D05,1,1,1
90,-0.21,1644585142.53125,P03,D05,1,1,1
91,-0.56,1644585142.546875,P03,D05,1,1,1
92,-0.87,1644585142.5625,P03,D05,1,1,1
93,-1.09,1644585142.578125,P03,D05,1,1,1
94,-1.21,1644585142.59375,P03,D05,1,1,1
95,-1.2,1644585142.609375,P03,D05,1,1,1
96,-1.01,1644585142.625,P03,D05,1,1,1
97,-0.62,1644585142.640625,P03,D05,1,1,1
98,-0.05,1644585142.65625,P03,D05,1,1,1
99,0.58,1644585142.671875,P03,D05,1,1,1
100,1.12,1644585142.6875,P03,D05,1,1,1
101,1.41,1644585142.703125,P03,D05,1,1,1
102,1.35,1644585142.71875,P03,D05,1,1,1
103,1.03,1644585142.734375,P03,D05,1,1,1
104,0.61,1644585142.75,P03,D05,1,1,1
105,0.31,1644585142.765625,P03,D05,1,1,1
106,0.25,1644585142.78125,P03,D05,1,1,1
107,0.42,1644585142.796875,P03,D05,1,1,1
108,0.67,1644585142.8125,P03,D05,1,1,1
109,0.82,1644585142.828125,P03,D05,1,1,1
110,0.72,1644585142.84375,P03,D05,1,1,1
111,0.4,1644585142.859375,P03,D05,1,1,1
112,-0.02,1644585142.875,P03,D05,1,1,1
113,-0.35,1644585142.890625,P03,D05,1,1,1
114,-0.49,1644585142.90625,P03,D05,1,1,1
115,-0.43,1644585142.921875,P03,D05,1,1,1
116,-0.31,1644585142.9375,P03,D05,1,1,1
117,-0.28,1644585142.953125,P03,D05,1,1,1
118,-0.4,1644585142.96875,P03,D05,1,1,1
119,-0.6,1644585142.984375,P03,D05,1,1,1
120,-0.73,1644585143.0,P03,D05,1,1,1
121,-0.65,1644585143.015625,P03,D05,1,1,1
122,-0.35,1644585143.03125,P03,D05,1,1,1
123,0.03,1644585143.046875,P03,D05,1,1,1
124,0.26,1644585143.0625,P03,D05,1,1,1
125,0.2,1644585143.078125,P03,D05,1,1,1
126,-0.14,1644585143.09375,P03,D05,1,1,1
127,-0.57,1644585143.109375,P03,D05,1,1,1
128,-0.86,1644585143.125,P03,D05,1,1,1
129,-0.82,1644585143.140625,P03,D05,1,1,1
130,-0.44,1644585143.15625,P03,D05,1,1,1
131,0.16,1644585143.171875,P03,D05,1,1,1
132,0.72,1644585143.1875,P03,D05,1,1,1
133,1.05,1644585143.203125,P03,D05,1,1,1
134,1.03,1644585143.21875,P03,D05,1,1,1
135,0.7,1644585143.234375,P03,D05,1,1,1
136,0.2,1644585143.25,P03,D05,1,1,1
137,-0.3,1644585143.265625,P03,D05,1,1,1
138,-0.67,1644585143.28125,P03,D05,1,1,1
139,-0.87,1644585143.296875,P03,D05,1,1,1
140,-0.95,1644585143.3125,P03,D05,1,1,1
141,-1.02,1644585143.328125,P03,D05,1,1,1
142,-1.14,1644585143.34375,P03,D05,1,1,1
143,-1.29,1644585143.359375,P03,D05,1,1,1
144,-1.35,1644585143.375,P03,D05,1,1,1
145,-1.19,1644585143.390625,P03,D05,1,1,1
146,-0.74,1644585143.40625,P03,D05,1,1,1
147,-0.07,1644585143.421875,P03,D05,1,1,1
148,0.61,1644585143.4375,P03,D05,1,1,1
149,1.09,1644585143.453125,P03,D05,1,1,1
150,1.23,1644585143.46875,P03,D05,1,1,1
151,1.02,1644585143.484375,P03,D05,1,1,1
152,0.61,1644585143.5,P03,D05,1,1,1
153,0.21,1644585143.515625,P03,D05,1,1,1
154,-0.03,1644585143.53125,P03,D05,1,1,1
155,-0.05,1644585143.546875,P03,D05,1,1,1
156,0.05,1644585143.5625,P03,D05,1,1,1
157,0.15,1644585143.578125,P03,D05,1,1,1
158,0.12,1644585143.59375,P03,D05,1,1,1
159,-0.04,1644585143.609375,P03,D05,1,1,1
160,-0.21,1644585143.625,P03,D05,1,1,1
161,-0.28,1644585143.640625,P03,D05,1,1,1
162,-0.16,1644585143.65625,P03,D05,1,1,1
163,0.14,1644585143.671875,P03,D05,1,1,1
164,0.47,1644585143.6875,P03,D05,1,1,1
165,0.68,1644585143.703125,P03,D05,1,1,1
166,0.68,1644585143.71875,P03,D05,1,1,1
167,0.5,1644585143.734375,P03,D05,1,1,1
168,0.24,1644585143.75,P03,D05,1,1,1
169,0.02,1644585143.765625,P03,D05,1,1,1
170,-0.1,1644585143.78125,P03,D05,1,1,1
171,-0.1,1644585143.796875,P03,D05,1,1,1
172,-0.03,1644585143.8125,P03,D05,1,1,1
173,0.09,1644585143.828125,P03,D05,1,1,1
174,0.23,1644585143.84375,P03,D05,1,1,1
175,0.4,1644585143.859375,P03,D05,1,1,1
176,0.56,1644585143.875,P03,D05,1,1,1
177,0.64,1644585143.890625,P03,D05,1,1,1
178,0.57,1644585143.90625,P03,D05,1,1,1
179,0.34,1644585143.921875,P03,D05,1,1,1
180,-0.02,1644585143.9375,P03,D05,1,1,1
181,-0.4,1644585143.953125,P03,D05,1,1,1
182,-0.69,1644585143.96875,P03,D05,1,1,1
183,-0.83,1644585143.984375,P03,D05,1,1,1
184,-0.76,1644585144.0,P03,D05,1,1,1
185,-0.49,1644585144.015625,P03,D05,1,1,1
186,-0.1,1644585144.03125,P03,D05,1,1,1
187,0.34,1644585144.046875,P03,D05,1,1,1
188,0.74,1644585144.0625,P03,D05,1,1,1
189,1.0,1644585144.078125,P03,D05,1,1,1
190,1.08,1644585144.09375,P03,D05,1,1,1
191,0.99,1644585144.109375,P03,D05,1,1,1
192,0.79,1644585144.125,P03,D05,1,1,1
193,0.53,1644585144.140625,P03,D05,1,1,1
194,0.29,1644585144.15625,P03,D05,1,1,1
195,0.09,1644585144.171875,P03,D05,1,1,1
196,-0.06,1644585144.1875,P03,D05,1,1,1
197,-0.17,1644585144.203125,P03,D05,1,1,1
198,-0.25,1644585144.21875,P03,D05,1,1,1
199,-0.28,1644585144.234375,P03,D05,1,1,1
200,-0.28,1644585144.25,P03,D05,1,1,1
201,-0.22,1644585144.265625,P03,D05,1,1,1
202,-0.12,1644585144.28125,P03,D05,1,1,1
203,-0.01,1644585144.296875,P03,D05,1,1,1
204,0.06,1644585144.3125,P03,D05,1,1,1
205,0.06,1644585144.328125,P03,D05,1,1,1
206,-0.04,1644585144.34375,P03,D05,1,1,1
207,-0.19,1644585144.359375,P03,D05,1,1,1
208,-0.36,1644585144.375,P03,D05,1,1,1
209,-0.49,1644585144.390625,P03,D05,1,1,1
210,-0.54,1644585144.40625,P03,D05,1,1,1
211,-0.54,1644585144.421875,P03,D05,1,1,1
212,-0.54,1644585144.4375,P03,D05,1,1,1
213,-0.57,1644585144.453125,P03,D05,1,1,1
214,-0.62,1644585144.46875,P03,D05,1,1,1
215,-0.64,1644585144.484375,P03,D05,1,1,1
216,-0.57,1644585144.5,P03,D05,1,1,1
217,-0.37,1644585144.515625,P03,D05,1,1,1
218,-0.09,1644585144.53125,P03,D05,1,1,1
219,0.18,1644585144.546875,P03,D05,1,1,1
220,0.36,1644585144.5625,P03,D05,1,1,1
221,0.38,1644585144.578125,P03,D05,1,1,1
222,0.28,1644585144.59375,P03,D05,1,1,1
223,0.15,1644585144.609375,P03,D05,1,1,1
224,0.08,1644585144.625,P03,D05,1,1,1
225,0.11,1644585144.640625,P03,D05,1,1,1
226,0.23,1644585144.65625,P03,D05,1,1,1
227,0.35,1644585144.671875,P03,D05,1,1,1
228,0.39,1644585144.6875,P03,D05,1,1,1
229,0.31,1644585144.703125,P03,D05,1,1,1
230,0.14,1644585144.71875,P03,D05,1,1,1
231,-0.04,1644585144.734375,P03,D05,1,1,1
232,-0.15,1644585144.75,P03,D05,1,1,1
233,-0.17,1644585144.765625,P03,D05,1,1,1
234,-0.12,1644585144.78125,P03,D05,1,1,1
235,-0.05,1644585144.796875,P03,D05,1,1,1
236,0.0,1644585144.8125,P03,D05,1,1,1
237,0.05,1644585144.828125,P03,D05,1,1,1
238,0.09,1644585144.84375,P03,D05,1,1,1
239,0.15,1644585144.859375,P03,D05,1,1,1
240,0.17,1644585144.875,P03,D05,1,1,1
241,0.1,1644585144.890625,P03,D05,1,1,1
242,-0.1,1644585144.90625,P03,D05,1,1,1
243,-0.39,1644585144.921875,P03,D05,1,1,1
244,-0.67,1644585144.9375,P03,D05,1,1,1
245,-0.8,1644585144.953125,P03,D05,1,1,1
246,-0.69,1644585144.96875,P03,D05,1,1,1
247,-0.34,1644585144.984375,P03,D05,1,1,1
248,0.13,1644585145.0,P03,D05,1,1,1
249,0.55,1644585145.015625,P03,D05,1,1,1
250,0.77,1644585145.03125,P03,D05,1,1,1
251,0.72,1644585145.046875,P03,D05,1,1,1
252,0.47,1644585145.0625,P03,D05,1,1,1
253,0.11,1644585145.078125,P03,D05,1,1,1
254,-0.24,1644585145.09375,P03,D05,1,1,1
255,-0.5,1644585145.109375,P03,D05,1,1,1
256,-0.64,1644585145.125,P03,D05,1,1,1
257,-0.67,1644585145.140625,P03,D05,1,1,1
258,-0.6,1644585145.15625,P03,D05,1,1,1
259,-0.45,1644585145.171875,P03,D05,1,1,1
260,-0.22,1644585145.1875,P03,D05,1,1,1
261,0.04,1644585145.203125,P03,D05,1,1,1
262,0.3,1644585145.21875,P03,D05,1,1,1
263,0.5,1644585145.234375,P03,D05,1,1,1
264,0.62,1644585145.25,P03,D05,1,1,1
265,0.67,1644585145.265625,P03,D05,1,1,1
266,0.68,1644585145.28125,P03,D05,1,1,1
267,0.65,1644585145.296875,P03,D05,1,1,1
268,0.58,1644585145.3125,P03,D05,1,1,1
269,0.46,1644585145.328125,P03,D05,1,1,1
270,0.28,1644585145.34375,P03,D05,1,1,1
271,0.09,1644585145.359375,P03,D05,1,1,1
272,-0.06,1644585145.375,P03,D05,1,1,1
273,-0.11,1644585145.390625,P03,D05,1,1,1
274,-0.08,1644585145.40625,P03,D05,1,1,1
275,0.02,1644585145.421875,P03,D05,1,1,1
276,0.1,1644585145.4375,P03,D05,1,1,1
277,0.15,1644585145.453125,P03,D05,1,1,1
278,0.16,1644585145.46875,P03,D05,1,1,1
279,0.17,1644585145.484375,P03,D05,1,1,1
280,0.2,1644585145.5,P03,D05,1,1,1
281,0.22,1644585145.515625,P03,D05,1,1,1
282,0.17,1644585145.53125,P03,D05,1,1,1
283,0.03,1644585145.546875,P03,D05,1,1,1
284,-0.2,1644585145.5625,P03,D05,1,1,1
285,-0.44,1644585145.578125,P03,D05,1,1,1
286,-0.58,1644585145.59375,P03,D05,1,1,1
287,-0.55,1644585145.609375,P03,D05,1,1,1
288,-0.38,1644585145.625,P03,D05,1,1,1
289,-0.16,1644585145.640625,P03,D05,1,1,1
290,-0.03,1644585145.65625,P03,D05,1,1,1
291,-0.03,1644585145.671875,P03,D05,1,1,1
292,-0.17,1644585145.6875,P03,D05,1,1,1
293,-0.37,1644585145.703125,P03,D05,1,1,1
294,-0.52,1644585145.71875,P03,D05,1,1,1
295,-0.57,1644585145.734375,P03,D05,1,1,1
296,-0.49,1644585145.75,P03,D05,1,1,1
297,-0.31,1644585145.765625,P03,D05,1,1,1
298,-0.1,1644585145.78125,P03,D05,1,1,1
299,0.09,1644585145.796875,P03,D05,1,1,1
300,0.24,1644585145.8125,P03,D05,1,1,1
301,0.34,1644585145.828125,P03,D05,1,1,1
302,0.4,1644585145.84375,P03,D05,1,1,1
303,0.44,1644585145.859375,P03,D05,1,1,1
304,0.45,1644585145.875,P03,D05,1,1,1
305,0.41,1644585145.890625,P03,D05,1,1,1
306,0.29,1644585145.90625,P03,D05,1,1,1
307,0.1,1644585145.921875,P03,D05,1,1,1
308,-0.13,1644585145.9375,P03,D05,1,1,1
309,-0.33,1644585145.953125,P03,D05,1,1,1
310,-0.42,1644585145.96875,P03,D05,1,1,1
311,-0.38,1644585145.984375,P03,D05,1,1,1
312,-0.25,1644585146.0,P03,D05,1,1,1
313,-0.11,1644585146.015625,P03,D05,1,1,1
314,-0.05,1644585146.03125,P03,D05,1,1,1
315,-0.12,1644585146.046875,P03,D05,1,1,1
316,-0.29,1644585146.0625,P03,D05,1,1,1
317,-0.48,1644585146.078125,P03,D05,1,1,1
318,-0.6,1644585146.09375,P03,D05,1,1,1
319,-0.56,1644585146.109375,P03,D05,1,1,1
320,-0.34,1644585146.125,P03,D05,1,1,1
321,0.02,1644585146.140625,P03,D05,1,1,1
322,0.39,1644585146.15625,P03,D05,1,1,1
323,0.63,1644585146.171875,P03,D05,1,1,1
324,0.65,1644585146.1875,P03,D05,1,1,1
325,0.46,1644585146.203125,P03,D05,1,1,1
326,0.17,1644585146.21875,P03,D05,1,1,1
327,-0.05,1644585146.234375,P03,D05,1,1,1
328,-0.08,1644585146.25,P03,D05,1,1,1
329,0.12,1644585146.265625,P03,D05,1,1,1
330,0.45,1644585146.28125,P03,D05,1,1,1
331,0.76,1644585146.296875,P03,D05,1,1,1
332,0.91,1644585146.3125,P03,D05,1,1,1
333,0.83,1644585146.328125,P03,D05,1,1,1
334,0.57,1644585146.34375,P03,D05,1,1,1
335,0.2,1644585146.359375,P03,D05,1,1,1
336,-0.18,1644585146.375,P03,D05,1,1,1
337,-0.48,1644585146.390625,P03,D05,1,1,1
338,-0.69,1644585146.40625,P03,D05,1,1,1
339,-0.76,1644585146.421875,P03,D05,1,1,1
340,-0.71,1644585146.4375,P03,D05,1,1,1
341,-0.52,1644585146.453125,P03,D05,1,1,1
342,-0.26,1644585146.46875,P03,D05,1,1,1
343,0.01,1644585146.484375,P03,D05,1,1,1
344,0.19,1644585146.5,P03,D05,1,1,1
345,0.24,1644585146.515625,P03,D05,1,1,1
346,0.15,1644585146.53125,P03,D05,1,1,1
347,-0.06,1644585146.546875,P03,D05,1,1,1
348,-0.3,1644585146.5625,P03,D05,1,1,1
349,-0.52,1644585146.578125,P03,D05,1,1,1
350,-0.65,1644585146.59375,P03,D05,1,1,1
351,-0.68,1644585146.609375,P03,D05,1,1,1
352,-0.58,1644585146.625,P03,D05,1,1,1
353,-0.37,1644585146.640625,P03,D05,1,1,1
354,-0.11,1644585146.65625,P03,D05,1,1,1
355,0.13,1644585146.671875,P03,D05,1,1,1
356,0.29,1644585146.6875,P03,D05,1,1,1
357,0.33,1644585146.703125,P03,D05,1,1,1
358,0.24,1644585146.71875,P03,D05,1,1,1
359,0.1,1644585146.734375,P03,D05,1,1,1
360,-0.03,1644585146.75,P03,D05,1,1,1
361,-0.08,1644585146.765625,P03,D05,1,1,1
362,-0.0,1644585146.78125,P03,D05,1,1,1
363,0.18,1644585146.796875,P03,D05,1,1,1
364,0.42,1644585146.8125,P03,D05,1,1,1
365,0.68,1644585146.828125,P03,D05,1,1,1
366,0.91,1644585146.84375,P03,D05,1,1,1
367,1.07,1644585146.859375,P03,D05,1,1,1
368,1.13,1644585146.875,P03,D05,1,1,1
369,1.04,1644585146.890625,P03,D05,1,1,1
370,0.79,1644585146.90625,P03,D05,1,1,1
371,0.39,1644585146.921875,P03,D05,1,1,1
372,-0.1,1644585146.9375,P03,D05,1,1,1
373,-0.56,1644585146.953125,P03,D05,1,1,1
374,-0.84,1644585146.96875,P03,D05,1,1,1
375,-0.85,1644585146.984375,P03,D05,1,1,1
376,-0.62,1644585147.0,P03,D05,1,1,1
377,-0.24,1644585147.015625,P03,D05,1,1,1
378,0.11,1644585147.03125,P03,D05,1,1,1
379,0.31,1644585147.046875,P03,D05,1,1,1
380,0.3,1644585147.0625,P03,D05,1,1,1
381,0.14,1644585147.078125,P03,D05,1,1,1
382,-0.07,1644585147.09375,P03,D05,1,1,1
383,-0.19,1644585147.109375,P03,D05,1,1,1
384,-0.19,1644585147.125,P03,D05,1,1,1
385,-0.07,1644585147.140625,P03,D05,1,1,1
386,0.1,1644585147.15625,P03,D05,1,1,1
387,0.25,1644585147.171875,P03,D05,1,1,1
388,0.31,1644585147.1875,P03,D05,1,1,1
389,0.28,1644585147.203125,P03,D05,1,1,1
390,0.16,1644585147.21875,P03,D05,1,1,1
391,-0.0,1644585147.234375,P03,D05,1,1,1
392,-0.15,1644585147.25,P03,D05,1,1,1
393,-0.22,1644585147.265625,P03,D05,1,1,1
394,-0.18,1644585147.28125,P03,D05,1,1,1
395,-0.03,1644585147.296875,P03,D05,1,1,1
396,0.19,1644585147.3125,P03,D05,1,1,1
397,0.39,1644585147.328125,P03,D05,1,1,1
398,0.49,1644585147.34375,P03,D05,1,1,1
399,0.43,1644585147.359375,P03,D05,1,1,1
400,0.2,1644585147.375,P03,D05,1,1,1
401,-0.14,1644585147.390625,P03,D05,1,1,1
402,-0.49,1644585147.40625,P03,D05,1,1,1
403,-0.76,1644585147.421875,P03,D05,1,1,1
404,-0.87,1644585147.4375,P03,D05,1,1,1
405,-0.79,1644585147.453125,P03,D05,1,1,1
406,-0.55,1644585147.46875,P03,D05,1,1,1
407,-0.22,1644585147.484375,P03,D05,1,1,1
408,0.1,1644585147.5,P03,D05,1,1,1
409,0.32,1644585147.515625,P03,D05,1,1,1
410,0.39,1644585147.53125,P03,D05,1,1,1
411,0.3,1644585147.546875,P03,D05,1,1,1
412,0.08,1644585147.5625,P03,D05,1,1,1
413,-0.18,1644585147.578125,P03,D05,1,1,1
414,-0.41,1644585147.59375,P03,D05,1,1,1
415,-0.54,1644585147.609375,P03,D05,1,1,1
416,-0.53,1644585147.625,P03,D05,1,1,1
417,-0.39,1644585147.640625,P03,D05,1,1,1
418,-0.15,1644585147.65625,P03,D05,1,1,1
419,0.13,1644585147.671875,P03,D05,1,1,1
420,0.4,1644585147.6875,P03,D05,1,1,1
421,0.61,1644585147.703125,P03,D05,1,1,1
422,0.73,1644585147.71875,P03,D05,1,1,1
423,0.75,1644585147.734375,P03,D05,1,1,1
424,0.65,1644585147.75,P03,D05,1,1,1
425,0.44,1644585147.765625,P03,D05,1,1,1
426,0.16,1644585147.78125,P03,D05,1,1,1
427,-0.13,1644585147.796875,P03,D05,1,1,1
428,-0.36,1644585147.8125,P03,D05,1,1,1
429,-0.46,1644585147.828125,P03,D05,1,1,1
430,-0.41,1644585147.84375,P03,D05,1,1,1
431,-0.26,1644585147.859375,P03,D05,1,1,1
432,-0.09,1644585147.875,P03,D05,1,1,1
433,0.0,1644585147.890625,P03,D05,1,1,1
434,-0.0,1644585147.90625,P03,D05,1,1,1
435,-0.05,1644585147.921875,P03,D05,1,1,1
436,-0.1,1644585147.9375,P03,D05,1,1,1
437,-0.08,1644585147.953125,P03,D05,1,1,1
438,-0.04,1644585147.96875,P03,D05,1,1,1
439,-0.05,1644585147.984375,P03,D05,1,1,1
440,-0.17,1644585148.0,P03,D05,1,1,1
441,-0.41,1644585148.015625,P03,D05,1,1,1
442,-0.64,1644585148.03125,P03,D05,1,1,1
443,-0.75,1644585148.046875,P03,D05,1,1,1
444,-0.65,1644585148.0625,P03,D05,1,1,1
445,-0.38,1644585148.078125,P03,D05,1,1,1
446,-0.1,1644585148.09375,P03,D05,1,1,1
447,0.01,1644585148.109375,P03,D05,1,1,1
448,-0.14,1644585148.125,P03,D05,1,1,1
449,-0.5,1644585148.140625,P03,D05,1,1,1
450,-0.89,1644585148.15625,P03,D05,1,1,1
451,-1.13,1644585148.171875,P03,D05,1,1,1
452,-1.09,1644585148.1875,P03,D05,1,1,1
453,-0.78,1644585148.203125,P03,D05,1,1,1
454,-0.32,1644585148.21875,P03,D05,1,1,1
455,0.15,1644585148.234375,P03,D05,1,1,1
456,0.53,1644585148.25,P03,D05,1,1,1
457,0.83,1644585148.265625,P03,D05,1,1,1
458,1.08,1644585148.28125,P03,D05,1,1,1
459,1.32,1644585148.296875,P03,D05,1,1,1
460,1.52,1644585148.3125,P03,D05,1,1,1
461,1.61,1644585148.328125,P03,D05,1,1,1
462,1.53,1644585148.34375,P03,D05,1,1,1
463,1.24,1644585148.359375,P03,D05,1,1,1
464,0.8,1644585148.375,P03,D05,1,1,1
465,0.32,1644585148.390625,P03,D05,1,1,1
466,-0.07,1644585148.40625,P03,D05,1,1,1
467,-0.29,1644585148.421875,P03,D05,1,1,1
468,-0.35,1644585148.4375,P03,D05,1,1,1
469,-0.33,1644585148.453125,P03,D05,1,1,1
470,-0.36,1644585148.46875,P03,D05,1,1,1
471,-0.52,1644585148.484375,P03,D05,1,1,1
472,-0.83,1644585148.5,P03,D05,1,1,1
473,-1.18,1644585148.515625,P03,D05,1,1,1
474,-1.43,1644585148.53125,P03,D05,1,1,1
475,-1.44,1644585148.546875,P03,D05,1,1,1
476,-1.16,1644585148.5625,P03,D05,1,1,1
477,-0.66,1644585148.578125,P03,D05,1,1,1
478,-0.14,1644585148.59375,P03,D05,1,1,1
479,0.23,1644585148.609375,P03,D05,1,1,1
480,0.33,1644585148.625,P03,D05,1,1,1
481,0.18,1644585148.640625,P03,D05,1,1,1
482,-0.1,1644585148.65625,P03,D05,1,1,1
483,-0.33,1644585148.671875,P03,D05,1,1,1
484,-0.4,1644585148.6875,P03,D05,1,1,1
485,-0.29,1644585148.703125,P03,D05,1,1,1
486,-0.08,1644585148.71875,P03,D05,1,1,1
487,0.09,1644585148.734375,P03,D05,1,1,1
488,0.11,1644585148.75,P03,D05,1,1,1
489,-0.02,1644585148.765625,P03,D05,1,1,1
490,-0.23,1644585148.78125,P03,D05,1,1,1
491,-0.41,1644585148.796875,P03,D05,1,1,1
492,-0.45,1644585148.8125,P03,D05,1,1,1
493,-0.29,1644585148.828125,P03,D05,1,1,1
494,0.01,1644585148.84375,P03,D05,1,1,1
495,0.35,1644585148.859375,P03,D05,1,1,1
496,0.62,1644585148.875,P03,D05,1,1,1
497,0.72,1644585148.890625,P03,D05,1,1,1
498,0.66,1644585148.90625,P03,D05,1,1,1
499,0.5,1644585148.921875,P03,D05,1,1,1
500,0.33,1644585148.9375,P03,D05,1,1,1
501,0.2,1644585148.953125,P03,D05,1,1,1
502,0.08,1644585148.96875,P03,D05,1,1,1
503,-0.05,1644585148.984375,P03,D05,1,1,1
504,-0.26,1644585149.0,P03,D05,1,1,1
505,-0.51,1644585149.015625,P03,D05,1,1,1
506,-0.72,1644585149.03125,P03,D05,1,1,1
507,-0.79,1644585149.046875,P03,D05,1,1,1
508,-0.66,1644585149.0625,P03,D05,1,1,1
509,-0.35,1644585149.078125,P03,D05,1,1,1
510,0.03,1644585149.09375,P03,D05,1,1,1
511,0.29,1644585149.109375,P03,D05,1,1,1
512,0.31,1644585149.125,P03,D05,1,1,1
513,0.03,1644585149.140625,P03,D05,1,1,1
514,-0.45,1644585149.15625,P03,D05,1,1,1
515,-0.96,1644585149.171875,P03,D05,1,1,1
516,-1.33,1644585149.1875,P03,D05,1,1,1
517,-1.45,1644585149.203125,P03,D05,1,1,1
518,-1.28,1644585149.21875,P03,D05,1,1,1
519,-0.9,1644585149.234375,P03,D05,1,1,1
520,-0.42,1644585149.25,P03,D05,1,1,1
521,0.06,1644585149.265625,P03,D05,1,1,1
522,0.45,1644585149.28125,P03,D05,1,1,1
523,0.69,1644585149.296875,P03,D05,1,1,1
524,0.77,1644585149.3125,P03,D05,1,1,1
525,0.67,1644585149.328125,P03,D05,1,1,1
526,0.42,1644585149.34375,P03,D05,1,1,1
527,0.1,1644585149.359375,P03,D05,1,1,1
528,-0.19,1644585149.375,P03,D05,1,1,1
529,-0.32,1644585149.390625,P03,D05,1,1,1
530,-0.25,1644585149.40625,P03,D05,1,1,1
531,0.0,1644585149.421875,P03,D05,1,1,1
532,0.35,1644585149.4375,P03,D05,1,1,1
533,0.69,1644585149.453125,P03,D05,1,1,1
534,0.91,1644585149.46875,P03,D05,1,1,1
535,0.96,1644585149.484375,P03,D05,1,1,1
536,0.89,1644585149.5,P03,D05,1,1,1
537,0.74,1644585149.515625,P03,D05,1,1,1
538,0.6,1644585149.53125,P03,D05,1,1,1
539,0.51,1644585149.546875,P03,D05,1,1,1
540,0.49,1644585149.5625,P03,D05,1,1,1
541,0.56,1644585149.578125,P03,D05,1,1,1
542,0.68,1644585149.59375,P03,D05,1,1,1
543,0.83,1644585149.609375,P03,D05,1,1,1
544,0.96,1644585149.625,P03,D05,1,1,1
545,1.02,1644585149.640625,P03,D05,1,1,1
546,0.99,1644585149.65625,P03,D05,1,1,1
547,0.84,1644585149.671875,P03,D05,1,1,1
548,0.6,1644585149.6875,P03,D05,1,1,1
549,0.3,1644585149.703125,P03,D05,1,1,1
550,-0.0,1644585149.71875,P03,D05,1,1,1
551,-0.26,1644585149.734375,P03,D05,1,1,1
552,-0.43,1644585149.75,P03,D05,1,1,1
553,-0.53,1644585149.765625,P03,D05,1,1,1
554,-0.57,1644585149.78125,P03,D05,1,1,1
555,-0.61,1644585149.796875,P03,D05,1,1,1
556,-0.65,1644585149.8125,P03,D05,1,1,1
557,-0.66,1644585149.828125,P03,D05,1,1,1
558,-0.6,1644585149.84375,P03,D05,1,1,1
559,-0.47,1644585149.859375,P03,D05,1,1,1
560,-0.29,1644585149.875,P03,D05,1,1,1
561,-0.13,1644585149.890625,P03,D05,1,1,1
562,-0.06,1644585149.90625,P03,D05,1,1,1
563,-0.1,1644585149.921875,P03,D05,1,1,1
564,-0.2,1644585149.9375,P03,D05,1,1,1
565,-0.28,1644585149.953125,P03,D05,1,1,1
566,-0.29,1644585149.96875,P03,D05,1,1,1
567,-0.22,1644585149.984375,P03,D05,1,1,1
568,-0.18,1644585150.0,P03,D05,1,1,1
569,-0.24,1644585150.015625,P03,D05,1,1,1
570,-0.41,1644585150.03125,P03,D05,1,1,1
571,-0.62,1644585150.046875,P03,D05,1,1,1
572,-0.72,1644585150.0625,P03,D05,1,1,1
573,-0.62,1644585150.078125,P03,D05,1,1,1
574,-0.3,1644585150.09375,P03,D05,1,1,1
575,0.12,1644585150.109375,P03,D05,1,1,1
576,0.47,1644585150.125,P03,D05,1,1,1
577,0.62,1644585150.140625,P03,D05,1,1,1
578,0.55,1644585150.15625,P03,D05,1,1,1
579,0.33,1644585150.171875,P03,D05,1,1,1
580,0.09,1644585150.1875,P03,D05,1,1,1
581,-0.04,1644585150.203125,P03,D05,1,1,1
582,-0.04,1644585150.21875,P03,D05,1,1,1
583,0.02,1644585150.234375,P03,D05,1,1,1
584,0.04,1644585150.25,P03,D05,1,1,1
585,-0.03,1644585150.265625,P03,D05,1,1,1
586,-0.19,1644585150.28125,P03,D05,1,1,1
587,-0.38,1644585150.296875,P03,D05,1,1,1
588,-0.5,1644585150.3125,P03,D05,1,1,1
589,-0.47,1644585150.328125,P03,D05,1,1,1
590,-0.3,1644585150.34375,P03,D05,1,1,1
591,-0.04,1644585150.359375,P03,D05,1,1,1
592,0.21,1644585150.375,P03,D05,1,1,1
593,0.35,1644585150.390625,P03,D05,1,1,1
594,0.33,1644585150.40625,P03,D05,1,1,1
595,0.16,1644585150.421875,P03,D05,1,1,1
596,-0.06,1644585150.4375,P03,D05,1,1,1
597,-0.23,1644585150.453125,P03,D05,1,1,1
598,-0.23,1644585150.46875,P03,D05,1,1,1
599,-0.06,1644585150.484375,P03,D05,1,1,1
600,0.22,1644585150.5,P03,D05,1,1,1
601,0.52,1644585150.515625,P03,D05,1,1,1
602,0.72,1644585150.53125,P03,D05,1,1,1
603,0.81,1644585150.546875,P03,D05,1,1,1
604,0.84,1644585150.5625,P03,D05,1,1,1
605,0.9,1644585150.578125,P03,D05,1,1,1
606,1.02,1644585150.59375,P03,D05,1,1,1
607,1.16,1644585150.609375,P03,D05,1,1,1
608,1.21,1644585150.625,P03,D05,1,1,1
609,1.09,1644585150.640625,P03,D05,1,1,1
610,0.76,1644585150.65625,P03,D05,1,1,1
611,0.31,1644585150.671875,P03,D05,1,1,1
612,-0.15,1644585150.6875,P03,D05,1,1,1
613,-0.47,1644585150.703125,P03,D05,1,1,1
614,-0.61,1644585150.71875,P03,D05,1,1,1
615,-0.59,1644585150.734375,P03,D05,1,1,1
616,-0.48,1644585150.75,P03,D05,1,1,1
617,-0.34,1644585150.765625,P03,D05,1,1,1
618,-0.23,1644585150.78125,P03,D05,1,1,1
619,-0.15,1644585150.796875,P03,D05,1,1,1
620,-0.07,1644585150.8125,P03,D05,1,1,1
621,0.02,1644585150.828125,P03,D05,1,1,1
622,0.11,1644585150.84375,P03,D05,1,1,1
623,0.15,1644585150.859375,P03,D05,1,1,1
624,0.11,1644585150.875,P03,D05,1,1,1
625,-0.02,1644585150.890625,P03,D05,1,1,1
626,-0.23,1644585150.90625,P03,D05,1,1,1
627,-0.43,1644585150.921875,P03,D05,1,1,1
628,-0.55,1644585150.9375,P03,D05,1,1,1
629,-0.48,1644585150.953125,P03,D05,1,1,1
630,-0.24,1644585150.96875,P03,D05,1,1,1
631,0.14,1644585150.984375,P03,D05,1,1,1
632,0.51,1644585151.0,P03,D05,1,1,1
633,0.75,1644585151.015625,P03,D05,1,1,1
634,0.78,1644585151.03125,P03,D05,1,1,1
635,0.6,1644585151.046875,P03,D05,1,1,1
636,0.28,1644585151.0625,P03,D05,1,1,1
637,-0.09,1644585151.078125,P03,D05,1,1,1
638,-0.4,1644585151.09375,P03,D05,1,1,1
639,-0.6,1644585151.109375,P03,D05,1,1,1
640,-0.67,1644585151.125,P03,D05,1,1,1
641,-0.61,1644585151.140625,P03,D05,1,1,1
642,-0.44,1644585151.15625,P03,D05,1,1,1
643,-0.2,1644585151.171875,P03,D05,1,1,1
644,0.05,1644585151.1875,P03,D05,1,1,1
645,0.23,1644585151.203125,P03,D05,1,1,1
646,0.25,1644585151.21875,P03,D05,1,1,1
647,0.1,1644585151.234375,P03,D05,1,1,1
648,-0.19,1644585151.25,P03,D05,1,1,1
649,-0.54,1644585151.265625,P03,D05,1,1,1
650,-0.82,1644585151.28125,P03,D05,1,1,1
651,-0.95,1644585151.296875,P03,D05,1,1,1
652,-0.9,1644585151.3125,P03,D05,1,1,1
653,-0.7,1644585151.328125,P03,D05,1,1,1
654,-0.44,1644585151.34375,P03,D05,1,1,1
655,-0.24,1644585151.359375,P03,D05,1,1,1
656,-0.17,1644585151.375,P03,D05,1,1,1
657,-0.23,1644585151.390625,P03,D05,1,1,1
658,-0.36,1644585151.40625,P03,D05,1,1,1
659,-0.43,1644585151.421875,P03,D05,1,1,1
660,-0.34,1644585151.4375,P03,D05,1,1,1
661,-0.09,1644585151.453125,P03,D05,1,1,1
662,0.25,1644585151.46875,P03,D05,1,1,1
663,0.52,1644585151.484375,P03,D05,1,1,1
664,0.59,1644585151.5,P03,D05,1,1,1
665,0.43,1644585151.515625,P03,D05,1,1,1
666,0.12,1644585151.53125,P03,D05,1,1,1
667,-0.19,1644585151.546875,P03,D05,1,1,1
668,-0.37,1644585151.5625,P03,D05,1,1,1
669,-0.35,1644585151.578125,P03,D05,1,1,1
670,-0.17,1644585151.59375,P03,D05,1,1,1
671,0.06,1644585151.609375,P03,D05,1,1,1
672,0.22,1644585151.625,P03,D05,1,1,1
673,0.29,1644585151.640625,P03,D05,1,1,1
674,0.29,1644585151.65625,P03,D05,1,1,1
675,0.29,1644585151.671875,P03,D05,1,1,1
676,0.34,1644585151.6875,P03,D05,1,1,1
677,0.46,1644585151.703125,P03,D05,1,1,1
678,0.57,1644585151.71875,P03,D05,1,1,1
679,0.6,1644585151.734375,P03,D05,1,1,1
680,0.5,1644585151.75,P03,D05,1,1,1
681,0.31,1644585151.765625,P03,D05,1,1,1
682,0.11,1644585151.78125,P03,D05,1,1,1
683,0.03,1644585151.796875,P03,D05,1,1,1
684,0.12,1644585151.8125,P03,D05,1,1,1
685,0.35,1644585151.828125,P03,D05,1,1,1
686,0.56,1644585151.84375,P03,D05,1,1,1
687,0.62,1644585151.859375,P03,D05,1,1,1
688,0.43,1644585151.875,P03,D05,1,1,1
689,0.07,1644585151.890625,P03,D05,1,1,1
690,-0.29,1644585151.90625,P03,D05,1,1,1
691,-0.47,1644585151.921875,P03,D05,1,1,1
692,-0.37,1644585151.9375,P03,D05,1,1,1
693,-0.08,1644585151.953125,P03,D05,1,1,1
694,0.23,1644585151.96875,P03,D05,1,1,1
695,0.39,1644585151.984375,P03,D05,1,1,1
696,0.33,1644585152.0,P03,D05,1,1,1
697,0.13,1644585152.015625,P03,D05,1,1,1
698,-0.07,1644585152.03125,P03,D05,1,1,1
699,-0.15,1644585152.046875,P03,D05,1,1,1
700,-0.08,1644585152.0625,P03,D05,1,1,1
701,0.08,1644585152.078125,P03,D05,1,1,1
702,0.23,1644585152.09375,P03,D05,1,1,1
703,0.34,1644585152.109375,P03,D05,1,1,1
704,0.43,1644585152.125,P03,D05,1,1,1
705,0.57,1644585152.140625,P03,D05,1,1,1
706,0.79,1644585152.15625,P03,D05,1,1,1
707,1.05,1644585152.171875,P03,D05,1,1,1
708,1.23,1644585152.1875,P03,D05,1,1,1
709,1.25,1644585152.203125,P03,D05,1,1,1
710,1.06,1644585152.21875,P03,D05,1,1,1
711,0.71,1644585152.234375,P03,D05,1,1,1
712,0.32,1644585152.25,P03,D05,1,1,1
713,-0.02,1644585152.265625,P03,D05,1,1,1
714,-0.26,1644585152.28125,P03,D05,1,1,1
715,-0.39,1644585152.296875,P03,D05,1,1,1
716,-0.47,1644585152.3125,P03,D05,1,1,1
717,-0.52,1644585152.328125,P03,D05,1,1,1
718,-0.57,1644585152.34375,P03,D05,1,1,1
719,-0.64,1644585152.359375,P03,D05,1,1,1
720,-0.72,1644585152.375,P03,D05,1,1,1
721,-0.81,1644585152.390625,P03,D05,1,1,1
722,-0.9,1644585152.40625,P03,D05,1,1,1
723,-0.95,1644585152.421875,P03,D05,1,1,1
724,-0.9,1644585152.4375,P03,D05,1,1,1
725,-0.7,1644585152.453125,P03,D05,1,1,1
726,-0.36,1644585152.46875,P03,D05,1,1,1
727,0.05,1644585152.484375,P03,D05,1,1,1
728,0.44,1644585152.5,P03,D05,1,1,1
729,0.7,1644585152.515625,P03,D05,1,1,1
730,0.74,1644585152.53125,P03,D05,1,1,1
731,0.56,1644585152.546875,P03,D05,1,1,1
732,0.23,1644585152.5625,P03,D05,1,1,1
733,-0.17,1644585152.578125,P03,D05,1,1,1
734,-0.53,1644585152.59375,P03,D05,1,1,1
735,-0.75,1644585152.609375,P03,D05,1,1,1
736,-0.78,1644585152.625,P03,D05,1,1,1
737,-0.6,1644585152.640625,P03,D05,1,1,1
738,-0.27,1644585152.65625,P03,D05,1,1,1
739,0.12,1644585152.671875,P03,D05,1,1,1
740,0.43,1644585152.6875,P03,D05,1,1,1
741,0.55,1644585152.703125,P03,D05,1,1,1
742,0.4,1644585152.71875,P03,D05,1,1,1
743,0.04,1644585152.734375,P03,D05,1,1,1
744,-0.4,1644585152.75,P03,D05,1,1,1
745,-0.74,1644585152.765625,P03,D05,1,1,1
746,-0.82,1644585152.78125,P03,D05,1,1,1
747,-0.59,1644585152.796875,P03,D05,1,1,1
748,-0.14,1644585152.8125,P03,D05,1,1,1
749,0.37,1644585152.828125,P03,D05,1,1,1
750,0.76,1644585152.84375,P03,D05,1,1,1
751,0.94,1644585152.859375,P03,D05,1,1,1
752,0.94,1644585152.875,P03,D05,1,1,1
753,0.84,1644585152.890625,P03,D05,1,1,1
754,0.75,1644585152.90625,P03,D05,1,1,1
755,0.65,1644585152.921875,P03,D05,1,1,1
756,0.5,1644585152.9375,P03,D05,1,1,1
757,0.24,1644585152.953125,P03,D05,1,1,1
758,-0.14,1644585152.96875,P03,D05,1,1,1
759,-0.53,1644585152.984375,P03,D05,1,1,1
760,-0.79,1644585153.0,P03,D05,1,1,1
761,-0.81,1644585153.015625,P03,D05,1,1,1
762,-0.63,1644585153.03125,P03,D05,1,1,1
763,-0.37,1644585153.046875,P03,D05,1,1,1
764,-0.22,1644585153.0625,P03,D05,1,1,1
765,-0.26,1644585153.078125,P03,D05,1,1,1
766,-0.44,1644585153.09375,P03,D05,1,1,1
767,-0.66,1644585153.109375,P03,D05,1,1,1
768,-0.75,1644585153.125,P03,D05,1,1,1
769,-0.63,1644585153.140625,P03,D05,1,1,1
770,-0.34,1644585153.15625,P03,D05,1,1,1
771,0.01,1644585153.171875,P03,D05,1,1,1
772,0.33,1644585153.1875,P03,D05,1,1,1
773,0.52,1644585153.203125,P03,D05,1,1,1
774,0.58,1644585153.21875,P03,D05,1,1,1
775,0.53,1644585153.234375,P03,D05,1,1,1
776,0.4,1644585153.25,P03,D05,1,1,1
777,0.23,1644585153.265625,P03,D05,1,1,1
778,0.03,1644585153.28125,P03,D05,1,1,1
779,-0.14,1644585153.296875,P03,D05,1,1,1
780,-0.24,1644585153.3125,P03,D05,1,1,1
781,-0.2,1644585153.328125,P03,D05,1,1,1
782,-0.02,1644585153.34375,P03,D05,1,1,1
783,0.24,1644585153.359375,P03,D05,1,1,1
784,0.47,1644585153.375,P03,D05,1,1,1
785,0.57,1644585153.390625,P03,D05,1,1,1
786,0.49,1644585153.40625,P03,D05,1,1,1
787,0.27,1644585153.421875,P03,D05,1,1,1
788,0.03,1644585153.4375,P03,D05,1,1,1
789,-0.11,1644585153.453125,P03,D05,1,1,1
790,-0.08,1644585153.46875,P03,D05,1,1,1
791,0.11,1644585153.484375,P03,D05,1,1,1
792,0.38,1644585153.5,P03,D05,1,1,1
793,0.62,1644585153.515625,P03,D05,1,1,1
794,0.76,1644585153.53125,P03,D05,1,1,1
795,0.79,1644585153.546875,P03,D05,1,1,1
796,0.73,1644585153.5625,P03,D05,1,1,1
797,0.6,1644585153.578125,P03,D05,1,1,1
798,0.43,1644585153.59375,P03,D05,1,1,1
799,0.23,1644585153.609375,P03,D05,1,1,1
800,-0.0,1644585153.625,P03,D05,1,1,1
801,-0.24,1644585153.640625,P03,D05,1,1,1
802,-0.47,1644585153.65625,P03,D05,1,1,1
803,-0.61,1644585153.671875,P03,D05,1,1,1
804,-0.64,1644585153.6875,P03,D05,1,1,1
805,-0.53,1644585153.703125,P03,D05,1,1,1
806,-0.32,1644585153.71875,P03,D05,1,1,1
807,-0.07,1644585153.734375,P03,D05,1,1,1
808,0.13,1644585153.75,P03,D05,1,1,1
809,0.25,1644585153.765625,P03,D05,1,1,1
810,0.27,1644585153.78125,P03,D05,1,1,1
811,0.21,1644585153.796875,P03,D05,1,1,1
812,0.14,1644585153.8125,P03,D05,1,1,1
813,0.09,1644585153.828125,P03,D05,1,1,1
814,0.08,1644585153.84375,P03,D05,1,1,1
815,0.1,1644585153.859375,P03,D05,1,1,1
816,0.11,1644585153.875,P03,D05,1,1,1
817,0.09,1644585153.890625,P03,D05,1,1,1
818,0.01,1644585153.90625,P03,D05,1,1,1
819,-0.13,1644585153.921875,P03,D05,1,1,1
820,-0.31,1644585153.9375,P03,D05,1,1,1
821,-0.52,1644585153.953125,P03,D05,1,1,1
822,-0.74,1644585153.96875,P03,D05,1,1,1
823,-0.92,1644585153.984375,P03,D05,1,1,1
824,-1.04,1644585154.0,P03,D05,1,1,1
825,-1.07,1644585154.015625,P03,D05,1,1,1
826,-1.0,1644585154.03125,P03,D05,1,1,1
827,-0.84,1644585154.046875,P03,D05,1,1,1
828,-0.62,1644585154.0625,P03,D05,1,1,1
829,-0.36,1644585154.078125,P03,D05,1,1,1
830,-0.09,1644585154.09375,P03,D05,1,1,1
831,0.18,1644585154.109375,P03,D05,1,1,1
832,0.41,1644585154.125,P03,D05,1,1,1
833,0.57,1644585154.140625,P03,D05,1,1,1
834,0.62,1644585154.15625,P03,D05,1,1,1
835,0.58,1644585154.171875,P03,D05,1,1,1
836,0.48,1644585154.1875,P03,D05,1,1,1
837,0.36,1644585154.203125,P03,D05,1,1,1
838,0.26,1644585154.21875,P03,D05,1,1,1
839,0.19,1644585154.234375,P03,D05,1,1,1
840,0.11,1644585154.25,P03,D05,1,1,1
841,0.03,1644585154.265625,P03,D05,1,1,1
842,-0.05,1644585154.28125,P03,D05,1,1,1
843,-0.06,1644585154.296875,P03,D05,1,1,1
844,0.04,1644585154.3125,P03,D05,1,1,1
845,0.22,1644585154.328125,P03,D05,1,1,1
846,0.41,1644585154.34375,P03,D05,1,1,1
847,0.51,1644585154.359375,P03,D05,1,1,1
848,0.46,1644585154.375,P03,D05,1,1,1
849,0.3,1644585154.390625,P03,D05,1,1,1
850,0.14,1644585154.40625,P03,D05,1,1,1
851,0.06,1644585154.421875,P03,D05,1,1,1
852,0.12,1644585154.4375,P03,D05,1,1,1
853,0.26,1644585154.453125,P03,D05,1,1,1
854,0.36,1644585154.46875,P03,D05,1,1,1
855,0.34,1644585154.484375,P03,D05,1,1,1
856,0.23,1644585154.5,P03,D05,1,1,1
857,0.08,1644585154.515625,P03,D05,1,1,1
858,0.0,1644585154.53125,P03,D05,1,1,1
859,0.02,1644585154.546875,P03,D05,1,1,1
860,0.08,1644585154.5625,P03,D05,1,1,1
861,0.09,1644585154.578125,P03,D05,1,1,1
862,-0.01,1644585154.59375,P03,D05,1,1,1
863,-0.19,1644585154.609375,P03,D05,1,1,1
864,-0.36,1644585154.625,P03,D05,1,1,1
865,-0.48,1644585154.640625,P03,D05,1,1,1
866,-0.56,1644585154.65625,P03,D05,1,1,1
867,-0.66,1644585154.671875,P03,D05,1,1,1
868,-0.83,1644585154.6875,P03,D05,1,1,1
869,-1.05,1644585154.703125,P03,D05,1,1,1
870,-1.19,1644585154.71875,P03,D05,1,1,1
871,-1.13,1644585154.734375,P03,D05,1,1,1
872,-0.82,1644585154.75,P03,D05,1,1,1
873,-0.35,1644585154.765625,P03,D05,1,1,1
874,0.04,1644585154.78125,P03,D05,1,1,1
875,0.19,1644585154.796875,P03,D05,1,1,1
876,0.04,1644585154.8125,P03,D05,1,1,1
877,-0.25,1644585154.828125,P03,D05,1,1,1
878,-0.42,1644585154.84375,P03,D05,1,1,1
879,-0.3,1644585154.859375,P03,D05,1,1,1
880,0.14,1644585154.875,P03,D05,1,1,1
881,0.7,1644585154.890625,P03,D05,1,1,1
882,1.12,1644585154.90625,P03,D05,1,1,1
883,1.2,1644585154.921875,P03,D05,1,1,1
884,0.94,1644585154.9375,P03,D05,1,1,1
885,0.5,1644585154.953125,P03,D05,1,1,1
886,0.13,1644585154.96875,P03,D05,1,1,1
887,-0.03,1644585154.984375,P03,D05,1,1,1
888,0.03,1644585155.0,P03,D05,1,1,1
889,0.19,1644585155.015625,P03,D05,1,1,1
890,0.28,1644585155.03125,P03,D05,1,1,1
891,0.22,1644585155.046875,P03,D05,1,1,1
892,0.05,1644585155.0625,P03,D05,1,1,1
893,-0.1,1644585155.078125,P03,D05,1,1,1
894,-0.12,1644585155.09375,P03,D05,1,1,1
895,0.03,1644585155.109375,P03,D05,1,1,1
896,0.26,1644585155.125,P03,D05,1,1,1
897,0.41,1644585155.140625,P03,D05,1,1,1
898,0.39,1644585155.15625,P03,D05,1,1,1
899,0.16,1644585155.171875,P03,D05,1,1,1
900,-0.17,1644585155.1875,P03,D05,1,1,1
901,-0.47,1644585155.203125,P03,D05,1,1,1
902,-0.65,1644585155.21875,P03,D05,1,1,1
903,-0.67,1644585155.234375,P03,D05,1,1,1
904,-0.59,1644585155.25,P03,D05,1,1,1
905,-0.47,1644585155.265625,P03,D05,1,1,1
906,-0.35,1644585155.28125,P03,D05,1,1,1
907,-0.23,1644585155.296875,P03,D05,1,1,1
908,-0.08,1644585155.3125,P03,D05,1,1,1
909,0.08,1644585155.328125,P03,D05,1,1,1
910,0.19,1644585155.34375,P03,D05,1,1,1
911,0.18,1644585155.359375,P03,D05,1,1,1
912,-0.01,1644585155.375,P03,D05,1,1,1
913,-0.32,1644585155.390625,P03,D05,1,1,1
914,-0.62,1644585155.40625,P03,D05,1,1,1
915,-0.78,1644585155.421875,P03,D05,1,1,1
916,-0.69,1644585155.4375,P03,D05,1,1,1
917,-0.4,1644585155.453125,P03,D05,1,1,1
918,-0.0,1644585155.46875,P03,D05,1,1,1
919,0.32,1644585155.484375,P03,D05,1,1,1
920,0.48,1644585155.5,P03,D05,1,1,1
921,0.48,1644585155.515625,P03,D05,1,1,1
922,0.4,1644585155.53125,P03,D05,1,1,1
923,0.35,1644585155.546875,P03,D05,1,1,1
924,0.38,1644585155.5625,P03,D05,1,1,1
925,0.48,1644585155.578125,P03,D05,1,1,1
926,0.56,1644585155.59375,P03,D05,1,1,1
927,0.56,1644585155.609375,P03,D05,1,1,1
928,0.45,1644585155.625,P03,D05,1,1,1
929,0.29,1644585155.640625,P03,D05,1,1,1
930,0.12,1644585155.65625,P03,D05,1,1,1
931,0.0,1644585155.671875,P03,D05,1,1,1
932,-0.08,1644585155.6875,P03,D05,1,1,1
933,-0.15,1644585155.703125,P03,D05,1,1,1
934,-0.24,1644585155.71875,P03,D05,1,1,1
935,-0.34,1644585155.734375,P03,D05,1,1,1
936,-0.41,1644585155.75,P03,D05,1,1,1
937,-0.41,1644585155.765625,P03,D05,1,1,1
938,-0.33,1644585155.78125,P03,D05,1,1,1
939,-0.21,1644585155.796875,P03,D05,1,1,1
940,-0.1,1644585155.8125,P03,D05,1,1,1
941,-0.01,1644585155.828125,P03,D05,1,1,1
942,0.06,1644585155.84375,P03,D05,1,1,1
943,0.14,1644585155.859375,P03,D05,1,1,1
944,0.27,1644585155.875,P03,D05,1,1,1
945,0.41,1644585155.890625,P03,D05,1,1,1
946,0.5,1644585155.90625,P03,D05,1,1,1
947,0.48,1644585155.921875,P03,D05,1,1,1
948,0.31,1644585155.9375,P03,D05,1,1,1
949,0.04,1644585155.953125,P03,D05,1,1,1
950,-0.26,1644585155.96875,P03,D05,1,1,1
951,-0.53,1644585155.984375,P03,D05,1,1,1
952,-0.67,1644585156.0,P03,D05,1,1,1
953,-0.67,1644585156.015625,P03,D05,1,1,1
954,-0.54,1644585156.03125,P03,D05,1,1,1
955,-0.37,1644585156.046875,P03,D05,1,1,1
956,-0.23,1644585156.0625,P03,D05,1,1,1
957,-0.23,1644585156.078125,P03,D05,1,1,1
958,-0.42,1644585156.09375,P03,D05,1,1,1
959,-0.78,1644585156.109375,P03,D05,1,1,1
960,-1.18,1644585156.125,P03,D05,1,1,1
961,-1.46,1644585156.140625,P03,D05,1,1,1
962,-1.48,1644585156.15625,P03,D05,1,1,1
963,-1.23,1644585156.171875,P03,D05,1,1,1
964,-0.81,1644585156.1875,P03,D05,1,1,1
965,-0.36,1644585156.203125,P03,D05,1,1,1
966,-0.05,1644585156.21875,P03,D05,1,1,1
967,0.11,1644585156.234375,P03,D05,1,1,1
968,0.15,1644585156.25,P03,D05,1,1,1
969,0.17,1644585156.265625,P03,D05,1,1,1
970,0.2,1644585156.28125,P03,D05,1,1,1
971,0.24,1644585156.296875,P03,D05,1,1,1
972,0.27,1644585156.3125,P03,D05,1,1,1
973,0.27,1644585156.328125,P03,D05,1,1,1
974,0.26,1644585156.34375,P03,D05,1,1,1
975,0.28,1644585156.359375,P03,D05,1,1,1
976,0.36,1644585156.375,P03,D05,1,1,1
977,0.47,1644585156.390625,P03,D05,1,1,1
978,0.54,1644585156.40625,P03,D05,1,1,1
979,0.52,1644585156.421875,P03,D05,1,1,1
980,0.4,1644585156.4375,P03,D05,1,1,1
981,0.22,1644585156.453125,P03,D05,1,1,1
982,0.04,1644585156.46875,P03,D05,1,1,1
983,-0.11,1644585156.484375,P03,D05,1,1,1
984,-0.23,1644585156.5,P03,D05,1,1,1
985,-0.35,1644585156.515625,P03,D05,1,1,1
986,-0.49,1644585156.53125,P03,D05,1,1,1
987,-0.61,1644585156.546875,P03,D05,1,1,1
988,-0.66,1644585156.5625,P03,D05,1,1,1
989,-0.59,1644585156.578125,P03,D05,1,1,1
990,-0.41,1644585156.59375,P03,D05,1,1,1
991,-0.18,1644585156.609375,P03,D05,1,1,1
992,0.02,1644585156.625,P03,D05,1,1,1
993,0.14,1644585156.640625,P03,D05,1,1,1
994,0.18,1644585156.65625,P03,D05,1,1,1
995,0.22,1644585156.671875,P03,D05,1,1,1
996,0.33,1644585156.6875,P03,D05,1,1,1
997,0.57,1644585156.703125,P03,D05,1,1,1
998,0.94,1644585156.71875,P03,D05,1,1,1
999,1.35,1644585156.734375,P03,D05,1,1,1
1000,1.67,1644585156.75,P03,D05,1,1,1
1001,1.78,1644585156.765625,P03,D05,1,1,1
1002,1.62,1644585156.78125,P03,D05,1,1,1
1003,1.19,1644585156.796875,P03,D05,1,1,1
1004,0.63,1644585156.8125,P03,D05,1,1,1
1005,0.08,1644585156.828125,P03,D05,1,1,1
1006,-0.26,1644585156.84375,P03,D05,1,1,1
1007,-0.32,1644585156.859375,P03,D05,1,1,1
1008,-0.11,1644585156.875,P03,D05,1,1,1
1009,0.24,1644585156.890625,P03,D05,1,1,1
1010,0.52,1644585156.90625,P03,D05,1,1,1
1011,0.63,1644585156.921875,P03,D05,1,1,1
1012,0.54,1644585156.9375,P03,D05,1,1,1
1013,0.32,1644585156.953125,P03,D05,1,1,1
1014,0.08,1644585156.96875,P03,D05,1,1,1
1015,-0.1,1644585156.984375,P03,D05,1,1,1
1016,-0.23,1644585157.0,P03,D05,1,1,1
1017,-0.35,1644585157.015625,P03,D05,1,1,1
1018,-0.49,1644585157.03125,P03,D05,1,1,1
1019,-0.62,1644585157.046875,P03,D05,1,1,1
1020,-0.67,1644585157.0625,P03,D05,1,1,1
1021,-0.58,1644585157.078125,P03,D05,1,1,1
1022,-0.37,1644585157.09375,P03,D05,1,1,1
1023,-0.16,1644585157.109375,P03,D05,1,1,1
1024,-0.06,1644585157.125,P03,D05,1,1,1
1025,-0.14,1644585157.140625,P03,D05,1,1,1
1026,-0.38,1644585157.15625,P03,D05,1,1,1
1027,-0.64,1644585157.171875,P03,D05,1,1,1
1028,-0.78,1644585157.1875,P03,D05,1,1,1
1029,-0.74,1644585157.203125,P03,D05,1,1,1
1030,-0.51,1644585157.21875,P03,D05,1,1,1
1031,-0.22,1644585157.234375,P03,D05,1,1,1
1032,0.03,1644585157.25,P03,D05,1,1,1
1033,0.16,1644585157.265625,P03,D05,1,1,1
1034,0.14,1644585157.28125,P03,D05,1,1,1
1035,0.0,1644585157.296875,P03,D05,1,1,1
1036,-0.15,1644585157.3125,P03,D05,1,1,1
1037,-0.24,1644585157.328125,P03,D05,1,1,1
1038,-0.22,1644585157.34375,P03,D05,1,1,1
1039,-0.08,1644585157.359375,P03,D05,1,1,1
1040,0.13,1644585157.375,P03,D05,1,1,1
1041,0.31,1644585157.390625,P03,D05,1,1,1
1042,0.39,1644585157.40625,P03,D05,1,1,1
1043,0.34,1644585157.421875,P03,D05,1,1,1
1044,0.2,1644585157.4375,P03,D05,1,1,1
1045,0.08,1644585157.453125,P03,D05,1,1,1
1046,0.03,1644585157.46875,P03,D05,1,1,1
1047,0.08,1644585157.484375,P03,D05,1,1,1
1048,0.15,1644585157.5,P03,D05,1,1,1
1049,0.13,1644585157.515625,P03,D05,1,1,1
1050,0.02,1644585157.53125,P03,D05,1,1,1
1051,-0.13,1644585157.546875,P03,D05,1,1,1
1052,-0.17,1644585157.5625,P03,D05,1,1,1
1053,-0.02,1644585157.578125,P03,D05,1,1,1
1054,0.31,1644585157.59375,P03,D05,1,1,1
1055,0.67,1644585157.609375,P03,D05,1,1,1
1056,0.9,1644585157.625,P03,D05,1,1,1
1057,0.89,1644585157.640625,P03,D05,1,1,1
1058,0.69,1644585157.65625,P03,D05,1,1,1
1059,0.43,1644585157.671875,P03,D05,1,1,1
1060,0.25,1644585157.6875,P03,D05,1,1,1
1061,0.21,1644585157.703125,P03,D05,1,1,1
1062,0.23,1644585157.71875,P03,D05,1,1,1
1063,0.19,1644585157.734375,P03,D05,1,1,1
1064,0.02,1644585157.75,P03,D05,1,1,1
1065,-0.23,1644585157.765625,P03,D05,1,1,1
1066,-0.43,1644585157.78125,P03,D05,1,1,1
1067,-0.45,1644585157.796875,P03,D05,1,1,1
1068,-0.25,1644585157.8125,P03,D05,1,1,1
1069,0.05,1644585157.828125,P03,D05,1,1,1
1070,0.28,1644585157.84375,P03,D05,1,1,1
1071,0.26,1644585157.859375,P03,D05,1,1,1
1072,-0.05,1644585157.875,P03,D05,1,1,1
1073,-0.53,1644585157.890625,P03,D05,1,1,1
1074,-0.98,1644585157.90625,P03,D05,1,1,1
1075,-1.2,1644585157.921875,P03,D05,1,1,1
1076,-1.1,1644585157.9375,P03,D05,1,1,1
1077,-0.73,1644585157.953125,P03,D05,1,1,1
1078,-0.28,1644585157.96875,P03,D05,1,1,1
1079,0.06,1644585157.984375,P03,D05,1,1,1
1080,0.17,1644585158.0,P03,D05,1,1,1
1081,0.05,1644585158.015625,P03,D05,1,1,1
1082,-0.19,1644585158.03125,P03,D05,1,1,1
1083,-0.4,1644585158.046875,P03,D05,1,1,1
1084,-0.46,1644585158.0625,P03,D05,1,1,1
1085,-0.37,1644585158.078125,P03,D05,1,1,1
1086,-0.16,1644585158.09375,P03,D05,1,1,1
1087,0.05,1644585158.109375,P03,D05,1,1,1
1088,0.19,1644585158.125,P03,D05,1,1,1
1089,0.26,1644585158.140625,P03,D05,1,1,1
1090,0.3,1644585158.15625,P03,D05,1,1,1
1091,0.36,1644585158.171875,P03,D05,1,1,1
1092,0.44,1644585158.1875,P03,D05,1,1,1
1093,0.49,1644585158.203125,P03,D05,1,1,1
1094,0.45,1644585158.21875,P03,D05,1,1,1
1095,0.29,1644585158.234375,P03,D05,1,1,1
1096,0.08,1644585158.25,P03,D05,1,1,1
1097,-0.06,1644585158.265625,P03,D05,1,1,1
1098,-0.02,1644585158.28125,P03,D05,1,1,1
1099,0.23,1644585158.296875,P03,D05,1,1,1
1100,0.61,1644585158.3125,P03,D05,1,1,1
1101,0.97,1644585158.328125,P03,D05,1,1,1
1102,1.14,1644585158.34375,P03,D05,1,1,1
1103,1.06,1644585158.359375,P03,D05,1,1,1
1104,0.76,1644585158.375,P03,D05,1,1,1
1105,0.39,1644585158.390625,P03,D05,1,1,1
1106,0.09,1644585158.40625,P03,D05,1,1,1
1107,-0.02,1644585158.421875,P03,D05,1,1,1
1108,0.04,1644585158.4375,P03,D05,1,1,1
1109,0.22,1644585158.453125,P03,D05,1,1,1
1110,0.42,1644585158.46875,P03,D05,1,1,1
1111,0.55,1644585158.484375,P03,D05,1,1,1
1112,0.59,1644585158.5,P03,D05,1,1,1
1113,0.53,1644585158.515625,P03,D05,1,1,1
1114,0.42,1644585158.53125,P03,D05,1,1,1
1115,0.28,1644585158.546875,P03,D05,1,1,1
1116,0.14,1644585158.5625,P03,D05,1,1,1
1117,0.01,1644585158.578125,P03,D05,1,1,1
1118,-0.08,1644585158.59375,P03,D05,1,1,1
1119,-0.13,1644585158.609375,P03,D05,1,1,1
1120,-0.12,1644585158.625,P03,D05,1,1,1
1121,-0.08,1644585158.640625,P03,D05,1,1,1
1122,-0.04,1644585158.65625,P03,D05,1,1,1
1123,-0.06,1644585158.671875,P03,D05,1,1,1
1124,-0.13,1644585158.6875,P03,D05,1,1,1
1125,-0.24,1644585158.703125,P03,D05,1,1,1
1126,-0.34,1644585158.71875,P03,D05,1,1,1
1127,-0.39,1644585158.734375,P03,D05,1,1,1
1128,-0.4,1644585158.75,P03,D05,1,1,1
1129,-0.42,1644585158.765625,P03,D05,1,1,1
1130,-0.49,1644585158.78125,P03,D05,1,1,1
1131,-0.59,1644585158.796875,P03,D05,1,1,1
1132,-0.68,1644585158.8125,P03,D05,1,1,1
1133,-0.71,1644585158.828125,P03,D05,1,1,1
1134,-0.63,1644585158.84375,P03,D05,1,1,1
1135,-0.48,1644585158.859375,P03,D05,1,1,1
1136,-0.34,1644585158.875,P03,D05,1,1,1
1137,-0.27,1644585158.890625,P03,D05,1,1,1
1138,-0.28,1644585158.90625,P03,D05,1,1,1
1139,-0.31,1644585158.921875,P03,D05,1,1,1
1140,-0.27,1644585158.9375,P03,D05,1,1,1
1141,-0.11,1644585158.953125,P03,D05,1,1,1
1142,0.12,1644585158.96875,P03,D05,1,1,1
1143,0.35,1644585158.984375,P03,D05,1,1,1
1144,0.47,1644585159.0,P03,D05,1,1,1
1145,0.46,1644585159.015625,P03,D05,1,1,1
1146,0.33,1644585159.03125,P03,D05,1,1,1
1147,0.18,1644585159.046875,P03,D05,1,1,1
1148,0.08,1644585159.0625,P03,D05,1,1,1
1149,0.08,1644585159.078125,P03,D05,1,1,1
1150,0.17,1644585159.09375,P03,D05,1,1,1
1151,0.27,1644585159.109375,P03,D05,1,1,1
1152,0.33,1644585159.125,P03,D05,1,1,1
1153,0.3,1644585159.140625,P03,D05,1,1,1
1154,0.19,1644585159.15625,P03,D05,1,1,1
1155,0.07,1644585159.171875,P03,D05,1,1,1
1156,-0.01,1644585159.1875,P03,D05,1,1,1
1157,-0.01,1644585159.203125,P03,D05,1,1,1
1158,0.06,1644585159.21875,P03,D05,1,1,1
1159,0.14,1644585159.234375,P03,D05,1,1,1
1160,0.18,1644585159.25,P03,D05,1,1,1
1161,0.15,1644585159.265625,P03,D05,1,1,1
1162,0.1,1644585159.28125,P03,D05,1,1,1
1163,0.07,1644585159.296875,P03,D05,1,1,1
1164,0.11,1644585159.3125,P03,D05,1,1,1
1165,0.19,1644585159.328125,P03,D05,1,1,1
1166,0.26,1644585159.34375,P03,D05,1,1,1
1167,0.27,1644585159.359375,P03,D05,1,1,1
1168,0.21,1644585159.375,P03,D05,1,1,1
1169,0.11,1644585159.390625,P03,D05,1,1,1
1170,0.03,1644585159.40625,P03,D05,1,1,1
1171,-0.01,1644585159.421875,P03,D05,1,1,1
1172,-0.03,1644585159.4375,P03,D05,1,1,1
1173,-0.06,1644585159.453125,P03,D05,1,1,1
1174,-0.13,1644585159.46875,P03,D05,1,1,1
1175,-0.23,1644585159.484375,P03,D05,1,1,1
1176,-0.32,1644585159.5,P03,D05,1,1,1
1177,-0.37,1644585159.515625,P03,D05,1,1,1
1178,-0.38,1644585159.53125,P03,D05,1,1,1
1179,-0.38,1644585159.546875,P03,D05,1,1,1
1180,-0.38,1644585159.5625,P03,D05,1,1,1
1181,-0.35,1644585159.578125,P03,D05,1,1,1
1182,-0.25,1644585159.59375,P03,D05,1,1,1
1183,-0.03,1644585159.609375,P03,D05,1,1,1
1184,0.3,1644585159.625,P03,D05,1,1,1
1185,0.68,1644585159.640625,P03,D05,1,1,1
1186,0.99,1644585159.65625,P03,D05,1,1,1
1187,1.14,1644585159.671875,P03,D05,1,1,1
1188,1.08,1644585159.6875,P03,D05,1,1,1
1189,0.86,1644585159.703125,P03,D05,1,1,1
1190,0.57,1644585159.71875,P03,D05,1,1,1
1191,0.3,1644585159.734375,P03,D05,1,1,1
1192,0.1,1644585159.75,P03,D05,1,1,1
1193,-0.01,1644585159.765625,P03,D05,1,1,1
1194,-0.06,1644585159.78125,P03,D05,1,1,1
1195,-0.07,1644585159.796875,P03,D05,1,1,1
1196,-0.02,1644585159.8125,P03,D05,1,1,1
1197,0.08,1644585159.828125,P03,D05,1,1,1
1198,0.19,1644585159.84375,P03,D05,1,1,1
1199,0.26,1644585159.859375,P03,D05,1,1,1
1200,0.21,1644585159.875,P03,D05,1,1,1
1201,0.0,1644585159.890625,P03,D05,1,1,1
1202,-0.33,1644585159.90625,P03,D05,1,1,1
1203,-0.7,1644585159.921875,P03,D05,1,1,1
1204,-0.95,1644585159.9375,P03,D05,1,1,1
1205,-0.98,1644585159.953125,P03,D05,1,1,1
1206,-0.71,1644585159.96875,P03,D05,1,1,1
1207,-0.21,1644585159.984375,P03,D05,1,1,1
1208,0.38,1644585160.0,P03,D05,1,1,1
1209,0.9,1644585160.015625,P03,D05,1,1,1
1210,1.17,1644585160.03125,P03,D05,1,1,1
1211,1.14,1644585160.046875,P03,D05,1,1,1
1212,0.82,1644585160.0625,P03,D05,1,1,1
1213,0.36,1644585160.078125,P03,D05,1,1,1
1214,-0.07,1644585160.09375,P03,D05,1,1,1
1215,-0.34,1644585160.109375,P03,D05,1,1,1
1216,-0.38,1644585160.125,P03,D05,1,1,1
1217,-0.25,1644585160.140625,P03,D05,1,1,1
1218,-0.08,1644585160.15625,P03,D05,1,1,1
1219,0.0,1644585160.171875,P03,D05,1,1,1
1220,-0.09,1644585160.1875,P03,D05,1,1,1
1221,-0.33,1644585160.203125,P03,D05,1,1,1
1222,-0.6,1644585160.21875,P03,D05,1,1,1
1223,-0.78,1644585160.234375,P03,D05,1,1,1
1224,-0.77,1644585160.25,P03,D05,1,1,1
1225,-0.59,1644585160.265625,P03,D05,1,1,1
1226,-0.33,1644585160.28125,P03,D05,1,1,1
1227,-0.11,1644585160.296875,P03,D05,1,1,1
1228,-0.02,1644585160.3125,P03,D05,1,1,1
1229,-0.08,1644585160.328125,P03,D05,1,1,1
1230,-0.2,1644585160.34375,P03,D05,1,1,1
1231,-0.27,1644585160.359375,P03,D05,1,1,1
1232,-0.22,1644585160.375,P03,D05,1,1,1
1233,-0.04,1644585160.390625,P03,D05,1,1,1
1234,0.19,1644585160.40625,P03,D05,1,1,1
1235,0.34,1644585160.421875,P03,D05,1,1,1
1236,0.35,1644585160.4375,P03,D05,1,1,1
1237,0.24,1644585160.453125,P03,D05,1,1,1
1238,0.09,1644585160.46875,P03,D05,1,1,1
1239,0.01,1644585160.484375,P03,D05,1,1,1
1240,0.05,1644585160.5,P03,D05,1,1,1
1241,0.16,1644585160.515625,P03,D05,1,1,1
1242,0.22,1644585160.53125,P03,D05,1,1,1
1243,0.13,1644585160.546875,P03,D05,1,1,1
1244,-0.09,1644585160.5625,P03,D05,1,1,1
1245,-0.32,1644585160.578125,P03,D05,1,1,1
1246,-0.41,1644585160.59375,P03,D05,1,1,1
1247,-0.27,1644585160.609375,P03,D05,1,1,1
1248,0.01,1644585160.625,P03,D05,1,1,1
1249,0.29,1644585160.640625,P03,D05,1,1,1
1250,0.42,1644585160.65625,P03,D05,1,1,1
1251,0.33,1644585160.671875,P03,D05,1,1,1
1252,0.12,1644585160.6875,P03,D05,1,1,1
1253,-0.1,1644585160.703125,P03,D05,1,1,1
1254,-0.22,1644585160.71875,P03,D05,1,1,1
1255,-0.21,1644585160.734375,P03,D05,1,1,1
1256,-0.17,1644585160.75,P03,D05,1,1,1
1257,-0.17,1644585160.765625,P03,D05,1,1,1
1258,-0.23,1644585160.78125,P03,D05,1,1,1
1259,-0.33,1644585160.796875,P03,D05,1,1,1
1260,-0.37,1644585160.8125,P03,D05,1,1,1
1261,-0.32,1644585160.828125,P03,D05,1,1,1
1262,-0.19,1644585160.84375,P03,D05,1,1,1
1263,-0.03,1644585160.859375,P03,D05,1,1,1
1264,0.09,1644585160.875,P03,D05,1,1,1
1265,0.15,1644585160.890625,P03,D05,1,1,1
1266,0.17,1644585160.90625,P03,D05,1,1,1
1267,0.18,1644585160.921875,P03,D05,1,1,1
1268,0.21,1644585160.9375,P03,D05,1,1,1
1269,0.28,1644585160.953125,P03,D05,1,1,1
1270,0.36,1644585160.96875,P03,D05,1,1,1
1271,0.43,1644585160.984375,P03,D05,1,1,1
1272,0.44,1644585161.0,P03,D05,1,1,1
1273,0.34,1644585161.015625,P03,D05,1,1,1
1274,0.14,1644585161.03125,P03,D05,1,1,1
1275,-0.12,1644585161.046875,P03,D05,1,1,1
1276,-0.37,1644585161.0625,P03,D05,1,1,1
1277,-0.52,1644585161.078125,P03,D05,1,1,1
1278,-0.52,1644585161.09375,P03,D05,1,1,1
1279,-0.38,1644585161.109375,P03,D05,1,1,1
1280,-0.16,1644585161.125,P03,D05,1,1,1
1281,0.04,1644585161.140625,P03,D05,1,1,1
1282,0.13,1644585161.15625,P03,D05,1,1,1
1283,0.05,1644585161.171875,P03,D05,1,1,1
1284,-0.18,1644585161.1875,P03,D05,1,1,1
1285,-0.51,1644585161.203125,P03,D05,1,1,1
1286,-0.84,1644585161.21875,P03,D05,1,1,1
1287,-1.08,1644585161.234375,P03,D05,1,1,1
1288,-1.2,1644585161.25,P03,D05,1,1,1
1289,-1.16,1644585161.265625,P03,D05,1,1,1
1290,-1.02,1644585161.28125,P03,D05,1,1,1
1291,-0.84,1644585161.296875,P03,D05,1,1,1
1292,-0.7,1644585161.3125,P03,D05,1,1,1
1293,-0.63,1644585161.328125,P03,D05,1,1,1
1294,-0.64,1644585161.34375,P03,D05,1,1,1
1295,-0.68,1644585161.359375,P03,D05,1,1,1
1296,-0.72,1644585161.375,P03,D05,1,1,1
1297,-0.71,1644585161.390625,P03,D05,1,1,1
1298,-0.64,1644585161.40625,P03,D05,1,1,1
1299,-0.5,1644585161.421875,P03,D05,1,1,1
1300,-0.32,1644585161.4375,P03,D05,1,1,1
1301,-0.11,1644585161.453125,P03,D05,1,1,1
1302,0.08,1644585161.46875,P03,D05,1,1,1
1303,0.2,1644585161.484375,P03,D05,1,1,1
1304,0.21,1644585161.5,P03,D05,1,1,1
1305,0.11,1644585161.515625,P03,D05,1,1,1
1306,-0.05,1644585161.53125,P03,D05,1,1,1
1307,-0.19,1644585161.546875,P03,D05,1,1,1
1308,-0.24,1644585161.5625,P03,D05,1,1,1
1309,-0.16,1644585161.578125,P03,D05,1,1,1
1310,0.05,1644585161.59375,P03,D05,1,1,1
1311,0.3,1644585161.609375,P03,D05,1,1,1
1312,0.52,1644585161.625,P03,D05,1,1,1
1313,0.61,1644585161.640625,P03,D05,1,1,1
1314,0.56,1644585161.65625,P03,D05,1,1,1
1315,0.39,1644585161.671875,P03,D05,1,1,1
1316,0.18,1644585161.6875,P03,D05,1,1,1
1317,0.04,1644585161.703125,P03,D05,1,1,1
1318,0.04,1644585161.71875,P03,D05,1,1,1
1319,0.17,1644585161.734375,P03,D05,1,1,1
1320,0.37,1644585161.75,P03,D05,1,1,1
1321,0.54,1644585161.765625,P03,D05,1,1,1
1322,0.59,1644585161.78125,P03,D05,1,1,1
1323,0.52,1644585161.796875,P03,D05,1,1,1
1324,0.38,1644585161.8125,P03,D05,1,1,1
1325,0.24,1644585161.828125,P03,D05,1,1,1
1326,0.16,1644585161.84375,P03,D05,1,1,1
1327,0.11,1644585161.859375,P03,D05,1,1,1
1328,0.05,1644585161.875,P03,D05,1,1,1
1329,-0.03,1644585161.890625,P03,D05,1,1,1
1330,-0.12,1644585161.90625,P03,D05,1,1,1
1331,-0.18,1644585161.921875,P03,D05,1,1,1
1332,-0.18,1644585161.9375,P03,D05,1,1,1
1333,-0.14,1644585161.953125,P03,D05,1,1,1
1334,-0.12,1644585161.96875,P03,D05,1,1,1
1335,-0.18,1644585161.984375,P03,D05,1,1,1
1336,-0.36,1644585162.0,P03,D05,1,1,1
1337,-0.62,1644585162.015625,P03,D05,1,1,1
1338,-0.86,1644585162.03125,P03,D05,1,1,1
1339,-1.02,1644585162.046875,P03,D05,1,1,1
1340,-1.02,1644585162.0625,P03,D05,1,1,1
1341,-0.88,1644585162.078125,P03,D05,1,1,1
1342,-0.66,1644585162.09375,P03,D05,1,1,1
1343,-0.4,1644585162.109375,P03,D05,1,1,1
1344,-0.19,1644585162.125,P03,D05,1,1,1
1345,-0.06,1644585162.140625,P03,D05,1,1,1
1346,-0.0,1644585162.15625,P03,D05,1,1,1
1347,0.0,1644585162.171875,P03,D05,1,1,1
1348,-0.01,1644585162.1875,P03,D05,1,1,1
1349,-0.01,1644585162.203125,P03,D05,1,1,1
1350,-0.03,1644585162.21875,P03,D05,1,1,1
1351,-0.08,1644585162.234375,P03,D05,1,1,1
1352,-0.18,1644585162.25,P03,D05,1,1,1
1353,-0.28,1644585162.265625,P03,D05,1,1,1
1354,-0.32,1644585162.28125,P03,D05,1,1,1
1355,-0.21,1644585162.296875,P03,D05,1,1,1
1356,0.09,1644585162.3125,P03,D05,1,1,1
1357,0.53,1644585162.328125,P03,D05,1,1,1
1358,0.97,1644585162.34375,P03,D05,1,1,1
1359,1.27,1644585162.359375,P03,D05,1,1,1
1360,1.35,1644585162.375,P03,D05,1,1,1
1361,1.21,1644585162.390625,P03,D05,1,1,1
1362,0.93,1644585162.40625,P03,D05,1,1,1
1363,0.66,1644585162.421875,P03,D05,1,1,1
1364,0.44,1644585162.4375,P03,D05,1,1,1
1365,0.27,1644585162.453125,P03,D05,1,1,1
1366,0.07,1644585162.46875,P03,D05,1,1,1
1367,-0.21,1644585162.484375,P03,D05,1,1,1
1368,-0.53,1644585162.5,P03,D05,1,1,1
1369,-0.77,1644585162.515625,P03,D05,1,1,1
1370,-0.79,1644585162.53125,P03,D05,1,1,1
1371,-0.52,1644585162.546875,P03,D05,1,1,1
1372,-0.04,1644585162.5625,P03,D05,1,1,1
1373,0.48,1644585162.578125,P03,D05,1,1,1
1374,0.83,1644585162.59375,P03,D05,1,1,1
1375,0.89,1644585162.609375,P03,D05,1,1,1
1376,0.69,1644585162.625,P03,D05,1,1,1
1377,0.35,1644585162.640625,P03,D05,1,1,1
1378,0.04,1644585162.65625,P03,D05,1,1,1
1379,-0.13,1644585162.671875,P03,D05,1,1,1
1380,-0.13,1644585162.6875,P03,D05,1,1,1
1381,0.0,1644585162.703125,P03,D05,1,1,1
1382,0.21,1644585162.71875,P03,D05,1,1,1
1383,0.43,1644585162.734375,P03,D05,1,1,1
1384,0.61,1644585162.75,P03,D05,1,1,1
1385,0.73,1644585162.765625,P03,D05,1,1,1
1386,0.81,1644585162.78125,P03,D05,1,1,1
1387,0.86,1644585162.796875,P03,D05,1,1,1
1388,0.91,1644585162.8125,P03,D05,1,1,1
1389,0.94,1644585162.828125,P03,D05,1,1,1
1390,0.9,1644585162.84375,P03,D05,1,1,1
1391,0.74,1644585162.859375,P03,D05,1,1,1
1392,0.43,1644585162.875,P03,D05,1,1,1
1393,0.06,1644585162.890625,P03,D05,1,1,1
1394,-0.26,1644585162.90625,P03,D05,1,1,1
1395,-0.39,1644585162.921875,P03,D05,1,1,1
1396,-0.32,1644585162.9375,P03,D05,1,1,1
1397,-0.14,1644585162.953125,P03,D05,1,1,1
1398,-0.04,1644585162.96875,P03,D05,1,1,1
1399,-0.14,1644585162.984375,P03,D05,1,1,1
1400,-0.46,1644585163.0,P03,D05,1,1,1
1401,-0.88,1644585163.015625,P03,D05,1,1,1
1402,-1.23,1644585163.03125,P03,D05,1,1,1
1403,-1.4,1644585163.046875,P03,D05,1,1,1
1404,-1.36,1644585163.0625,P03,D05,1,1,1
1405,-1.21,1644585163.078125,P03,D05,1,1,1
1406,-1.04,1644585163.09375,P03,D05,1,1,1
1407,-0.89,1644585163.109375,P03,D05,1,1,1
1408,-0.72,1644585163.125,P03,D05,1,1,1
1409,-0.48,1644585163.140625,P03,D05,1,1,1
1410,-0.13,1644585163.15625,P03,D05,1,1,1
1411,0.26,1644585163.171875,P03,D05,1,1,1
1412,0.59,1644585163.1875,P03,D05,1,1,1
1413,0.73,1644585163.203125,P03,D05,1,1,1
1414,0.66,1644585163.21875,P03,D05,1,1,1
1415,0.43,1644585163.234375,P03,D05,1,1,1
1416,0.14,1644585163.25,P03,D05,1,1,1
1417,-0.1,1644585163.265625,P03,D05,1,1,1
1418,-0.22,1644585163.28125,P03,D05,1,1,1
1419,-0.24,1644585163.296875,P03,D05,1,1,1
1420,-0.21,1644585163.3125,P03,D05,1,1,1
1421,-0.22,1644585163.328125,P03,D05,1,1,1
1422,-0.29,1644585163.34375,P03,D05,1,1,1
1423,-0.4,1644585163.359375,P03,D05,1,1,1
1424,-0.48,1644585163.375,P03,D05,1,1,1
1425,-0.46,1644585163.390625,P03,D05,1,1,1
1426,-0.33,1644585163.40625,P03,D05,1,1,1
1427,-0.13,1644585163.421875,P03,D05,1,1,1
1428,0.08,1644585163.4375,P03,D05,1,1,1
1429,0.24,1644585163.453125,P03,D05,1,1,1
1430,0.32,1644585163.46875,P03,D05,1,1,1
1431,0.32,1644585163.484375,P03,D05,1,1,1
1432,0.26,1644585163.5,P03,D05,1,1,1
1433,0.17,1644585163.515625,P03,D05,1,1,1
1434,0.06,1644585163.53125,P03,D05,1,1,1
1435,-0.04,1644585163.546875,P03,D05,1,1,1
1436,-0.09,1644585163.5625,P03,D05,1,1,1
1437,-0.1,1644585163.578125,P03,D05,1,1,1
1438,-0.05,1644585163.59375,P03,D05,1,1,1
1439,0.03,1644585163.609375,P03,D05,1,1,1
1440,0.13,1644585163.625,P03,D05,1,1,1
1441,0.25,1644585163.640625,P03,D05,1,1,1
1442,0.41,1644585163.65625,P03,D05,1,1,1
1443,0.63,1644585163.671875,P03,D05,1,1,1
1444,0.89,1644585163.6875,P03,D05,1,1,1
1445,1.13,1644585163.703125,P03,D05,1,1,1
1446,1.28,1644585163.71875,P03,D05,1,1,1
1447,1.26,1644585163.734375,P03,D05,1,1,1
1448,1.1,1644585163.75,P03,D05,1,1,1
1449,0.86,1644585163.765625,P03,D05,1,1,1
1450,0.62,1644585163.78125,P03,D05,1,1,1
1451,0.41,1644585163.796875,P03,D05,1,1,1
1452,0.24,1644585163.8125,P03,D05,1,1,1
1453,0.1,1644585163.828125,P03,D05,1,1,1
1454,0.01,1644585163.84375,P03,D05,1,1,1
1455,0.03,1644585163.859375,P03,D05,1,1,1
1456,0.17,1644585163.875,P03,D05,1,1,1
1457,0.4,1644585163.890625,P03,D05,1,1,1
1458,0.59,1644585163.90625,P03,D05,1,1,1
1459,0.62,1644585163.921875,P03,D05,1,1,1
1460,0.42,1644585163.9375,P03,D05,1,1,1
1461,0.03,1644585163.953125,P03,D05,1,1,1
1462,-0.39,1644585163.96875,P03,D05,1,1,1
1463,-0.7,1644585163.984375,P03,D05,1,1,1
1464,-0.81,1644585164.0,P03,D05,1,1,1
1465,-0.74,1644585164.015625,P03,D05,1,1,1
1466,-0.62,1644585164.03125,P03,D05,1,1,1
1467,-0.55,1644585164.046875,P03,D05,1,1,1
1468,-0.58,1644585164.0625,P03,D05,1,1,1
1469,-0.69,1644585164.078125,P03,D05,1,1,1
1470,-0.79,1644585164.09375,P03,D05,1,1,1
1471,-0.82,1644585164.109375,P03,D05,1,1,1
1472,-0.76,1644585164.125,P03,D05,1,1,1
1473,-0.62,1644585164.140625,P03,D05,1,1,1
1474,-0.45,1644585164.15625,P03,D05,1,1,1
1475,-0.32,1644585164.171875,P03,D05,1,1,1
1476,-0.27,1644585164.1875,P03,D05,1,1,1
1477,-0.3,1644585164.203125,P03,D05,1,1,1
1478,-0.39,1644585164.21875,P03,D05,1,1,1
1479,-0.47,1644585164.234375,P03,D05,1,1,1
1480,-0.46,1644585164.25,P03,D05,1,1,1
1481,-0.31,1644585164.265625,P03,D05,1,1,1
1482,-0.05,1644585164.28125,P03,D05,1,1,1
1483,0.25,1644585164.296875,P03,D05,1,1,1
1484,0.48,1644585164.3125,P03,D05,1,1,1
1485,0.58,1644585164.328125,P03,D05,1,1,1
1486,0.57,1644585164.34375,P03,D05,1,1,1
1487,0.5,1644585164.359375,P03,D05,1,1,1
1488,0.48,1644585164.375,P03,D05,1,1,1
1489,0.52,1644585164.390625,P03,D05,1,1,1
1490,0.57,1644585164.40625,P03,D05,1,1,1
1491,0.54,1644585164.421875,P03,D05,1,1,1
1492,0.38,1644585164.4375,P03,D05,1,1,1
1493,0.11,1644585164.453125,P03,D05,1,1,1
1494,-0.16,1644585164.46875,P03,D05,1,1,1
1495,-0.31,1644585164.484375,P03,D05,1,1,1
1496,-0.28,1644585164.5,P03,D05,1,1,1
1497,-0.11,1644585164.515625,P03,D05,1,1,1
1498,0.11,1644585164.53125,P03,D05,1,1,1
1499,0.28,1644585164.546875,P03,D05,1,1,1
1500,0.35,1644585164.5625,P03,D05,1,1,1
1501,0.34,1644585164.578125,P03,D05,1,1,1
1502,0.28,1644585164.59375,P03,D05,1,1,1
1503,0.2,1644585164.609375,P03,D05,1,1,1
1504,0.08,1644585164.625,P03,D05,1,1,1
1505,-0.07,1644585164.640625,P03,D05,1,1,1
1506,-0.23,1644585164.65625,P03,D05,1,1,1
1507,-0.36,1644585164.671875,P03,D05,1,1,1
1508,-0.38,1644585164.6875,P03,D05,1,1,1
1509,-0.27,1644585164.703125,P03,D05,1,1,1
1510,-0.01,1644585164.71875,P03,D05,1,1,1
1511,0.35,1644585164.734375,P03,D05,1,1,1
1512,0.75,1644585164.75,P03,D05,1,1,1
1513,1.11,1644585164.765625,P03,D05,1,1,1
1514,1.31,1644585164.78125,P03,D05,1,1,1
1515,1.29,1644585164.796875,P03,D05,1,1,1
1516,1.03,1644585164.8125,P03,D05,1,1,1
1517,0.6,1644585164.828125,P03,D05,1,1,1
1518,0.14,1644585164.84375,P03,D05,1,1,1
1519,-0.2,1644585164.859375,P03,D05,1,1,1
1520,-0.32,1644585164.875,P03,D05,1,1,1
1521,-0.21,1644585164.890625,P03,D05,1,1,1
1522,0.02,1644585164.90625,P03,D05,1,1,1
1523,0.22,1644585164.921875,P03,D05,1,1,1
1524,0.25,1644585164.9375,P03,D05,1,1,1
1525,0.07,1644585164.953125,P03,D05,1,1,1
1526,-0.26,1644585164.96875,P03,D05,1,1,1
1527,-0.64,1644585164.984375,P03,D05,1,1,1
1528,-0.91,1644585165.0,P03,D05,1,1,1
1529,-0.98,1644585165.015625,P03,D05,1,1,1
1530,-0.8,1644585165.03125,P03,D05,1,1,1
1531,-0.43,1644585165.046875,P03,D05,1,1,1
1532,0.03,1644585165.0625,P03,D05,1,1,1
1533,0.43,1644585165.078125,P03,D05,1,1,1
1534,0.61,1644585165.09375,P03,D05,1,1,1
1535,0.48,1644585165.109375,P03,D05,1,1,1
1536,0.07,1644585165.125,P03,D05,1,1,1
1537,-0.48,1644585165.140625,P03,D05,1,1,1
1538,-0.98,1644585165.15625,P03,D05,1,1,1
1539,-1.27,1644585165.171875,P03,D05,1,1,1
1540,-1.27,1644585165.1875,P03,D05,1,1,1
1541,-1.03,1644585165.203125,P03,D05,1,1,1
1542,-0.62,1644585165.21875,P03,D05,1,1,1
1543,-0.15,1644585165.234375,P03,D05,1,1,1
1544,0.3,1644585165.25,P03,D05,1,1,1
1545,0.68,1644585165.265625,P03,D05,1,1,1
1546,0.91,1644585165.28125,P03,D05,1,1,1
1547,0.96,1644585165.296875,P03,D05,1,1,1
1548,0.82,1644585165.3125,P03,D05,1,1,1
1549,0.55,1644585165.328125,P03,D05,1,1,1
1550,0.28,1644585165.34375,P03,D05,1,1,1
1551,0.14,1644585165.359375,P03,D05,1,1,1
1552,0.19,1644585165.375,P03,D05,1,1,1
1553,0.39,1644585165.390625,P03,D05,1,1,1
1554,0.6,1644585165.40625,P03,D05,1,1,1
1555,0.7,1644585165.421875,P03,D05,1,1,1
1556,0.61,1644585165.4375,P03,D05,1,1,1
1557,0.36,1644585165.453125,P03,D05,1,1,1
1558,0.04,1644585165.46875,P03,D05,1,1,1
1559,-0.24,1644585165.484375,P03,D05,1,1,1
1560,-0.41,1644585165.5,P03,D05,1,1,1
1561,-0.48,1644585165.515625,P03,D05,1,1,1
1562,-0.48,1644585165.53125,P03,D05,1,1,1
1563,-0.5,1644585165.546875,P03,D05,1,1,1
1564,-0.57,1644585165.5625,P03,D05,1,1,1
1565,-0.71,1644585165.578125,P03,D05,1,1,1
1566,-0.88,1644585165.59375,P03,D05,1,1,1
1567,-1.0,1644585165.609375,P03,D05,1,1,1
1568,-1.02,1644585165.625,P03,D05,1,1,1
1569,-0.91,1644585165.640625,P03,D05,1,1,1
1570,-0.7,1644585165.65625,P03,D05,1,1,1
1571,-0.46,1644585165.671875,P03,D05,1,1,1
1572,-0.25,1644585165.6875,P03,D05,1,1,1
1573,-0.08,1644585165.703125,P03,D05,1,1,1
1574,0.06,1644585165.71875,P03,D05,1,1,1
1575,0.21,1644585165.734375,P03,D05,1,1,1
1576,0.38,1644585165.75,P03,D05,1,1,1
1577,0.57,1644585165.765625,P03,D05,1,1,1
1578,0.71,1644585165.78125,P03,D05,1,1,1
1579,0.8,1644585165.796875,P03,D05,1,1,1
1580,0.84,1644585165.8125,P03,D05,1,1,1
1581,0.86,1644585165.828125,P03,D05,1,1,1
1582,0.9,1644585165.84375,P03,D05,1,1,1
1583,0.94,1644585165.859375,P03,D05,1,1,1
1584,0.95,1644585165.875,P03,D05,1,1,1
1585,0.89,1644585165.890625,P03,D05,1,1,1
1586,0.73,1644585165.90625,P03,D05,1,1,1
1587,0.5,1644585165.921875,P03,D05,1,1,1
1588,0.21,1644585165.9375,P03,D05,1,1,1
1589,-0.08,1644585165.953125,P03,D05,1,1,1
1590,-0.34,1644585165.96875,P03,D05,1,1,1
1591,-0.53,1644585165.984375,P03,D05,1,1,1
1592,-0.63,1644585166.0,P03,D05,1,1,1
1593,-0.6,1644585166.015625,P03,D05,1,1,1
1594,-0.47,1644585166.03125,P03,D05,1,1,1
1595,-0.3,1644585166.046875,P03,D05,1,1,1
1596,-0.18,1644585166.0625,P03,D05,1,1,1
1597,-0.17,1644585166.078125,P03,D05,1,1,1
1598,-0.3,1644585166.09375,P03,D05,1,1,1
1599,-0.49,1644585166.109375,P03,D05,1,1,1
1600,-0.66,1644585166.125,P03,D05,1,1,1
1601,-0.72,1644585166.140625,P03,D05,1,1,1
1602,-0.66,1644585166.15625,P03,D05,1,1,1
1603,-0.53,1644585166.171875,P03,D05,1,1,1
1604,-0.42,1644585166.1875,P03,D05,1,1,1
1605,-0.39,1644585166.203125,P03,D05,1,1,1
1606,-0.47,1644585166.21875,P03,D05,1,1,1
1607,-0.6,1644585166.234375,P03,D05,1,1,1
1608,-0.71,1644585166.25,P03,D05,1,1,1
1609,-0.75,1644585166.265625,P03,D05,1,1,1
1610,-0.7,1644585166.28125,P03,D05,1,1,1
1611,-0.61,1644585166.296875,P03,D05,1,1,1
1612,-0.52,1644585166.3125,P03,D05,1,1,1
1613,-0.48,1644585166.328125,P03,D05,1,1,1
1614,-0.47,1644585166.34375,P03,D05,1,1,1
1615,-0.45,1644585166.359375,P03,D05,1,1,1
1616,-0.34,1644585166.375,P03,D05,1,1,1
1617,-0.13,1644585166.390625,P03,D05,1,1,1
1618,0.16,1644585166.40625,P03,D05,1,1,1
1619,0.46,1644585166.421875,P03,D05,1,1,1
1620,0.67,1644585166.4375,P03,D05,1,1,1
1621,0.78,1644585166.453125,P03,D05,1,1,1
1622,0.79,1644585166.46875,P03,D05,1,1,1
1623,0.78,1644585166.484375,P03,D05,1,1,1
1624,0.8,1644585166.5,P03,D05,1,1,1
1625,0.81,1644585166.515625,P03,D05,1,1,1
1626,0.77,1644585166.53125,P03,D05,1,1,1
1627,0.61,1644585166.546875,P03,D05,1,1,1
1628,0.34,1644585166.5625,P03,D05,1,1,1
1629,0.06,1644585166.578125,P03,D05,1,1,1
1630,-0.09,1644585166.59375,P03,D05,1,1,1
1631,-0.02,1644585166.609375,P03,D05,1,1,1
1632,0.27,1644585166.625,P03,D05,1,1,1
1633,0.65,1644585166.640625,P03,D05,1,1,1
1634,0.95,1644585166.65625,P03,D05,1,1,1
1635,1.06,1644585166.671875,P03,D05,1,1,1
1636,0.96,1644585166.6875,P03,D05,1,1,1
1637,0.7,1644585166.703125,P03,D05,1,1,1
1638,0.37,1644585166.71875,P03,D05,1,1,1
1639,0.05,1644585166.734375,P03,D05,1,1,1
1640,-0.2,1644585166.75,P03,D05,1,1,1
1641,-0.33,1644585166.765625,P03,D05,1,1,1
1642,-0.28,1644585166.78125,P03,D05,1,1,1
1643,-0.02,1644585166.796875,P03,D05,1,1,1
1644,0.4,1644585166.8125,P03,D05,1,1,1
1645,0.89,1644585166.828125,P03,D05,1,1,1
1646,1.25,1644585166.84375,P03,D05,1,1,1
1647,1.34,1644585166.859375,P03,D05,1,1,1
1648,1.09,1644585166.875,P03,D05,1,1,1
1649,0.6,1644585166.890625,P03,D05,1,1,1
1650,0.02,1644585166.90625,P03,D05,1,1,1
1651,-0.44,1644585166.921875,P03,D05,1,1,1
1652,-0.65,1644585166.9375,P03,D05,1,1,1
1653,-0.59,1644585166.953125,P03,D05,1,1,1
1654,-0.37,1644585166.96875,P03,D05,1,1,1
1655,-0.15,1644585166.984375,P03,D05,1,1,1
1656,-0.07,1644585167.0,P03,D05,1,1,1
1657,-0.17,1644585167.015625,P03,D05,1,1,1
1658,-0.43,1644585167.03125,P03,D05,1,1,1
1659,-0.74,1644585167.046875,P03,D05,1,1,1
1660,-0.97,1644585167.0625,P03,D05,1,1,1
1661,-1.03,1644585167.078125,P03,D05,1,1,1
1662,-0.93,1644585167.09375,P03,D05,1,1,1
1663,-0.71,1644585167.109375,P03,D05,1,1,1
1664,-0.45,1644585167.125,P03,D05,1,1,1
1665,-0.21,1644585167.140625,P03,D05,1,1,1
1666,-0.03,1644585167.15625,P03,D05,1,1,1
1667,0.1,1644585167.171875,P03,D05,1,1,1
1668,0.18,1644585167.1875,P03,D05,1,1,1
1669,0.2,1644585167.203125,P03,D05,1,1,1
1670,0.13,1644585167.21875,P03,D05,1,1,1
1671,-0.04,1644585167.234375,P03,D05,1,1,1
1672,-0.3,1644585167.25,P03,D05,1,1,1
1673,-0.6,1644585167.265625,P03,D05,1,1,1
1674,-0.87,1644585167.28125,P03,D05,1,1,1
1675,-1.08,1644585167.296875,P03,D05,1,1,1
1676,-1.18,1644585167.3125,P03,D05,1,1,1
1677,-1.18,1644585167.328125,P03,D05,1,1,1
1678,-1.09,1644585167.34375,P03,D05,1,1,1
1679,-0.92,1644585167.359375,P03,D05,1,1,1
1680,-0.67,1644585167.375,P03,D05,1,1,1
1681,-0.36,1644585167.390625,P03,D05,1,1,1
1682,-0.01,1644585167.40625,P03,D05,1,1,1
1683,0.31,1644585167.421875,P03,D05,1,1,1
1684,0.52,1644585167.4375,P03,D05,1,1,1
1685,0.58,1644585167.453125,P03,D05,1,1,1
1686,0.49,1644585167.46875,P03,D05,1,1,1
1687,0.28,1644585167.484375,P03,D05,1,1,1
1688,0.04,1644585167.5,P03,D05,1,1,1
1689,-0.16,1644585167.515625,P03,D05,1,1,1
1690,-0.29,1644585167.53125,P03,D05,1,1,1
1691,-0.32,1644585167.546875,P03,D05,1,1,1
1692,-0.25,1644585167.5625,P03,D05,1,1,1
1693,-0.09,1644585167.578125,P03,D05,1,1,1
1694,0.19,1644585167.59375,P03,D05,1,1,1
1695,0.59,1644585167.609375,P03,D05,1,1,1
1696,1.04,1644585167.625,P03,D05,1,1,1
1697,1.44,1644585167.640625,P03,D05,1,1,1
1698,1.63,1644585167.65625,P03,D05,1,1,1
1699,1.54,1644585167.671875,P03,D05,1,1,1
1700,1.19,1644585167.6875,P03,D05,1,1,1
1701,0.7,1644585167.703125,P03,D05,1,1,1
1702,0.25,1644585167.71875,P03,D05,1,1,1
1703,-0.04,1644585167.734375,P03,D05,1,1,1
1704,-0.14,1644585167.75,P03,D05,1,1,1
1705,-0.11,1644585167.765625,P03,D05,1,1,1
1706,-0.04,1644585167.78125,P03,D05,1,1,1
1707,0.02,1644585167.796875,P03,D05,1,1,1
1708,0.09,1644585167.8125,P03,D05,1,1,1
1709,0.2,1644585167.828125,P03,D05,1,1,1
1710,0.33,1644585167.84375,P03,D05,1,1,1
1711,0.41,1644585167.859375,P03,D05,1,1,1
1712,0.33,1644585167.875,P03,D05,1,1,1
1713,0.05,1644585167.890625,P03,D05,1,1,1
1714,-0.39,1644585167.90625,P03,D05,1,1,1
1715,-0.85,1644585167.921875,P03,D05,1,1,1
1716,-1.13,1644585167.9375,P03,D05,1,1,1
1717,-1.09,1644585167.953125,P03,D05,1,1,1
1718,-0.71,1644585167.96875,P03,D05,1,1,1
1719,-0.1,1644585167.984375,P03,D05,1,1,1
1720,0.56,1644585168.0,P03,D05,1,1,1
1721,1.07,1644585168.015625,P03,D05,1,1,1
1722,1.28,1644585168.03125,P03,D05,1,1,1
1723,1.15,1644585168.046875,P03,D05,1,1,1
1724,0.76,1644585168.0625,P03,D05,1,1,1
1725,0.21,1644585168.078125,P03,D05,1,1,1
1726,-0.33,1644585168.09375,P03,D05,1,1,1
1727,-0.76,1644585168.109375,P03,D05,1,1,1
1728,-1.04,1644585168.125,P03,D05,1,1,1
1729,-1.15,1644585168.140625,P03,D05,1,1,1
1730,-1.12,1644585168.15625,P03,D05,1,1,1
1731,-0.97,1644585168.171875,P03,D05,1,1,1
1732,-0.76,1644585168.1875,P03,D05,1,1,1
1733,-0.51,1644585168.203125,P03,D05,1,1,1
1734,-0.3,1644585168.21875,P03,D05,1,1,1
1735,-0.13,1644585168.234375,P03,D05,1,1,1
1736,-0.05,1644585168.25,P03,D05,1,1,1
1737,-0.03,1644585168.265625,P03,D05,1,1,1
1738,-0.04,1644585168.28125,P03,D05,1,1,1
1739,-0.05,1644585168.296875,P03,D05,1,1,1
1740,-0.06,1644585168.3125,P03,D05,1,1,1
1741,-0.1,1644585168.328125,P03,D05,1,1,1
1742,-0.15,1644585168.34375,P03,D05,1,1,1
1743,-0.21,1644585168.359375,P03,D05,1,1,1
1744,-0.24,1644585168.375,P03,D05,1,1,1
1745,-0.16,1644585168.390625,P03,D05,1,1,1
1746,0.04,1644585168.40625,P03,D05,1,1,1
1747,0.34,1644585168.421875,P03,D05,1,1,1
1748,0.68,1644585168.4375,P03,D05,1,1,1
1749,0.97,1644585168.453125,P03,D05,1,1,1
1750,1.16,1644585168.46875,P03,D05,1,1,1
1751,1.23,1644585168.484375,P03,D05,1,1,1
1752,1.19,1644585168.5,P03,D05,1,1,1
1753,1.08,1644585168.515625,P03,D05,1,1,1
1754,0.92,1644585168.53125,P03,D05,1,1,1
1755,0.7,1644585168.546875,P03,D05,1,1,1
1756,0.41,1644585168.5625,P03,D05,1,1,1
1757,0.05,1644585168.578125,P03,D05,1,1,1
1758,-0.35,1644585168.59375,P03,D05,1,1,1
1759,-0.72,1644585168.609375,P03,D05,1,1,1
1760,-0.97,1644585168.625,P03,D05,1,1,1
1761,-1.05,1644585168.640625,P03,D05,1,1,1
1762,-0.95,1644585168.65625,P03,D05,1,1,1
1763,-0.74,1644585168.671875,P03,D05,1,1,1
1764,-0.51,1644585168.6875,P03,D05,1,1,1
1765,-0.33,1644585168.703125,P03,D05,1,1,1
1766,-0.25,1644585168.71875,P03,D05,1,1,1
1767,-0.23,1644585168.734375,P03,D05,1,1,1
1768,-0.24,1644585168.75,P03,D05,1,1,1
1769,-0.23,1644585168.765625,P03,D05,1,1,1
1770,-0.2,1644585168.78125,P03,D05,1,1,1
1771,-0.13,1644585168.796875,P03,D05,1,1,1
1772,-0.04,1644585168.8125,P03,D05,1,1,1
1773,0.08,1644585168.828125,P03,D05,1,1,1
1774,0.23,1644585168.84375,P03,D05,1,1,1
1775,0.42,1644585168.859375,P03,D05,1,1,1
1776,0.61,1644585168.875,P03,D05,1,1,1
1777,0.78,1644585168.890625,P03,D05,1,1,1
1778,0.87,1644585168.90625,P03,D05,1,1,1
1779,0.84,1644585168.921875,P03,D05,1,1,1
1780,0.69,1644585168.9375,P03,D05,1,1,1
1781,0.45,1644585168.953125,P03,D05,1,1,1
1782,0.22,1644585168.96875,P03,D05,1,1,1
1783,0.09,1644585168.984375,P03,D05,1,1,1
1784,0.13,1644585169.0,P03,D05,1,1,1
1785,0.3,1644585169.015625,P03,D05,1,1,1
1786,0.53,1644585169.03125,P03,D05,1,1,1
1787,0.67,1644585169.046875,P03,D05,1,1,1
1788,0.63,1644585169.0625,P03,D05,1,1,1
1789,0.41,1644585169.078125,P03,D05,1,1,1
1790,0.08,1644585169.09375,P03,D05,1,1,1
1791,-0.2,1644585169.109375,P03,D05,1,1,1
1792,-0.3,1644585169.125,P03,D05,1,1,1
1793,-0.21,1644585169.140625,P03,D05,1,1,1
1794,0.04,1644585169.15625,P03,D05,1,1,1
1795,0.31,1644585169.171875,P03,D05,1,1,1
1796,0.52,1644585169.1875,P03,D05,1,1,1
1797,0.61,1644585169.203125,P03,D05,1,1,1
1798,0.59,1644585169.21875,P03,D05,1,1,1
1799,0.45,1644585169.234375,P03,D05,1,1,1
1800,0.22,1644585169.25,P03,D05,1,1,1
1801,-0.07,1644585169.265625,P03,D05,1,1,1
1802,-0.38,1644585169.28125,P03,D05,1,1,1
1803,-0.62,1644585169.296875,P03,D05,1,1,1
1804,-0.74,1644585169.3125,P03,D05,1,1,1
1805,-0.69,1644585169.328125,P03,D05,1,1,1
1806,-0.49,1644585169.34375,P03,D05,1,1,1
1807,-0.23,1644585169.359375,P03,D05,1,1,1
1808,-0.03,1644585169.375,P03,D05,1,1,1
1809,0.04,1644585169.390625,P03,D05,1,1,1
1810,-0.05,1644585169.40625,P03,D05,1,1,1
1811,-0.29,1644585169.421875,P03,D05,1,1,1
1812,-0.6,1644585169.4375,P03,D05,1,1,1
1813,-0.92,1644585169.453125,P03,D05,1,1,1
1814,-1.2,1644585169.46875,P03,D05,1,1,1
1815,-1.39,1644585169.484375,P03,D05,1,1,1
1816,-1.47,1644585169.5,P03,D05,1,1,1
1817,-1.39,1644585169.515625,P03,D05,1,1,1
1818,-1.16,1644585169.53125,P03,D05,1,1,1
1819,-0.84,1644585169.546875,P03,D05,1,1,1
1820,-0.49,1644585169.5625,P03,D05,1,1,1
1821,-0.17,1644585169.578125,P03,D05,1,1,1
1822,0.07,1644585169.59375,P03,D05,1,1,1
1823,0.26,1644585169.609375,P03,D05,1,1,1
1824,0.39,1644585169.625,P03,D05,1,1,1
1825,0.46,1644585169.640625,P03,D05,1,1,1
1826,0.47,1644585169.65625,P03,D05,1,1,1
1827,0.41,1644585169.671875,P03,D05,1,1,1
1828,0.3,1644585169.6875,P03,D05,1,1,1
1829,0.18,1644585169.703125,P03,D05,1,1,1
1830,0.12,1644585169.71875,P03,D05,1,1,1
1831,0.15,1644585169.734375,P03,D05,1,1,1
1832,0.31,1644585169.75,P03,D05,1,1,1
1833,0.57,1644585169.765625,P03,D05,1,1,1
1834,0.85,1644585169.78125,P03,D05,1,1,1
1835,1.1,1644585169.796875,P03,D05,1,1,1
1836,1.25,1644585169.8125,P03,D05,1,1,1
1837,1.26,1644585169.828125,P03,D05,1,1,1
1838,1.12,1644585169.84375,P03,D05,1,1,1
1839,0.87,1644585169.859375,P03,D05,1,1,1
1840,0.54,1644585169.875,P03,D05,1,1,1
1841,0.19,1644585169.890625,P03,D05,1,1,1
1842,-0.13,1644585169.90625,P03,D05,1,1,1
1843,-0.37,1644585169.921875,P03,D05,1,1,1
1844,-0.46,1644585169.9375,P03,D05,1,1,1
1845,-0.41,1644585169.953125,P03,D05,1,1,1
1846,-0.24,1644585169.96875,P03,D05,1,1,1
1847,-0.02,1644585169.984375,P03,D05,1,1,1
1848,0.18,1644585170.0,P03,D05,1,1,1
1849,0.27,1644585170.015625,P03,D05,1,1,1
1850,0.22,1644585170.03125,P03,D05,1,1,1
1851,0.07,1644585170.046875,P03,D05,1,1,1
1852,-0.14,1644585170.0625,P03,D05,1,1,1
1853,-0.35,1644585170.078125,P03,D05,1,1,1
1854,-0.54,1644585170.09375,P03,D05,1,1,1
1855,-0.72,1644585170.109375,P03,D05,1,1,1
1856,-0.86,1644585170.125,P03,D05,1,1,1
1857,-0.97,1644585170.140625,P03,D05,1,1,1
1858,-1.03,1644585170.15625,P03,D05,1,1,1
1859,-1.02,1644585170.171875,P03,D05,1,1,1
1860,-0.95,1644585170.1875,P03,D05,1,1,1
1861,-0.85,1644585170.203125,P03,D05,1,1,1
1862,-0.73,1644585170.21875,P03,D05,1,1,1
1863,-0.61,1644585170.234375,P03,D05,1,1,1
1864,-0.46,1644585170.25,P03,D05,1,1,1
1865,-0.32,1644585170.265625,P03,D05,1,1,1
1866,-0.19,1644585170.28125,P03,D05,1,1,1
1867,-0.13,1644585170.296875,P03,D05,1,1,1
1868,-0.17,1644585170.3125,P03,D05,1,1,1
1869,-0.3,1644585170.328125,P03,D05,1,1,1
1870,-0.48,1644585170.34375,P03,D05,1,1,1
1871,-0.59,1644585170.359375,P03,D05,1,1,1
1872,-0.55,1644585170.375,P03,D05,1,1,1
1873,-0.32,1644585170.390625,P03,D05,1,1,1
1874,0.06,1644585170.40625,P03,D05,1,1,1
1875,0.5,1644585170.421875,P03,D05,1,1,1
1876,0.87,1644585170.4375,P03,D05,1,1,1
1877,1.05,1644585170.453125,P03,D05,1,1,1
1878,0.98,1644585170.46875,P03,D05,1,1,1
1879,0.72,1644585170.484375,P03,D05,1,1,1
1880,0.37,1644585170.5,P03,D05,1,1,1
1881,0.07,1644585170.515625,P03,D05,1,1,1
1882,-0.07,1644585170.53125,P03,D05,1,1,1
1883,-0.02,1644585170.546875,P03,D05,1,1,1
1884,0.16,1644585170.5625,P03,D05,1,1,1
1885,0.36,1644585170.578125,P03,D05,1,1,1
1886,0.52,1644585170.59375,P03,D05,1,1,1
1887,0.63,1644585170.609375,P03,D05,1,1,1
1888,0.71,1644585170.625,P03,D05,1,1,1
1889,0.79,1644585170.640625,P03,D05,1,1,1
1890,0.84,1644585170.65625,P03,D05,1,1,1
1891,0.8,1644585170.671875,P03,D05,1,1,1
1892,0.62,1644585170.6875,P03,D05,1,1,1
1893,0.34,1644585170.703125,P03,D05,1,1,1
1894,0.05,1644585170.71875,P03,D05,1,1,1
1895,-0.15,1644585170.734375,P03,D05,1,1,1
1896,-0.24,1644585170.75,P03,D05,1,1,1
1897,-0.25,1644585170.765625,P03,D05,1,1,1
1898,-0.25,1644585170.78125,P03,D05,1,1,1
1899,-0.28,1644585170.796875,P03,D05,1,1,1
1900,-0.33,1644585170.8125,P03,D05,1,1,1
1901,-0.34,1644585170.828125,P03,D05,1,1,1
1902,-0.28,1644585170.84375,P03,D05,1,1,1
1903,-0.15,1644585170.859375,P03,D05,1,1,1
1904,-0.02,1644585170.875,P03,D05,1,1,1
1905,0.04,1644585170.890625,P03,D05,1,1,1
1906,-0.02,1644585170.90625,P03,D05,1,1,1
1907,-0.2,1644585170.921875,P03,D05,1,1,1
1908,-0.42,1644585170.9375,P03,D05,1,1,1
1909,-0.6,1644585170.953125,P03,D05,1,1,1
1910,-0.66,1644585170.96875,P03,D05,1,1,1
1911,-0.57,1644585170.984375,P03,D05,1,1,1
1912,-0.34,1644585171.0,P03,D05,1,1,1
1913,-0.04,1644585171.015625,P03,D05,1,1,1
1914,0.24,1644585171.03125,P03,D05,1,1,1
1915,0.41,1644585171.046875,P03,D05,1,1,1
1916,0.45,1644585171.0625,P03,D05,1,1,1
1917,0.39,1644585171.078125,P03,D05,1,1,1
1918,0.32,1644585171.09375,P03,D05,1,1,1
1919,0.29,1644585171.109375,P03,D05,1,1,1
1920,0.26,1644585171.125,P03,D05,1,1,1
1921,0.18,1644585171.140625,P03,D05,1,1,1
1922,-0.01,1644585171.15625,P03,D05,1,1,1
1923,-0.28,1644585171.171875,P03,D05,1,1,1
1924,-0.52,1644585171.1875,P03,D05,1,1,1
1925,-0.61,1644585171.203125,P03,D05,1,1,1
1926,-0.48,1644585171.21875,P03,D05,1,1,1
1927,-0.2,1644585171.234375,P03,D05,1,1,1
1928,0.09,1644585171.25,P03,D05,1,1,1
1929,0.25,1644585171.265625,P03,D05,1,1,1
1930,0.22,1644585171.28125,P03,D05,1,1,1
1931,0.08,1644585171.296875,P03,D05,1,1,1
1932,-0.06,1644585171.3125,P03,D05,1,1,1
1933,-0.1,1644585171.328125,P03,D05,1,1,1
1934,-0.03,1644585171.34375,P03,D05,1,1,1
1935,0.07,1644585171.359375,P03,D05,1,1,1
1936,0.11,1644585171.375,P03,D05,1,1,1
1937,0.04,1644585171.390625,P03,D05,1,1,1
1938,-0.14,1644585171.40625,P03,D05,1,1,1
1939,-0.33,1644585171.421875,P03,D05,1,1,1
1940,-0.48,1644585171.4375,P03,D05,1,1,1
1941,-0.51,1644585171.453125,P03,D05,1,1,1
1942,-0.45,1644585171.46875,P03,D05,1,1,1
1943,-0.32,1644585171.484375,P03,D05,1,1,1
1944,-0.15,1644585171.5,P03,D05,1,1,1
1945,0.03,1644585171.515625,P03,D05,1,1,1
1946,0.2,1644585171.53125,P03,D05,1,1,1
1947,0.34,1644585171.546875,P03,D05,1,1,1
1948,0.43,1644585171.5625,P03,D05,1,1,1
1949,0.41,1644585171.578125,P03,D05,1,1,1
1950,0.27,1644585171.59375,P03,D05,1,1,1
1951,0.03,1644585171.609375,P03,D05,1,1,1
1952,-0.25,1644585171.625,P03,D05,1,1,1
1953,-0.48,1644585171.640625,P03,D05,1,1,1
1954,-0.57,1644585171.65625,P03,D05,1,1,1
1955,-0.49,1644585171.671875,P03,D05,1,1,1
1956,-0.26,1644585171.6875,P03,D05,1,1,1
1957,0.02,1644585171.703125,P03,D05,1,1,1
1958,0.27,1644585171.71875,P03,D05,1,1,1
1959,0.43,1644585171.734375,P03,D05,1,1,1
1960,0.48,1644585171.75,P03,D05,1,1,1
1961,0.44,1644585171.765625,P03,D05,1,1,1
1962,0.34,1644585171.78125,P03,D05,1,1,1
1963,0.2,1644585171.796875,P03,D05,1,1,1
1964,0.08,1644585171.8125,P03,D05,1,1,1
1965,0.0,1644585171.828125,P03,D05,1,1,1
1966,0.0,1644585171.84375,P03,D05,1,1,1
1967,0.09,1644585171.859375,P03,D05,1,1,1
1968,0.24,1644585171.875,P03,D05,1,1,1
1969,0.39,1644585171.890625,P03,D05,1,1,1
1970,0.45,1644585171.90625,P03,D05,1,1,1
1971,0.37,1644585171.921875,P03,D05,1,1,1
1972,0.12,1644585171.9375,P03,D05,1,1,1
1973,-0.25,1644585171.953125,P03,D05,1,1,1
1974,-0.65,1644585171.96875,P03,D05,1,1,1
1975,-0.95,1644585171.984375,P03,D05,1,1,1
1976,-1.05,1644585172.0,P03,D05,1,1,1
1977,-0.91,1644585172.015625,P03,D05,1,1,1
1978,-0.58,1644585172.03125,P03,D05,1,1,1
1979,-0.16,1644585172.046875,P03,D05,1,1,1
1980,0.17,1644585172.0625,P03,D05,1,1,1
1981,0.3,1644585172.078125,P03,D05,1,1,1
1982,0.18,1644585172.09375,P03,D05,1,1,1
1983,-0.1,1644585172.109375,P03,D05,1,1,1
1984,-0.4,1644585172.125,P03,D05,1,1,1
1985,-0.58,1644585172.140625,P03,D05,1,1,1
1986,-0.57,1644585172.15625,P03,D05,1,1,1
1987,-0.4,1644585172.171875,P03,D05,1,1,1
1988,-0.17,1644585172.1875,P03,D05,1,1,1
1989,0.01,1644585172.203125,P03,D05,1,1,1
1990,0.1,1644585172.21875,P03,D05,1,1,1
1991,0.12,1644585172.234375,P03,D05,1,1,1
1992,0.12,1644585172.25,P03,D05,1,1,1
1993,0.11,1644585172.265625,P03,D05,1,1,1
1994,0.09,1644585172.28125,P03,D05,1,1,1
1995,0.03,1644585172.296875,P03,D05,1,1,1
1996,-0.06,1644585172.3125,P03,D05,1,1,1
1997,-0.16,1644585172.328125,P03,D05,1,1,1
1998,-0.24,1644585172.34375,P03,D05,1,1,1
1999,-0.25,1644585172.359375,P03,D05,1,1,1
2000,-0.23,1644585172.375,P03,D05,1,1,1
2001,-0.21,1644585172.390625,P03,D05,1,1,1
2002,-0.25,1644585172.40625,P03,D05,1,1,1
2003,-0.34,1644585172.421875,P03,D05,1,1,1
2004,-0.44,1644585172.4375,P03,D05,1,1,1
2005,-0.5,1644585172.453125,P03,D05,1,1,1
2006,-0.46,1644585172.46875,P03,D05,1,1,1
2007,-0.32,1644585172.484375,P03,D05,1,1,1
2008,-0.12,1644585172.5,P03,D05,1,1,1
2009,0.09,1644585172.515625,P03,D05,1,1,1
2010,0.29,1644585172.53125,P03,D05,1,1,1
2011,0.47,1644585172.546875,P03,D05,1,1,1
2012,0.62,1644585172.5625,P03,D05,1,1,1
2013,0.73,1644585172.578125,P03,D05,1,1,1
2014,0.77,1644585172.59375,P03,D05,1,1,1
2015,0.73,1644585172.609375,P03,D05,1,1,1
2016,0.6,1644585172.625,P03,D05,1,1,1
2017,0.41,1644585172.640625,P03,D05,1,1,1
2018,0.21,1644585172.65625,P03,D05,1,1,1
2019,0.1,1644585172.671875,P03,D05,1,1,1
2020,0.15,1644585172.6875,P03,D05,1,1,1
2021,0.38,1644585172.703125,P03,D05,1,1,1
2022,0.74,1644585172.71875,P03,D05,1,1,1
2023,1.13,1644585172.734375,P03,D05,1,1,1
2024,1.39,1644585172.75,P03,D05,1,1,1
2025,1.39,1644585172.765625,P03,D05,1,1,1
2026,1.08,1644585172.78125,P03,D05,1,1,1
2027,0.53,1644585172.796875,P03,D05,1,1,1
2028,-0.08,1644585172.8125,P03,D05,1,1,1
2029,-0.56,1644585172.828125,P03,D05,1,1,1
2030,-0.81,1644585172.84375,P03,D05,1,1,1
2031,-0.8,1644585172.859375,P03,D05,1,1,1
2032,-0.61,1644585172.875,P03,D05,1,1,1
2033,-0.37,1644585172.890625,P03,D05,1,1,1
2034,-0.17,1644585172.90625,P03,D05,1,1,1
2035,-0.04,1644585172.921875,P03,D05,1,1,1
2036,0.03,1644585172.9375,P03,D05,1,1,1
2037,0.06,1644585172.953125,P03,D05,1,1,1
2038,0.06,1644585172.96875,P03,D05,1,1,1
2039,0.03,1644585172.984375,P03,D05,1,1,1
2040,-0.0,1644585173.0,P03,D05,1,1,1
2041,-0.02,1644585173.015625,P03,D05,1,1,1
2042,0.03,1644585173.03125,P03,D05,1,1,1
2043,0.13,1644585173.046875,P03,D05,1,1,1
2044,0.21,1644585173.0625,P03,D05,1,1,1
2045,0.18,1644585173.078125,P03,D05,1,1,1
2046,-0.01,1644585173.09375,P03,D05,1,1,1
2047,-0.35,1644585173.109375,P03,D05,1,1,1
2048,-0.73,1644585173.125,P03,D05,1,1,1
2049,-1.02,1644585173.140625,P03,D05,1,1,1
2050,-1.12,1644585173.15625,P03,D05,1,1,1
2051,-1.0,1644585173.171875,P03,D05,1,1,1
2052,-0.72,1644585173.1875,P03,D05,1,1,1
2053,-0.33,1644585173.203125,P03,D05,1,1,1
2054,0.1,1644585173.21875,P03,D05,1,1,1
2055,0.55,1644585173.234375,P03,D05,1,1,1
2056,0.97,1644585173.25,P03,D05,1,1,1
2057,1.29,1644585173.265625,P03,D05,1,1,1
2058,1.4,1644585173.28125,P03,D05,1,1,1
2059,1.22,1644585173.296875,P03,D05,1,1,1
2060,0.77,1644585173.3125,P03,D05,1,1,1
2061,0.17,1644585173.328125,P03,D05,1,1,1
2062,-0.42,1644585173.34375,P03,D05,1,1,1
2063,-0.82,1644585173.359375,P03,D05,1,1,1
2064,-0.96,1644585173.375,P03,D05,1,1,1
2065,-0.87,1644585173.390625,P03,D05,1,1,1
2066,-0.65,1644585173.40625,P03,D05,1,1,1
2067,-0.39,1644585173.421875,P03,D05,1,1,1
2068,-0.2,1644585173.4375,P03,D05,1,1,1
2069,-0.07,1644585173.453125,P03,D05,1,1,1
2070,-0.01,1644585173.46875,P03,D05,1,1,1
2071,0.02,1644585173.484375,P03,D05,1,1,1
2072,0.05,1644585173.5,P03,D05,1,1,1
2073,0.07,1644585173.515625,P03,D05,1,1,1
2074,0.07,1644585173.53125,P03,D05,1,1,1
2075,0.03,1644585173.546875,P03,D05,1,1,1
2076,-0.03,1644585173.5625,P03,D05,1,1,1
2077,-0.09,1644585173.578125,P03,D05,1,1,1
2078,-0.16,1644585173.59375,P03,D05,1,1,1
2079,-0.19,1644585173.609375,P03,D05,1,1,1
2080,-0.18,1644585173.625,P03,D05,1,1,1
2081,-0.13,1644585173.640625,P03,D05,1,1,1
2082,-0.03,1644585173.65625,P03,D05,1,1,1
2083,0.13,1644585173.671875,P03,D05,1,1,1
2084,0.31,1644585173.6875,P03,D05,1,1,1
2085,0.47,1644585173.703125,P03,D05,1,1,1
2086,0.54,1644585173.71875,P03,D05,1,1,1
2087,0.47,1644585173.734375,P03,D05,1,1,1
2088,0.25,1644585173.75,P03,D05,1,1,1
2089,-0.07,1644585173.765625,P03,D05,1,1,1
2090,-0.41,1644585173.78125,P03,D05,1,1,1
2091,-0.68,1644585173.796875,P03,D05,1,1,1
2092,-0.78,1644585173.8125,P03,D05,1,1,1
2093,-0.73,1644585173.828125,P03,D05,1,1,1
2094,-0.55,1644585173.84375,P03,D05,1,1,1
2095,-0.34,1644585173.859375,P03,D05,1,1,1
2096,-0.16,1644585173.875,P03,D05,1,1,1
2097,-0.03,1644585173.890625,P03,D05,1,1,1
2098,0.06,1644585173.90625,P03,D05,1,1,1
2099,0.12,1644585173.921875,P03,D05,1,1,1
2100,0.16,1644585173.9375,P03,D05,1,1,1
2101,0.17,1644585173.953125,P03,D05,1,1,1
2102,0.13,1644585173.96875,P03,D05,1,1,1
2103,0.02,1644585173.984375,P03,D05,1,1,1
2104,-0.11,1644585174.0,P03,D05,1,1,1
2105,-0.17,1644585174.015625,P03,D05,1,1,1
2106,-0.1,1644585174.03125,P03,D05,1,1,1
2107,0.13,1644585174.046875,P03,D05,1,1,1
2108,0.47,1644585174.0625,P03,D05,1,1,1
2109,0.84,1644585174.078125,P03,D05,1,1,1
2110,1.15,1644585174.09375,P03,D05,1,1,1
2111,1.32,1644585174.109375,P03,D05,1,1,1
2112,1.33,1644585174.125,P03,D05,1,1,1
2113,1.18,1644585174.140625,P03,D05,1,1,1
2114,0.92,1644585174.15625,P03,D05,1,1,1
2115,0.6,1644585174.171875,P03,D05,1,1,1
2116,0.27,1644585174.1875,P03,D05,1,1,1
2117,-0.01,1644585174.203125,P03,D05,1,1,1
2118,-0.21,1644585174.21875,P03,D05,1,1,1
2119,-0.36,1644585174.234375,P03,D05,1,1,1
2120,-0.48,1644585174.25,P03,D05,1,1,1
2121,-0.57,1644585174.265625,P03,D05,1,1,1
2122,-0.59,1644585174.28125,P03,D05,1,1,1
2123,-0.49,1644585174.296875,P03,D05,1,1,1
2124,-0.27,1644585174.3125,P03,D05,1,1,1
2125,0.03,1644585174.328125,P03,D05,1,1,1
2126,0.27,1644585174.34375,P03,D05,1,1,1
2127,0.35,1644585174.359375,P03,D05,1,1,1
2128,0.23,1644585174.375,P03,D05,1,1,1
2129,-0.03,1644585174.390625,P03,D05,1,1,1
2130,-0.28,1644585174.40625,P03,D05,1,1,1
2131,-0.4,1644585174.421875,P03,D05,1,1,1
2132,-0.36,1644585174.4375,P03,D05,1,1,1
2133,-0.2,1644585174.453125,P03,D05,1,1,1
2134,-0.03,1644585174.46875,P03,D05,1,1,1
2135,0.08,1644585174.484375,P03,D05,1,1,1
2136,0.1,1644585174.5,P03,D05,1,1,1
2137,0.06,1644585174.515625,P03,D05,1,1,1
2138,-0.01,1644585174.53125,P03,D05,1,1,1
2139,-0.07,1644585174.546875,P03,D05,1,1,1
2140,-0.1,1644585174.5625,P03,D05,1,1,1
2141,-0.06,1644585174.578125,P03,D05,1,1,1
2142,0.1,1644585174.59375,P03,D05,1,1,1
2143,0.38,1644585174.609375,P03,D05,1,1,1
2144,0.72,1644585174.625,P03,D05,1,1,1
2145,0.99,1644585174.640625,P03,D05,1,1,1
2146,1.08,1644585174.65625,P03,D05,1,1,1
2147,0.89,1644585174.671875,P03,D05,1,1,1
2148,0.45,1644585174.6875,P03,D05,1,1,1
2149,-0.13,1644585174.703125,P03,D05,1,1,1
2150,-0.69,1644585174.71875,P03,D05,1,1,1
2151,-1.07,1644585174.734375,P03,D05,1,1,1
2152,-1.21,1644585174.75,P03,D05,1,1,1
2153,-1.13,1644585174.765625,P03,D05,1,1,1
2154,-0.9,1644585174.78125,P03,D05,1,1,1
2155,-0.59,1644585174.796875,P03,D05,1,1,1
2156,-0.25,1644585174.8125,P03,D05,1,1,1
2157,0.13,1644585174.828125,P03,D05,1,1,1
2158,0.55,1644585174.84375,P03,D05,1,1,1
2159,0.96,1644585174.859375,P03,D05,1,1,1
2160,1.29,1644585174.875,P03,D05,1,1,1
2161,1.44,1644585174.890625,P03,D05,1,1,1
2162,1.35,1644585174.90625,P03,D05,1,1,1
2163,1.06,1644585174.921875,P03,D05,1,1,1
2164,0.69,1644585174.9375,P03,D05,1,1,1
2165,0.39,1644585174.953125,P03,D05,1,1,1
2166,0.25,1644585174.96875,P03,D05,1,1,1
2167,0.24,1644585174.984375,P03,D05,1,1,1
2168,0.28,1644585175.0,P03,D05,1,1,1
2169,0.26,1644585175.015625,P03,D05,1,1,1
2170,0.15,1644585175.03125,P03,D05,1,1,1
2171,-0.01,1644585175.046875,P03,D05,1,1,1
2172,-0.13,1644585175.0625,P03,D05,1,1,1
2173,-0.17,1644585175.078125,P03,D05,1,1,1
2174,-0.13,1644585175.09375,P03,D05,1,1,1
2175,-0.07,1644585175.109375,P03,D05,1,1,1
2176,-0.05,1644585175.125,P03,D05,1,1,1
2177,-0.1,1644585175.140625,P03,D05,1,1,1
2178,-0.19,1644585175.15625,P03,D05,1,1,1
2179,-0.26,1644585175.171875,P03,D05,1,1,1
2180,-0.27,1644585175.1875,P03,D05,1,1,1
2181,-0.2,1644585175.203125,P03,D05,1,1,1
2182,-0.11,1644585175.21875,P03,D05,1,1,1
2183,-0.07,1644585175.234375,P03,D05,1,1,1
2184,-0.15,1644585175.25,P03,D05,1,1,1
2185,-0.35,1644585175.265625,P03,D05,1,1,1
2186,-0.6,1644585175.28125,P03,D05,1,1,1
2187,-0.77,1644585175.296875,P03,D05,1,1,1
2188,-0.74,1644585175.3125,P03,D05,1,1,1
2189,-0.46,1644585175.328125,P03,D05,1,1,1
2190,0.02,1644585175.34375,P03,D05,1,1,1
2191,0.53,1644585175.359375,P03,D05,1,1,1
2192,0.91,1644585175.375,P03,D05,1,1,1
2193,1.02,1644585175.390625,P03,D05,1,1,1
2194,0.83,1644585175.40625,P03,D05,1,1,1
2195,0.44,1644585175.421875,P03,D05,1,1,1
2196,0.02,1644585175.4375,P03,D05,1,1,1
2197,-0.29,1644585175.453125,P03,D05,1,1,1
2198,-0.43,1644585175.46875,P03,D05,1,1,1
2199,-0.4,1644585175.484375,P03,D05,1,1,1
2200,-0.31,1644585175.5,P03,D05,1,1,1
2201,-0.24,1644585175.515625,P03,D05,1,1,1
2202,-0.27,1644585175.53125,P03,D05,1,1,1
2203,-0.37,1644585175.546875,P03,D05,1,1,1
2204,-0.51,1644585175.5625,P03,D05,1,1,1
2205,-0.59,1644585175.578125,P03,D05,1,1,1
2206,-0.57,1644585175.59375,P03,D05,1,1,1
2207,-0.43,1644585175.609375,P03,D05,1,1,1
2208,-0.25,1644585175.625,P03,D05,1,1,1
2209,-0.14,1644585175.640625,P03,D05,1,1,1
2210,-0.16,1644585175.65625,P03,D05,1,1,1
2211,-0.34,1644585175.671875,P03,D05,1,1,1
2212,-0.6,1644585175.6875,P03,D05,1,1,1
2213,-0.83,1644585175.703125,P03,D05,1,1,1
2214,-0.89,1644585175.71875,P03,D05,1,1,1
2215,-0.75,1644585175.734375,P03,D05,1,1,1
2216,-0.45,1644585175.75,P03,D05,1,1,1
2217,-0.15,1644585175.765625,P03,D05,1,1,1
2218,0.02,1644585175.78125,P03,D05,1,1,1
2219,-0.04,1644585175.796875,P03,D05,1,1,1
2220,-0.28,1644585175.8125,P03,D05,1,1,1
2221,-0.58,1644585175.828125,P03,D05,1,1,1
2222,-0.81,1644585175.84375,P03,D05,1,1,1
2223,-0.85,1644585175.859375,P03,D05,1,1,1
2224,-0.69,1644585175.875,P03,D05,1,1,1
2225,-0.39,1644585175.890625,P03,D05,1,1,1
2226,-0.07,1644585175.90625,P03,D05,1,1,1
2227,0.16,1644585175.921875,P03,D05,1,1,1
2228,0.26,1644585175.9375,P03,D05,1,1,1
2229,0.23,1644585175.953125,P03,D05,1,1,1
2230,0.14,1644585175.96875,P03,D05,1,1,1
2231,0.07,1644585175.984375,P03,D05,1,1,1
2232,0.09,1644585176.0,P03,D05,1,1,1
2233,0.2,1644585176.015625,P03,D05,1,1,1
2234,0.38,1644585176.03125,P03,D05,1,1,1
2235,0.55,1644585176.046875,P03,D05,1,1,1
2236,0.64,1644585176.0625,P03,D05,1,1,1
2237,0.61,1644585176.078125,P03,D05,1,1,1
2238,0.46,1644585176.09375,P03,D05,1,1,1
2239,0.25,1644585176.109375,P03,D05,1,1,1
2240,0.02,1644585176.125,P03,D05,1,1,1
2241,-0.19,1644585176.140625,P03,D05,1,1,1
2242,-0.35,1644585176.15625,P03,D05,1,1,1
2243,-0.45,1644585176.171875,P03,D05,1,1,1
2244,-0.49,1644585176.1875,P03,D05,1,1,1
2245,-0.42,1644585176.203125,P03,D05,1,1,1
2246,-0.23,1644585176.21875,P03,D05,1,1,1
2247,0.1,1644585176.234375,P03,D05,1,1,1
2248,0.5,1644585176.25,P03,D05,1,1,1
2249,0.89,1644585176.265625,P03,D05,1,1,1
2250,1.14,1644585176.28125,P03,D05,1,1,1
2251,1.17,1644585176.296875,P03,D05,1,1,1
2252,0.95,1644585176.3125,P03,D05,1,1,1
2253,0.54,1644585176.328125,P03,D05,1,1,1
2254,0.06,1644585176.34375,P03,D05,1,1,1
2255,-0.38,1644585176.359375,P03,D05,1,1,1
2256,-0.67,1644585176.375,P03,D05,1,1,1
2257,-0.77,1644585176.390625,P03,D05,1,1,1
2258,-0.69,1644585176.40625,P03,D05,1,1,1
2259,-0.48,1644585176.421875,P03,D05,1,1,1
2260,-0.21,1644585176.4375,P03,D05,1,1,1
2261,0.03,1644585176.453125,P03,D05,1,1,1
2262,0.19,1644585176.46875,P03,D05,1,1,1
2263,0.24,1644585176.484375,P03,D05,1,1,1
2264,0.21,1644585176.5,P03,D05,1,1,1
2265,0.16,1644585176.515625,P03,D05,1,1,1
2266,0.13,1644585176.53125,P03,D05,1,1,1
2267,0.15,1644585176.546875,P03,D05,1,1,1
2268,0.21,1644585176.5625,P03,D05,1,1,1
2269,0.29,1644585176.578125,P03,D05,1,1,1
2270,0.37,1644585176.59375,P03,D05,1,1,1
2271,0.44,1644585176.609375,P03,D05,1,1,1
2272,0.49,1644585176.625,P03,D05,1,1,1
2273,0.52,1644585176.640625,P03,D05,1,1,1
2274,0.5,1644585176.65625,P03,D05,1,1,1
2275,0.41,1644585176.671875,P03,D05,1,1,1
2276,0.26,1644585176.6875,P03,D05,1,1,1
2277,0.07,1644585176.703125,P03,D05,1,1,1
2278,-0.09,1644585176.71875,P03,D05,1,1,1
2279,-0.18,1644585176.734375,P03,D05,1,1,1
2280,-0.18,1644585176.75,P03,D05,1,1,1
2281,-0.1,1644585176.765625,P03,D05,1,1,1
2282,0.05,1644585176.78125,P03,D05,1,1,1
2283,0.23,1644585176.796875,P03,D05,1,1,1
2284,0.42,1644585176.8125,P03,D05,1,1,1
2285,0.58,1644585176.828125,P03,D05,1,1,1
2286,0.66,1644585176.84375,P03,D05,1,1,1
2287,0.64,1644585176.859375,P03,D05,1,1,1
2288,0.52,1644585176.875,P03,D05,1,1,1
2289,0.32,1644585176.890625,P03,D05,1,1,1
2290,0.12,1644585176.90625,P03,D05,1,1,1
2291,-0.04,1644585176.921875,P03,D05,1,1,1
2292,-0.11,1644585176.9375,P03,D05,1,1,1
2293,-0.12,1644585176.953125,P03,D05,1,1,1
2294,-0.1,1644585176.96875,P03,D05,1,1,1
2295,-0.1,1644585176.984375,P03,D05,1,1,1
2296,-0.14,1644585177.0,P03,D05,1,1,1
2297,-0.21,1644585177.015625,P03,D05,1,1,1
2298,-0.25,1644585177.03125,P03,D05,1,1,1
2299,-0.22,1644585177.046875,P03,D05,1,1,1
2300,-0.1,1644585177.0625,P03,D05,1,1,1
2301,0.09,1644585177.078125,P03,D05,1,1,1
2302,0.27,1644585177.09375,P03,D05,1,1,1
2303,0.33,1644585177.109375,P03,D05,1,1,1
2304,0.17,1644585177.125,P03,D05,1,1,1
2305,-0.21,1644585177.140625,P03,D05,1,1,1
2306,-0.71,1644585177.15625,P03,D05,1,1,1
2307,-1.21,1644585177.171875,P03,D05,1,1,1
2308,-1.55,1644585177.1875,P03,D05,1,1,1
2309,-1.66,1644585177.203125,P03,D05,1,1,1
2310,-1.53,1644585177.21875,P03,D05,1,1,1
2311,-1.23,1644585177.234375,P03,D05,1,1,1
2312,-0.86,1644585177.25,P03,D05,1,1,1
2313,-0.5,1644585177.265625,P03,D05,1,1,1
2314,-0.18,1644585177.28125,P03,D05,1,1,1
2315,0.07,1644585177.296875,P03,D05,1,1,1
2316,0.27,1644585177.3125,P03,D05,1,1,1
2317,0.39,1644585177.328125,P03,D05,1,1,1
2318,0.41,1644585177.34375,P03,D05,1,1,1
2319,0.32,1644585177.359375,P03,D05,1,1,1
2320,0.19,1644585177.375,P03,D05,1,1,1
2321,0.1,1644585177.390625,P03,D05,1,1,1
2322,0.17,1644585177.40625,P03,D05,1,1,1
2323,0.41,1644585177.421875,P03,D05,1,1,1
2324,0.76,1644585177.4375,P03,D05,1,1,1
2325,1.08,1644585177.453125,P03,D05,1,1,1
2326,1.22,1644585177.46875,P03,D05,1,1,1
2327,1.11,1644585177.484375,P03,D05,1,1,1
2328,0.76,1644585177.5,P03,D05,1,1,1
2329,0.3,1644585177.515625,P03,D05,1,1,1
2330,-0.11,1644585177.53125,P03,D05,1,1,1
2331,-0.35,1644585177.546875,P03,D05,1,1,1
2332,-0.4,1644585177.5625,P03,D05,1,1,1
2333,-0.31,1644585177.578125,P03,D05,1,1,1
2334,-0.2,1644585177.59375,P03,D05,1,1,1
2335,-0.18,1644585177.609375,P03,D05,1,1,1
2336,-0.3,1644585177.625,P03,D05,1,1,1
2337,-0.49,1644585177.640625,P03,D05,1,1,1
2338,-0.66,1644585177.65625,P03,D05,1,1,1
2339,-0.66,1644585177.671875,P03,D05,1,1,1
2340,-0.44,1644585177.6875,P03,D05,1,1,1
2341,-0.0,1644585177.703125,P03,D05,1,1,1
2342,0.55,1644585177.71875,P03,D05,1,1,1
2343,1.07,1644585177.734375,P03,D05,1,1,1
2344,1.43,1644585177.75,P03,D05,1,1,1
2345,1.52,1644585177.765625,P03,D05,1,1,1
2346,1.35,1644585177.78125,P03,D05,1,1,1
2347,0.95,1644585177.796875,P03,D05,1,1,1
2348,0.42,1644585177.8125,P03,D05,1,1,1
2349,-0.11,1644585177.828125,P03,D05,1,1,1
2350,-0.51,1644585177.84375,P03,D05,1,1,1
2351,-0.68,1644585177.859375,P03,D05,1,1,1
2352,-0.58,1644585177.875,P03,D05,1,1,1
2353,-0.27,1644585177.890625,P03,D05,1,1,1
2354,0.13,1644585177.90625,P03,D05,1,1,1
2355,0.43,1644585177.921875,P03,D05,1,1,1
2356,0.52,1644585177.9375,P03,D05,1,1,1
2357,0.34,1644585177.953125,P03,D05,1,1,1
2358,-0.04,1644585177.96875,P03,D05,1,1,1
2359,-0.52,1644585177.984375,P03,D05,1,1,1
2360,-0.94,1644585178.0,P03,D05,1,1,1
2361,-1.21,1644585178.015625,P03,D05,1,1,1
2362,-1.28,1644585178.03125,P03,D05,1,1,1
2363,-1.2,1644585178.046875,P03,D05,1,1,1
2364,-1.03,1644585178.0625,P03,D05,1,1,1
2365,-0.86,1644585178.078125,P03,D05,1,1,1
2366,-0.75,1644585178.09375,P03,D05,1,1,1
2367,-0.68,1644585178.109375,P03,D05,1,1,1
2368,-0.62,1644585178.125,P03,D05,1,1,1
2369,-0.49,1644585178.140625,P03,D05,1,1,1
2370,-0.24,1644585178.15625,P03,D05,1,1,1
2371,0.08,1644585178.171875,P03,D05,1,1,1
2372,0.4,1644585178.1875,P03,D05,1,1,1
2373,0.61,1644585178.203125,P03,D05,1,1,1
2374,0.64,1644585178.21875,P03,D05,1,1,1
2375,0.52,1644585178.234375,P03,D05,1,1,1
2376,0.37,1644585178.25,P03,D05,1,1,1
2377,0.3,1644585178.265625,P03,D05,1,1,1
2378,0.39,1644585178.28125,P03,D05,1,1,1
2379,0.59,1644585178.296875,P03,D05,1,1,1
2380,0.83,1644585178.3125,P03,D05,1,1,1
2381,1.0,1644585178.328125,P03,D05,1,1,1
2382,1.05,1644585178.34375,P03,D05,1,1,1
2383,1.0,1644585178.359375,P03,D05,1,1,1
2384,0.89,1644585178.375,P03,D05,1,1,1
2385,0.81,1644585178.390625,P03,D05,1,1,1
2386,0.79,1644585178.40625,P03,D05,1,1,1
2387,0.83,1644585178.421875,P03,D05,1,1,1
2388,0.91,1644585178.4375,P03,D05,1,1,1
2389,0.97,1644585178.453125,P03,D05,1,1,1
2390,0.98,1644585178.46875,P03,D05,1,1,1
2391,0.9,1644585178.484375,P03,D05,1,1,1
2392,0.72,1644585178.5,P03,D05,1,1,1
2393,0.49,1644585178.515625,P03,D05,1,1,1
2394,0.28,1644585178.53125,P03,D05,1,1,1
2395,0.17,1644585178.546875,P03,D05,1,1,1
2396,0.21,1644585178.5625,P03,D05,1,1,1
2397,0.36,1644585178.578125,P03,D05,1,1,1
2398,0.53,1644585178.59375,P03,D05,1,1,1
2399,0.63,1644585178.609375,P03,D05,1,1,1
2400,0.59,1644585178.625,P03,D05,1,1,1
2401,0.39,1644585178.640625,P03,D05,1,1,1
2402,0.1,1644585178.65625,P03,D05,1,1,1
2403,-0.2,1644585178.671875,P03,D05,1,1,1
2404,-0.47,1644585178.6875,P03,D05,1,1,1
2405,-0.68,1644585178.703125,P03,D05,1,1,1
2406,-0.83,1644585178.71875,P03,D05,1,1,1
2407,-0.91,1644585178.734375,P03,D05,1,1,1
2408,-0.92,1644585178.75,P03,D05,1,1,1
2409,-0.83,1644585178.765625,P03,D05,1,1,1
2410,-0.65,1644585178.78125,P03,D05,1,1,1
2411,-0.43,1644585178.796875,P03,D05,1,1,1
2412,-0.22,1644585178.8125,P03,D05,1,1,1
2413,-0.07,1644585178.828125,P03,D05,1,1,1
2414,-0.01,1644585178.84375,P03,D05,1,1,1
2415,-0.03,1644585178.859375,P03,D05,1,1,1
2416,-0.09,1644585178.875,P03,D05,1,1,1
2417,-0.17,1644585178.890625,P03,D05,1,1,1
2418,-0.26,1644585178.90625,P03,D05,1,1,1
2419,-0.36,1644585178.921875,P03,D05,1,1,1
2420,-0.48,1644585178.9375,P03,D05,1,1,1
2421,-0.59,1644585178.953125,P03,D05,1,1,1
2422,-0.67,1644585178.96875,P03,D05,1,1,1
2423,-0.66,1644585178.984375,P03,D05,1,1,1
2424,-0.56,1644585179.0,P03,D05,1,1,1
2425,-0.37,1644585179.015625,P03,D05,1,1,1
2426,-0.12,1644585179.03125,P03,D05,1,1,1
2427,0.15,1644585179.046875,P03,D05,1,1,1
2428,0.4,1644585179.0625,P03,D05,1,1,1
2429,0.61,1644585179.078125,P03,D05,1,1,1
2430,0.73,1644585179.09375,P03,D05,1,1,1
2431,0.7,1644585179.109375,P03,D05,1,1,1
2432,0.51,1644585179.125,P03,D05,1,1,1
2433,0.14,1644585179.140625,P03,D05,1,1,1
2434,-0.32,1644585179.15625,P03,D05,1,1,1
2435,-0.76,1644585179.171875,P03,D05,1,1,1
2436,-1.05,1644585179.1875,P03,D05,1,1,1
2437,-1.14,1644585179.203125,P03,D05,1,1,1
2438,-1.02,1644585179.21875,P03,D05,1,1,1
2439,-0.79,1644585179.234375,P03,D05,1,1,1
2440,-0.55,1644585179.25,P03,D05,1,1,1
2441,-0.43,1644585179.265625,P03,D05,1,1,1
2442,-0.44,1644585179.28125,P03,D05,1,1,1
2443,-0.57,1644585179.296875,P03,D05,1,1,1
2444,-0.74,1644585179.3125,P03,D05,1,1,1
2445,-0.9,1644585179.328125,P03,D05,1,1,1
2446,-1.03,1644585179.34375,P03,D05,1,1,1
2447,-1.11,1644585179.359375,P03,D05,1,1,1
2448,-1.15,1644585179.375,P03,D05,1,1,1
2449,-1.09,1644585179.390625,P03,D05,1,1,1
2450,-0.9,1644585179.40625,P03,D05,1,1,1
2451,-0.56,1644585179.421875,P03,D05,1,1,1
2452,-0.1,1644585179.4375,P03,D05,1,1,1
2453,0.39,1644585179.453125,P03,D05,1,1,1
2454,0.79,1644585179.46875,P03,D05,1,1,1
2455,1.06,1644585179.484375,P03,D05,1,1,1
2456,1.19,1644585179.5,P03,D05,1,1,1
2457,1.23,1644585179.515625,P03,D05,1,1,1
2458,1.26,1644585179.53125,P03,D05,1,1,1
2459,1.28,1644585179.546875,P03,D05,1,1,1
2460,1.27,1644585179.5625,P03,D05,1,1,1
2461,1.19,1644585179.578125,P03,D05,1,1,1
2462,1.06,1644585179.59375,P03,D05,1,1,1
2463,0.89,1644585179.609375,P03,D05,1,1,1
2464,0.76,1644585179.625,P03,D05,1,1,1
2465,0.67,1644585179.640625,P03,D05,1,1,1
2466,0.57,1644585179.65625,P03,D05,1,1,1
2467,0.42,1644585179.671875,P03,D05,1,1,1
2468,0.18,1644585179.6875,P03,D05,1,1,1
2469,-0.09,1644585179.703125,P03,D05,1,1,1
2470,-0.3,1644585179.71875,P03,D05,1,1,1
2471,-0.37,1644585179.734375,P03,D05,1,1,1
2472,-0.3,1644585179.75,P03,D05,1,1,1
2473,-0.21,1644585179.765625,P03,D05,1,1,1
2474,-0.2,1644585179.78125,P03,D05,1,1,1
2475,-0.37,1644585179.796875,P03,D05,1,1,1
2476,-0.7,1644585179.8125,P03,D05,1,1,1
2477,-1.05,1644585179.828125,P03,D05,1,1,1
2478,-1.29,1644585179.84375,P03,D05,1,1,1
2479,-1.27,1644585179.859375,P03,D05,1,1,1
2480,-1.01,1644585179.875,P03,D05,1,1,1
2481,-0.56,1644585179.890625,P03,D05,1,1,1
2482,-0.05,1644585179.90625,P03,D05,1,1,1
2483,0.37,1644585179.921875,P03,D05,1,1,1
2484,0.63,1644585179.9375,P03,D05,1,1,1
2485,0.71,1644585179.953125,P03,D05,1,1,1
2486,0.63,1644585179.96875,P03,D05,1,1,1
2487,0.42,1644585179.984375,P03,D05,1,1,1
2488,0.11,1644585180.0,P03,D05,1,1,1
2489,-0.24,1644585180.015625,P03,D05,1,1,1
2490,-0.57,1644585180.03125,P03,D05,1,1,1
2491,-0.78,1644585180.046875,P03,D05,1,1,1
2492,-0.78,1644585180.0625,P03,D05,1,1,1
2493,-0.54,1644585180.078125,P03,D05,1,1,1
2494,-0.13,1644585180.09375,P03,D05,1,1,1
2495,0.32,1644585180.109375,P03,D05,1,1,1
2496,0.64,1644585180.125,P03,D05,1,1,1
2497,0.72,1644585180.140625,P03,D05,1,1,1
2498,0.58,1644585180.15625,P03,D05,1,1,1
2499,0.32,1644585180.171875,P03,D05,1,1,1
2500,0.06,1644585180.1875,P03,D05,1,1,1
2501,-0.12,1644585180.203125,P03,D05,1,1,1
2502,-0.21,1644585180.21875,P03,D05,1,1,1
2503,-0.24,1644585180.234375,P03,D05,1,1,1
2504,-0.24,1644585180.25,P03,D05,1,1,1
2505,-0.19,1644585180.265625,P03,D05,1,1,1
2506,-0.03,1644585180.28125,P03,D05,1,1,1
2507,0.26,1644585180.296875,P03,D05,1,1,1
2508,0.64,1644585180.3125,P03,D05,1,1,1
2509,0.97,1644585180.328125,P03,D05,1,1,1
2510,1.1,1644585180.34375,P03,D05,1,1,1
2511,0.96,1644585180.359375,P03,D05,1,1,1
2512,0.59,1644585180.375,P03,D05,1,1,1
2513,0.15,1644585180.390625,P03,D05,1,1,1
2514,-0.16,1644585180.40625,P03,D05,1,1,1
2515,-0.22,1644585180.421875,P03,D05,1,1,1
2516,-0.03,1644585180.4375,P03,D05,1,1,1
2517,0.28,1644585180.453125,P03,D05,1,1,1
2518,0.56,1644585180.46875,P03,D05,1,1,1
2519,0.65,1644585180.484375,P03,D05,1,1,1
2520,0.5,1644585180.5,P03,D05,1,1,1
2521,0.15,1644585180.515625,P03,D05,1,1,1
2522,-0.27,1644585180.53125,P03,D05,1,1,1
2523,-0.63,1644585180.546875,P03,D05,1,1,1
2524,-0.83,1644585180.5625,P03,D05,1,1,1
2525,-0.86,1644585180.578125,P03,D05,1,1,1
2526,-0.75,1644585180.59375,P03,D05,1,1,1
2527,-0.58,1644585180.609375,P03,D05,1,1,1
2528,-0.47,1644585180.625,P03,D05,1,1,1
2529,-0.45,1644585180.640625,P03,D05,1,1,1
2530,-0.52,1644585180.65625,P03,D05,1,1,1
2531,-0.65,1644585180.671875,P03,D05,1,1,1
2532,-0.77,1644585180.6875,P03,D05,1,1,1
2533,-0.86,1644585180.703125,P03,D05,1,1,1
2534,-0.9,1644585180.71875,P03,D05,1,1,1
2535,-0.89,1644585180.734375,P03,D05,1,1,1
2536,-0.82,1644585180.75,P03,D05,1,1,1
2537,-0.65,1644585180.765625,P03,D05,1,1,1
2538,-0.39,1644585180.78125,P03,D05,1,1,1
2539,-0.07,1644585180.796875,P03,D05,1,1,1
2540,0.22,1644585180.8125,P03,D05,1,1,1
2541,0.36,1644585180.828125,P03,D05,1,1,1
2542,0.32,1644585180.84375,P03,D05,1,1,1
2543,0.11,1644585180.859375,P03,D05,1,1,1
2544,-0.15,1644585180.875,P03,D05,1,1,1
2545,-0.34,1644585180.890625,P03,D05,1,1,1
2546,-0.33,1644585180.90625,P03,D05,1,1,1
2547,-0.12,1644585180.921875,P03,D05,1,1,1
2548,0.22,1644585180.9375,P03,D05,1,1,1
2549,0.58,1644585180.953125,P03,D05,1,1,1
2550,0.83,1644585180.96875,P03,D05,1,1,1
2551,0.89,1644585180.984375,P03,D05,1,1,1
2552,0.72,1644585181.0,P03,D05,1,1,1
2553,0.36,1644585181.015625,P03,D05,1,1,1
2554,-0.09,1644585181.03125,P03,D05,1,1,1
2555,-0.49,1644585181.046875,P03,D05,1,1,1
2556,-0.69,1644585181.0625,P03,D05,1,1,1
2557,-0.62,1644585181.078125,P03,D05,1,1,1
2558,-0.31,1644585181.09375,P03,D05,1,1,1
2559,0.12,1644585181.109375,P03,D05,1,1,1
2560,0.49,1644585181.125,P03,D05,1,1,1
2561,0.66,1644585181.140625,P03,D05,1,1,1
2562,0.61,1644585181.15625,P03,D05,1,1,1
2563,0.41,1644585181.171875,P03,D05,1,1,1
2564,0.19,1644585181.1875,P03,D05,1,1,1
2565,0.04,1644585181.203125,P03,D05,1,1,1
2566,-0.03,1644585181.21875,P03,D05,1,1,1
2567,-0.07,1644585181.234375,P03,D05,1,1,1
2568,-0.1,1644585181.25,P03,D05,1,1,1
2569,-0.11,1644585181.265625,P03,D05,1,1,1
2570,-0.07,1644585181.28125,P03,D05,1,1,1
2571,0.06,1644585181.296875,P03,D05,1,1,1
2572,0.24,1644585181.3125,P03,D05,1,1,1
2573,0.36,1644585181.328125,P03,D05,1,1,1
2574,0.29,1644585181.34375,P03,D05,1,1,1
2575,-0.04,1644585181.359375,P03,D05,1,1,1
2576,-0.58,1644585181.375,P03,D05,1,1,1
2577,-1.17,1644585181.390625,P03,D05,1,1,1
2578,-1.61,1644585181.40625,P03,D05,1,1,1
2579,-1.69,1644585181.421875,P03,D05,1,1,1
2580,-1.34,1644585181.4375,P03,D05,1,1,1
2581,-0.64,1644585181.453125,P03,D05,1,1,1
2582,0.15,1644585181.46875,P03,D05,1,1,1
2583,0.78,1644585181.484375,P03,D05,1,1,1
2584,1.03,1644585181.5,P03,D05,1,1,1
2585,0.87,1644585181.515625,P03,D05,1,1,1
2586,0.44,1644585181.53125,P03,D05,1,1,1
2587,0.0,1644585181.546875,P03,D05,1,1,1
2588,-0.23,1644585181.5625,P03,D05,1,1,1
2589,-0.18,1644585181.578125,P03,D05,1,1,1
2590,0.02,1644585181.59375,P03,D05,1,1,1
2591,0.19,1644585181.609375,P03,D05,1,1,1
2592,0.17,1644585181.625,P03,D05,1,1,1
2593,-0.09,1644585181.640625,P03,D05,1,1,1
2594,-0.43,1644585181.65625,P03,D05,1,1,1
2595,-0.69,1644585181.671875,P03,D05,1,1,1
2596,-0.77,1644585181.6875,P03,D05,1,1,1
2597,-0.67,1644585181.703125,P03,D05,1,1,1
2598,-0.46,1644585181.71875,P03,D05,1,1,1
2599,-0.24,1644585181.734375,P03,D05,1,1,1
2600,-0.02,1644585181.75,P03,D05,1,1,1
2601,0.25,1644585181.765625,P03,D05,1,1,1
2602,0.56,1644585181.78125,P03,D05,1,1,1
2603,0.85,1644585181.796875,P03,D05,1,1,1
2604,1.0,1644585181.8125,P03,D05,1,1,1
2605,0.9,1644585181.828125,P03,D05,1,1,1
2606,0.54,1644585181.84375,P03,D05,1,1,1
2607,0.04,1644585181.859375,P03,D05,1,1,1
2608,-0.41,1644585181.875,P03,D05,1,1,1
2609,-0.66,1644585181.890625,P03,D05,1,1,1
2610,-0.65,1644585181.90625,P03,D05,1,1,1
2611,-0.44,1644585181.921875,P03,D05,1,1,1
2612,-0.12,1644585181.9375,P03,D05,1,1,1
2613,0.2,1644585181.953125,P03,D05,1,1,1
2614,0.51,1644585181.96875,P03,D05,1,1,1
2615,0.78,1644585181.984375,P03,D05,1,1,1
2616,0.98,1644585182.0,P03,D05,1,1,1
2617,1.08,1644585182.015625,P03,D05,1,1,1
2618,1.01,1644585182.03125,P03,D05,1,1,1
2619,0.75,1644585182.046875,P03,D05,1,1,1
2620,0.35,1644585182.0625,P03,D05,1,1,1
2621,-0.08,1644585182.078125,P03,D05,1,1,1
2622,-0.46,1644585182.09375,P03,D05,1,1,1
2623,-0.72,1644585182.109375,P03,D05,1,1,1
2624,-0.86,1644585182.125,P03,D05,1,1,1
2625,-0.87,1644585182.140625,P03,D05,1,1,1
2626,-0.78,1644585182.15625,P03,D05,1,1,1
2627,-0.6,1644585182.171875,P03,D05,1,1,1
2628,-0.36,1644585182.1875,P03,D05,1,1,1
2629,-0.12,1644585182.203125,P03,D05,1,1,1
2630,0.05,1644585182.21875,P03,D05,1,1,1
2631,0.07,1644585182.234375,P03,D05,1,1,1
2632,-0.04,1644585182.25,P03,D05,1,1,1
2633,-0.24,1644585182.265625,P03,D05,1,1,1
2634,-0.46,1644585182.28125,P03,D05,1,1,1
2635,-0.61,1644585182.296875,P03,D05,1,1,1
2636,-0.68,1644585182.3125,P03,D05,1,1,1
2637,-0.68,1644585182.328125,P03,D05,1,1,1
2638,-0.65,1644585182.34375,P03,D05,1,1,1
2639,-0.61,1644585182.359375,P03,D05,1,1,1
2640,-0.54,1644585182.375,P03,D05,1,1,1
2641,-0.39,1644585182.390625,P03,D05,1,1,1
2642,-0.17,1644585182.40625,P03,D05,1,1,1
2643,0.09,1644585182.421875,P03,D05,1,1,1
2644,0.34,1644585182.4375,P03,D05,1,1,1
2645,0.5,1644585182.453125,P03,D05,1,1,1
2646,0.54,1644585182.46875,P03,D05,1,1,1
2647,0.48,1644585182.484375,P03,D05,1,1,1
2648,0.37,1644585182.5,P03,D05,1,1,1
2649,0.26,1644585182.515625,P03,D05,1,1,1
2650,0.16,1644585182.53125,P03,D05,1,1,1
2651,0.08,1644585182.546875,P03,D05,1,1,1
2652,0.05,1644585182.5625,P03,D05,1,1,1
2653,0.09,1644585182.578125,P03,D05,1,1,1
2654,0.21,1644585182.59375,P03,D05,1,1,1
2655,0.38,1644585182.609375,P03,D05,1,1,1
2656,0.53,1644585182.625,P03,D05,1,1,1
2657,0.55,1644585182.640625,P03,D05,1,1,1
2658,0.39,1644585182.65625,P03,D05,1,1,1
2659,0.09,1644585182.671875,P03,D05,1,1,1
2660,-0.24,1644585182.6875,P03,D05,1,1,1
2661,-0.45,1644585182.703125,P03,D05,1,1,1
2662,-0.44,1644585182.71875,P03,D05,1,1,1
2663,-0.25,1644585182.734375,P03,D05,1,1,1
2664,-0.0,1644585182.75,P03,D05,1,1,1
2665,0.14,1644585182.765625,P03,D05,1,1,1
2666,0.08,1644585182.78125,P03,D05,1,1,1
2667,-0.14,1644585182.796875,P03,D05,1,1,1
2668,-0.4,1644585182.8125,P03,D05,1,1,1
2669,-0.55,1644585182.828125,P03,D05,1,1,1
2670,-0.51,1644585182.84375,P03,D05,1,1,1
2671,-0.32,1644585182.859375,P03,D05,1,1,1
2672,-0.11,1644585182.875,P03,D05,1,1,1
2673,-0.04,1644585182.890625,P03,D05,1,1,1
2674,-0.16,1644585182.90625,P03,D05,1,1,1
2675,-0.41,1644585182.921875,P03,D05,1,1,1
2676,-0.66,1644585182.9375,P03,D05,1,1,1
2677,-0.74,1644585182.953125,P03,D05,1,1,1
2678,-0.58,1644585182.96875,P03,D05,1,1,1
2679,-0.22,1644585182.984375,P03,D05,1,1,1
2680,0.19,1644585183.0,P03,D05,1,1,1
2681,0.51,1644585183.015625,P03,D05,1,1,1
2682,0.64,1644585183.03125,P03,D05,1,1,1
2683,0.61,1644585183.046875,P03,D05,1,1,1
2684,0.5,1644585183.0625,P03,D05,1,1,1
2685,0.42,1644585183.078125,P03,D05,1,1,1
2686,0.42,1644585183.09375,P03,D05,1,1,1
2687,0.49,1644585183.109375,P03,D05,1,1,1
2688,0.6,1644585183.125,P03,D05,1,1,1
2689,0.7,1644585183.140625,P03,D05,1,1,1
2690,0.79,1644585183.15625,P03,D05,1,1,1
2691,0.87,1644585183.171875,P03,D05,1,1,1
2692,0.94,1644585183.1875,P03,D05,1,1,1
2693,0.96,1644585183.203125,P03,D05,1,1,1
2694,0.88,1644585183.21875,P03,D05,1,1,1
2695,0.65,1644585183.234375,P03,D05,1,1,1
2696,0.32,1644585183.25,P03,D05,1,1,1
2697,-0.06,1644585183.265625,P03,D05,1,1,1
2698,-0.36,1644585183.28125,P03,D05,1,1,1
2699,-0.5,1644585183.296875,P03,D05,1,1,1
2700,-0.45,1644585183.3125,P03,D05,1,1,1
2701,-0.24,1644585183.328125,P03,D05,1,1,1
2702,0.08,1644585183.34375,P03,D05,1,1,1
2703,0.4,1644585183.359375,P03,D05,1,1,1
2704,0.67,1644585183.375,P03,D05,1,1,1
2705,0.85,1644585183.390625,P03,D05,1,1,1
2706,0.91,1644585183.40625,P03,D05,1,1,1
2707,0.85,1644585183.421875,P03,D05,1,1,1
2708,0.71,1644585183.4375,P03,D05,1,1,1
2709,0.52,1644585183.453125,P03,D05,1,1,1
2710,0.32,1644585183.46875,P03,D05,1,1,1
2711,0.14,1644585183.484375,P03,D05,1,1,1
2712,-0.02,1644585183.5,P03,D05,1,1,1
2713,-0.2,1644585183.515625,P03,D05,1,1,1
2714,-0.42,1644585183.53125,P03,D05,1,1,1
2715,-0.68,1644585183.546875,P03,D05,1,1,1
2716,-0.94,1644585183.5625,P03,D05,1,1,1
2717,-1.12,1644585183.578125,P03,D05,1,1,1
2718,-1.18,1644585183.59375,P03,D05,1,1,1
2719,-1.1,1644585183.609375,P03,D05,1,1,1
2720,-0.93,1644585183.625,P03,D05,1,1,1
2721,-0.74,1644585183.640625,P03,D05,1,1,1
2722,-0.58,1644585183.65625,P03,D05,1,1,1
2723,-0.45,1644585183.671875,P03,D05,1,1,1
2724,-0.34,1644585183.6875,P03,D05,1,1,1
2725,-0.22,1644585183.703125,P03,D05,1,1,1
2726,-0.11,1644585183.71875,P03,D05,1,1,1
2727,-0.04,1644585183.734375,P03,D05,1,1,1
2728,-0.07,1644585183.75,P03,D05,1,1,1
2729,-0.22,1644585183.765625,P03,D05,1,1,1
2730,-0.43,1644585183.78125,P03,D05,1,1,1
2731,-0.65,1644585183.796875,P03,D05,1,1,1
2732,-0.78,1644585183.8125,P03,D05,1,1,1
2733,-0.74,1644585183.828125,P03,D05,1,1,1
2734,-0.54,1644585183.84375,P03,D05,1,1,1
2735,-0.24,1644585183.859375,P03,D05,1,1,1
2736,0.08,1644585183.875,P03,D05,1,1,1
2737,0.33,1644585183.890625,P03,D05,1,1,1
2738,0.48,1644585183.90625,P03,D05,1,1,1
2739,0.52,1644585183.921875,P03,D05,1,1,1
2740,0.52,1644585183.9375,P03,D05,1,1,1
2741,0.53,1644585183.953125,P03,D05,1,1,1
2742,0.57,1644585183.96875,P03,D05,1,1,1
2743,0.65,1644585183.984375,P03,D05,1,1,1
2744,0.76,1644585184.0,P03,D05,1,1,1
2745,0.91,1644585184.015625,P03,D05,1,1,1
2746,1.13,1644585184.03125,P03,D05,1,1,1
2747,1.43,1644585184.046875,P03,D05,1,1,1
2748,1.76,1644585184.0625,P03,D05,1,1,1
2749,2.04,1644585184.078125,P03,D05,1,1,1
2750,2.12,1644585184.09375,P03,D05,1,1,1
2751,1.91,1644585184.109375,P03,D05,1,1,1
2752,1.45,1644585184.125,P03,D05,1,1,1
2753,0.85,1644585184.140625,P03,D05,1,1,1
2754,0.3,1644585184.15625,P03,D05,1,1,1
2755,-0.05,1644585184.171875,P03,D05,1,1,1
2756,-0.15,1644585184.1875,P03,D05,1,1,1
2757,-0.05,1644585184.203125,P03,D05,1,1,1
2758,0.11,1644585184.21875,P03,D05,1,1,1
2759,0.22,1644585184.234375,P03,D05,1,1,1
2760,0.24,1644585184.25,P03,D05,1,1,1
2761,0.17,1644585184.265625,P03,D05,1,1,1
2762,0.05,1644585184.28125,P03,D05,1,1,1
2763,-0.1,1644585184.296875,P03,D05,1,1,1
2764,-0.28,1644585184.3125,P03,D05,1,1,1
2765,-0.48,1644585184.328125,P03,D05,1,1,1
2766,-0.69,1644585184.34375,P03,D05,1,1,1
2767,-0.9,1644585184.359375,P03,D05,1,1,1
2768,-1.05,1644585184.375,P03,D05,1,1,1
2769,-1.13,1644585184.390625,P03,D05,1,1,1
2770,-1.15,1644585184.40625,P03,D05,1,1,1
2771,-1.11,1644585184.421875,P03,D05,1,1,1
2772,-1.05,1644585184.4375,P03,D05,1,1,1
2773,-0.96,1644585184.453125,P03,D05,1,1,1
2774,-0.84,1644585184.46875,P03,D05,1,1,1
2775,-0.72,1644585184.484375,P03,D05,1,1,1
2776,-0.61,1644585184.5,P03,D05,1,1,1
2777,-0.55,1644585184.515625,P03,D05,1,1,1
2778,-0.54,1644585184.53125,P03,D05,1,1,1
2779,-0.56,1644585184.546875,P03,D05,1,1,1
2780,-0.59,1644585184.5625,P03,D05,1,1,1
2781,-0.6,1644585184.578125,P03,D05,1,1,1
2782,-0.59,1644585184.59375,P03,D05,1,1,1
2783,-0.59,1644585184.609375,P03,D05,1,1,1
2784,-0.64,1644585184.625,P03,D05,1,1,1
2785,-0.72,1644585184.640625,P03,D05,1,1,1
2786,-0.8,1644585184.65625,P03,D05,1,1,1
2787,-0.83,1644585184.671875,P03,D05,1,1,1
2788,-0.77,1644585184.6875,P03,D05,1,1,1
2789,-0.59,1644585184.703125,P03,D05,1,1,1
2790,-0.29,1644585184.71875,P03,D05,1,1,1
2791,0.09,1644585184.734375,P03,D05,1,1,1
2792,0.49,1644585184.75,P03,D05,1,1,1
2793,0.84,1644585184.765625,P03,D05,1,1,1
2794,1.05,1644585184.78125,P03,D05,1,1,1
2795,1.07,1644585184.796875,P03,D05,1,1,1
2796,0.87,1644585184.8125,P03,D05,1,1,1
2797,0.53,1644585184.828125,P03,D05,1,1,1
2798,0.13,1644585184.84375,P03,D05,1,1,1
2799,-0.21,1644585184.859375,P03,D05,1,1,1
2800,-0.41,1644585184.875,P03,D05,1,1,1
2801,-0.46,1644585184.890625,P03,D05,1,1,1
2802,-0.38,1644585184.90625,P03,D05,1,1,1
2803,-0.22,1644585184.921875,P03,D05,1,1,1
2804,-0.03,1644585184.9375,P03,D05,1,1,1
2805,0.16,1644585184.953125,P03,D05,1,1,1
2806,0.33,1644585184.96875,P03,D05,1,1,1
2807,0.43,1644585184.984375,P03,D05,1,1,1
2808,0.47,1644585185.0,P03,D05,1,1,1
2809,0.46,1644585185.015625,P03,D05,1,1,1
2810,0.43,1644585185.03125,P03,D05,1,1,1
2811,0.41,1644585185.046875,P03,D05,1,1,1
2812,0.41,1644585185.0625,P03,D05,1,1,1
2813,0.38,1644585185.078125,P03,D05,1,1,1
2814,0.27,1644585185.09375,P03,D05,1,1,1
2815,0.07,1644585185.109375,P03,D05,1,1,1
2816,-0.12,1644585185.125,P03,D05,1,1,1
2817,-0.2,1644585185.140625,P03,D05,1,1,1
2818,-0.06,1644585185.15625,P03,D05,1,1,1
2819,0.27,1644585185.171875,P03,D05,1,1,1
2820,0.68,1644585185.1875,P03,D05,1,1,1
2821,0.99,1644585185.203125,P03,D05,1,1,1
2822,1.05,1644585185.21875,P03,D05,1,1,1
2823,0.86,1644585185.234375,P03,D05,1,1,1
2824,0.52,1644585185.25,P03,D05,1,1,1
2825,0.22,1644585185.265625,P03,D05,1,1,1
2826,0.07,1644585185.28125,P03,D05,1,1,1
2827,0.1,1644585185.296875,P03,D05,1,1,1
2828,0.26,1644585185.3125,P03,D05,1,1,1
2829,0.44,1644585185.328125,P03,D05,1,1,1
2830,0.53,1644585185.34375,P03,D05,1,1,1
2831,0.5,1644585185.359375,P03,D05,1,1,1
2832,0.35,1644585185.375,P03,D05,1,1,1
2833,0.1,1644585185.390625,P03,D05,1,1,1
2834,-0.16,1644585185.40625,P03,D05,1,1,1
2835,-0.4,1644585185.421875,P03,D05,1,1,1
2836,-0.58,1644585185.4375,P03,D05,1,1,1
2837,-0.66,1644585185.453125,P03,D05,1,1,1
2838,-0.65,1644585185.46875,P03,D05,1,1,1
2839,-0.53,1644585185.484375,P03,D05,1,1,1
2840,-0.32,1644585185.5,P03,D05,1,1,1
2841,-0.05,1644585185.515625,P03,D05,1,1,1
2842,0.2,1644585185.53125,P03,D05,1,1,1
2843,0.35,1644585185.546875,P03,D05,1,1,1
2844,0.34,1644585185.5625,P03,D05,1,1,1
2845,0.22,1644585185.578125,P03,D05,1,1,1
2846,0.06,1644585185.59375,P03,D05,1,1,1
2847,0.01,1644585185.609375,P03,D05,1,1,1
2848,0.12,1644585185.625,P03,D05,1,1,1
2849,0.35,1644585185.640625,P03,D05,1,1,1
2850,0.6,1644585185.65625,P03,D05,1,1,1
2851,0.73,1644585185.671875,P03,D05,1,1,1
2852,0.66,1644585185.6875,P03,D05,1,1,1
2853,0.45,1644585185.703125,P03,D05,1,1,1
2854,0.24,1644585185.71875,P03,D05,1,1,1
2855,0.16,1644585185.734375,P03,D05,1,1,1
2856,0.24,1644585185.75,P03,D05,1,1,1
2857,0.39,1644585185.765625,P03,D05,1,1,1
2858,0.45,1644585185.78125,P03,D05,1,1,1
2859,0.3,1644585185.796875,P03,D05,1,1,1
2860,-0.09,1644585185.8125,P03,D05,1,1,1
2861,-0.59,1644585185.828125,P03,D05,1,1,1
2862,-1.01,1644585185.84375,P03,D05,1,1,1
2863,-1.19,1644585185.859375,P03,D05,1,1,1
2864,-1.07,1644585185.875,P03,D05,1,1,1
2865,-0.73,1644585185.890625,P03,D05,1,1,1
2866,-0.33,1644585185.90625,P03,D05,1,1,1
2867,-0.01,1644585185.921875,P03,D05,1,1,1
2868,0.13,1644585185.9375,P03,D05,1,1,1
2869,0.08,1644585185.953125,P03,D05,1,1,1
2870,-0.12,1644585185.96875,P03,D05,1,1,1
2871,-0.39,1644585185.984375,P03,D05,1,1,1
2872,-0.66,1644585186.0,P03,D05,1,1,1
2873,-0.86,1644585186.015625,P03,D05,1,1,1
2874,-0.96,1644585186.03125,P03,D05,1,1,1
2875,-0.94,1644585186.046875,P03,D05,1,1,1
2876,-0.81,1644585186.0625,P03,D05,1,1,1
2877,-0.62,1644585186.078125,P03,D05,1,1,1
2878,-0.4,1644585186.09375,P03,D05,1,1,1
2879,-0.19,1644585186.109375,P03,D05,1,1,1
2880,0.01,1644585186.125,P03,D05,1,1,1
2881,0.21,1644585186.140625,P03,D05,1,1,1
2882,0.39,1644585186.15625,P03,D05,1,1,1
2883,0.52,1644585186.171875,P03,D05,1,1,1
2884,0.55,1644585186.1875,P03,D05,1,1,1
2885,0.47,1644585186.203125,P03,D05,1,1,1
2886,0.3,1644585186.21875,P03,D05,1,1,1
2887,0.12,1644585186.234375,P03,D05,1,1,1
2888,0.03,1644585186.25,P03,D05,1,1,1
2889,0.06,1644585186.265625,P03,D05,1,1,1
2890,0.19,1644585186.28125,P03,D05,1,1,1
2891,0.36,1644585186.296875,P03,D05,1,1,1
2892,0.45,1644585186.3125,P03,D05,1,1,1
2893,0.44,1644585186.328125,P03,D05,1,1,1
2894,0.34,1644585186.34375,P03,D05,1,1,1
2895,0.2,1644585186.359375,P03,D05,1,1,1
2896,0.08,1644585186.375,P03,D05,1,1,1
2897,0.02,1644585186.390625,P03,D05,1,1,1
2898,-0.01,1644585186.40625,P03,D05,1,1,1
2899,-0.03,1644585186.421875,P03,D05,1,1,1
2900,-0.05,1644585186.4375,P03,D05,1,1,1
2901,-0.04,1644585186.453125,P03,D05,1,1,1
2902,0.06,1644585186.46875,P03,D05,1,1,1
2903,0.3,1644585186.484375,P03,D05,1,1,1
2904,0.66,1644585186.5,P03,D05,1,1,1
2905,1.03,1644585186.515625,P03,D05,1,1,1
2906,1.27,1644585186.53125,P03,D05,1,1,1
2907,1.27,1644585186.546875,P03,D05,1,1,1
2908,1.01,1644585186.5625,P03,D05,1,1,1
2909,0.58,1644585186.578125,P03,D05,1,1,1
2910,0.15,1644585186.59375,P03,D05,1,1,1
2911,-0.14,1644585186.609375,P03,D05,1,1,1
2912,-0.23,1644585186.625,P03,D05,1,1,1
2913,-0.18,1644585186.640625,P03,D05,1,1,1
2914,-0.13,1644585186.65625,P03,D05,1,1,1
2915,-0.18,1644585186.671875,P03,D05,1,1,1
2916,-0.39,1644585186.6875,P03,D05,1,1,1
2917,-0.69,1644585186.703125,P03,D05,1,1,1
2918,-0.95,1644585186.71875,P03,D05,1,1,1
2919,-1.06,1644585186.734375,P03,D05,1,1,1
2920,-0.98,1644585186.75,P03,D05,1,1,1
2921,-0.7,1644585186.765625,P03,D05,1,1,1
