,data,timestamp,participant,document,val,arou,eng
0,-0.16,1644584709.734375,P03,D02,1,1,1
1,-0.08,1644584709.75,P03,D02,1,1,1
2,0.01,1644584709.765625,P03,D02,1,1,1
3,0.08,1644584709.78125,P03,D02,1,1,1
4,0.09,1644584709.796875,P03,D02,1,1,1
5,0.06,1644584709.8125,P03,D02,1,1,1
6,0.05,1644584709.828125,P03,D02,1,1,1
7,0.11,1644584709.84375,P03,D02,1,1,1
8,0.28,1644584709.859375,P03,D02,1,1,1
9,0.53,1644584709.875,P03,D02,1,1,1
10,0.8,1644584709.890625,P03,D02,1,1,1
11,1.0,1644584709.90625,P03,D02,1,1,1
12,1.04,1644584709.921875,P03,D02,1,1,1
13,0.86,1644584709.9375,P03,D02,1,1,1
14,0.47,1644584709.953125,P03,D02,1,1,1
15,-0.06,1644584709.96875,P03,D02,1,1,1
16,-0.6,1644584709.984375,P03,D02,1,1,1
17,-1.04,1644584710.0,P03,D02,1,1,1
18,-1.32,1644584710.015625,P03,D02,1,1,1
19,-1.45,1644584710.03125,P03,D02,1,1,1
20,-1.47,1644584710.046875,P03,D02,1,1,1
21,-1.44,1644584710.0625,P03,D02,1,1,1
22,-1.36,1644584710.078125,P03,D02,1,1,1
23,-1.21,1644584710.09375,P03,D02,1,1,1
24,-0.98,1644584710.109375,P03,D02,1,1,1
25,-0.68,1644584710.125,P03,D02,1,1,1
26,-0.38,1644584710.140625,P03,D02,1,1,1
27,-0.2,1644584710.15625,P03,D02,1,1,1
28,-0.17,1644584710.171875,P03,D02,1,1,1
29,-0.26,1644584710.1875,P03,D02,1,1,1
30,-0.31,1644584710.203125,P03,D02,1,1,1
31,-0.16,1644584710.21875,P03,D02,1,1,1
32,0.29,1644584710.234375,P03,D02,1,1,1
33,0.95,1644584710.25,P03,D02,1,1,1
34,1.64,1644584710.265625,P03,D02,1,1,1
35,2.1,1644584710.28125,P03,D02,1,1,1
36,2.2,1644584710.296875,P03,D02,1,1,1
37,1.94,1644584710.3125,P03,D02,1,1,1
38,1.49,1644584710.328125,P03,D02,1,1,1
39,1.03,1644584710.34375,P03,D02,1,1,1
40,0.68,1644584710.359375,P03,D02,1,1,1
41,0.45,1644584710.375,P03,D02,1,1,1
42,0.29,1644584710.390625,P03,D02,1,1,1
43,0.13,1644584710.40625,P03,D02,1,1,1
44,-0.03,1644584710.421875,P03,D02,1,1,1
45,-0.17,1644584710.4375,P03,D02,1,1,1
46,-0.21,1644584710.453125,P03,D02,1,1,1
47,-0.14,1644584710.46875,P03,D02,1,1,1
48,0.01,1644584710.484375,P03,D02,1,1,1
49,0.17,1644584710.5,P03,D02,1,1,1
50,0.28,1644584710.515625,P03,D02,1,1,1
51,0.33,1644584710.53125,P03,D02,1,1,1
52,0.33,1644584710.546875,P03,D02,1,1,1
53,0.29,1644584710.5625,P03,D02,1,1,1
54,0.23,1644584710.578125,P03,D02,1,1,1
55,0.13,1644584710.59375,P03,D02,1,1,1
56,-0.02,1644584710.609375,P03,D02,1,1,1
57,-0.2,1644584710.625,P03,D02,1,1,1
58,-0.39,1644584710.640625,P03,D02,1,1,1
59,-0.56,1644584710.65625,P03,D02,1,1,1
60,-0.64,1644584710.671875,P03,D02,1,1,1
61,-0.63,1644584710.6875,P03,D02,1,1,1
62,-0.49,1644584710.703125,P03,D02,1,1,1
63,-0.23,1644584710.71875,P03,D02,1,1,1
64,0.09,1644584710.734375,P03,D02,1,1,1
65,0.37,1644584710.75,P03,D02,1,1,1
66,0.5,1644584710.765625,P03,D02,1,1,1
67,0.43,1644584710.78125,P03,D02,1,1,1
68,0.16,1644584710.796875,P03,D02,1,1,1
69,-0.17,1644584710.8125,P03,D02,1,1,1
70,-0.41,1644584710.828125,P03,D02,1,1,1
71,-0.45,1644584710.84375,P03,D02,1,1,1
72,-0.3,1644584710.859375,P03,D02,1,1,1
73,-0.07,1644584710.875,P03,D02,1,1,1
74,0.08,1644584710.890625,P03,D02,1,1,1
75,0.03,1644584710.90625,P03,D02,1,1,1
76,-0.2,1644584710.921875,P03,D02,1,1,1
77,-0.5,1644584710.9375,P03,D02,1,1,1
78,-0.71,1644584710.953125,P03,D02,1,1,1
79,-0.76,1644584710.96875,P03,D02,1,1,1
80,-0.68,1644584710.984375,P03,D02,1,1,1
81,-0.57,1644584711.0,P03,D02,1,1,1
82,-0.54,1644584711.015625,P03,D02,1,1,1
83,-0.61,1644584711.03125,P03,D02,1,1,1
84,-0.71,1644584711.046875,P03,D02,1,1,1
85,-0.73,1644584711.0625,P03,D02,1,1,1
86,-0.61,1644584711.078125,P03,D02,1,1,1
87,-0.37,1644584711.09375,P03,D02,1,1,1
88,-0.12,1644584711.109375,P03,D02,1,1,1
89,0.03,1644584711.125,P03,D02,1,1,1
90,0.02,1644584711.140625,P03,D02,1,1,1
91,-0.15,1644584711.15625,P03,D02,1,1,1
92,-0.37,1644584711.171875,P03,D02,1,1,1
93,-0.56,1644584711.1875,P03,D02,1,1,1
94,-0.65,1644584711.203125,P03,D02,1,1,1
95,-0.64,1644584711.21875,P03,D02,1,1,1
96,-0.54,1644584711.234375,P03,D02,1,1,1
97,-0.4,1644584711.25,P03,D02,1,1,1
98,-0.23,1644584711.265625,P03,D02,1,1,1
99,-0.06,1644584711.28125,P03,D02,1,1,1
100,0.08,1644584711.296875,P03,D02,1,1,1
101,0.15,1644584711.3125,P03,D02,1,1,1
102,0.1,1644584711.328125,P03,D02,1,1,1
103,-0.07,1644584711.34375,P03,D02,1,1,1
104,-0.34,1644584711.359375,P03,D02,1,1,1
105,-0.6,1644584711.375,P03,D02,1,1,1
106,-0.73,1644584711.390625,P03,D02,1,1,1
107,-0.66,1644584711.40625,P03,D02,1,1,1
108,-0.41,1644584711.421875,P03,D02,1,1,1
109,-0.06,1644584711.4375,P03,D02,1,1,1
110,0.27,1644584711.453125,P03,D02,1,1,1
111,0.5,1644584711.46875,P03,D02,1,1,1
112,0.63,1644584711.484375,P03,D02,1,1,1
113,0.72,1644584711.5,P03,D02,1,1,1
114,0.86,1644584711.515625,P03,D02,1,1,1
115,1.1,1644584711.53125,P03,D02,1,1,1
116,1.38,1644584711.546875,P03,D02,1,1,1
117,1.61,1644584711.5625,P03,D02,1,1,1
118,1.7,1644584711.578125,P03,D02,1,1,1
119,1.61,1644584711.59375,P03,D02,1,1,1
120,1.39,1644584711.609375,P03,D02,1,1,1
121,1.1,1644584711.625,P03,D02,1,1,1
122,0.84,1644584711.640625,P03,D02,1,1,1
123,0.65,1644584711.65625,P03,D02,1,1,1
124,0.53,1644584711.671875,P03,D02,1,1,1
125,0.45,1644584711.6875,P03,D02,1,1,1
126,0.38,1644584711.703125,P03,D02,1,1,1
127,0.32,1644584711.71875,P03,D02,1,1,1
128,0.25,1644584711.734375,P03,D02,1,1,1
129,0.15,1644584711.75,P03,D02,1,1,1
130,0.05,1644584711.765625,P03,D02,1,1,1
131,-0.05,1644584711.78125,P03,D02,1,1,1
132,-0.15,1644584711.796875,P03,D02,1,1,1
133,-0.23,1644584711.8125,P03,D02,1,1,1
134,-0.31,1644584711.828125,P03,D02,1,1,1
135,-0.42,1644584711.84375,P03,D02,1,1,1
136,-0.57,1644584711.859375,P03,D02,1,1,1
137,-0.73,1644584711.875,P03,D02,1,1,1
138,-0.84,1644584711.890625,P03,D02,1,1,1
139,-0.86,1644584711.90625,P03,D02,1,1,1
140,-0.77,1644584711.921875,P03,D02,1,1,1
141,-0.64,1644584711.9375,P03,D02,1,1,1
142,-0.54,1644584711.953125,P03,D02,1,1,1
143,-0.57,1644584711.96875,P03,D02,1,1,1
144,-0.73,1644584711.984375,P03,D02,1,1,1
145,-0.92,1644584712.0,P03,D02,1,1,1
146,-1.01,1644584712.015625,P03,D02,1,1,1
147,-0.89,1644584712.03125,P03,D02,1,1,1
148,-0.57,1644584712.046875,P03,D02,1,1,1
149,-0.16,1644584712.0625,P03,D02,1,1,1
150,0.16,1644584712.078125,P03,D02,1,1,1
151,0.28,1644584712.09375,P03,D02,1,1,1
152,0.18,1644584712.109375,P03,D02,1,1,1
153,-0.04,1644584712.125,P03,D02,1,1,1
154,-0.2,1644584712.140625,P03,D02,1,1,1
155,-0.23,1644584712.15625,P03,D02,1,1,1
156,-0.1,1644584712.171875,P03,D02,1,1,1
157,0.06,1644584712.1875,P03,D02,1,1,1
158,0.15,1644584712.203125,P03,D02,1,1,1
159,0.1,1644584712.21875,P03,D02,1,1,1
160,-0.03,1644584712.234375,P03,D02,1,1,1
161,-0.13,1644584712.25,P03,D02,1,1,1
162,-0.08,1644584712.265625,P03,D02,1,1,1
163,0.13,1644584712.28125,P03,D02,1,1,1
164,0.43,1644584712.296875,P03,D02,1,1,1
165,0.69,1644584712.3125,P03,D02,1,1,1
166,0.82,1644584712.328125,P03,D02,1,1,1
167,0.78,1644584712.34375,P03,D02,1,1,1
168,0.6,1644584712.359375,P03,D02,1,1,1
169,0.35,1644584712.375,P03,D02,1,1,1
170,0.11,1644584712.390625,P03,D02,1,1,1
171,-0.06,1644584712.40625,P03,D02,1,1,1
172,-0.12,1644584712.421875,P03,D02,1,1,1
173,-0.08,1644584712.4375,P03,D02,1,1,1
174,0.04,1644584712.453125,P03,D02,1,1,1
175,0.2,1644584712.46875,P03,D02,1,1,1
176,0.32,1644584712.484375,P03,D02,1,1,1
177,0.33,1644584712.5,P03,D02,1,1,1
178,0.2,1644584712.515625,P03,D02,1,1,1
179,-0.05,1644584712.53125,P03,D02,1,1,1
180,-0.35,1644584712.546875,P03,D02,1,1,1
181,-0.59,1644584712.5625,P03,D02,1,1,1
182,-0.7,1644584712.578125,P03,D02,1,1,1
183,-0.69,1644584712.59375,P03,D02,1,1,1
184,-0.6,1644584712.609375,P03,D02,1,1,1
185,-0.51,1644584712.625,P03,D02,1,1,1
186,-0.45,1644584712.640625,P03,D02,1,1,1
187,-0.41,1644584712.65625,P03,D02,1,1,1
188,-0.36,1644584712.671875,P03,D02,1,1,1
189,-0.28,1644584712.6875,P03,D02,1,1,1
190,-0.18,1644584712.703125,P03,D02,1,1,1
191,-0.09,1644584712.71875,P03,D02,1,1,1
192,-0.03,1644584712.734375,P03,D02,1,1,1
193,0.03,1644584712.75,P03,D02,1,1,1
194,0.17,1644584712.765625,P03,D02,1,1,1
195,0.43,1644584712.78125,P03,D02,1,1,1
196,0.79,1644584712.796875,P03,D02,1,1,1
197,1.14,1644584712.8125,P03,D02,1,1,1
198,1.33,1644584712.828125,P03,D02,1,1,1
199,1.24,1644584712.84375,P03,D02,1,1,1
200,0.87,1644584712.859375,P03,D02,1,1,1
201,0.34,1644584712.875,P03,D02,1,1,1
202,-0.14,1644584712.890625,P03,D02,1,1,1
203,-0.43,1644584712.90625,P03,D02,1,1,1
204,-0.48,1644584712.921875,P03,D02,1,1,1
205,-0.35,1644584712.9375,P03,D02,1,1,1
206,-0.18,1644584712.953125,P03,D02,1,1,1
207,-0.07,1644584712.96875,P03,D02,1,1,1
208,-0.05,1644584712.984375,P03,D02,1,1,1
209,-0.09,1644584713.0,P03,D02,1,1,1
210,-0.12,1644584713.015625,P03,D02,1,1,1
211,-0.09,1644584713.03125,P03,D02,1,1,1
212,-0.03,1644584713.046875,P03,D02,1,1,1
213,0.03,1644584713.0625,P03,D02,1,1,1
214,0.04,1644584713.078125,P03,D02,1,1,1
215,-0.01,1644584713.09375,P03,D02,1,1,1
216,-0.06,1644584713.109375,P03,D02,1,1,1
217,-0.08,1644584713.125,P03,D02,1,1,1
218,-0.08,1644584713.140625,P03,D02,1,1,1
219,-0.07,1644584713.15625,P03,D02,1,1,1
220,-0.08,1644584713.171875,P03,D02,1,1,1
221,-0.12,1644584713.1875,P03,D02,1,1,1
222,-0.17,1644584713.203125,P03,D02,1,1,1
223,-0.2,1644584713.21875,P03,D02,1,1,1
224,-0.22,1644584713.234375,P03,D02,1,1,1
225,-0.25,1644584713.25,P03,D02,1,1,1
226,-0.34,1644584713.265625,P03,D02,1,1,1
227,-0.46,1644584713.28125,P03,D02,1,1,1
228,-0.55,1644584713.296875,P03,D02,1,1,1
229,-0.52,1644584713.3125,P03,D02,1,1,1
230,-0.31,1644584713.328125,P03,D02,1,1,1
231,0.06,1644584713.34375,P03,D02,1,1,1
232,0.48,1644584713.359375,P03,D02,1,1,1
233,0.79,1644584713.375,P03,D02,1,1,1
234,0.9,1644584713.390625,P03,D02,1,1,1
235,0.81,1644584713.40625,P03,D02,1,1,1
236,0.6,1644584713.421875,P03,D02,1,1,1
237,0.35,1644584713.4375,P03,D02,1,1,1
238,0.14,1644584713.453125,P03,D02,1,1,1
239,-0.02,1644584713.46875,P03,D02,1,1,1
240,-0.11,1644584713.484375,P03,D02,1,1,1
241,-0.11,1644584713.5,P03,D02,1,1,1
242,-0.01,1644584713.515625,P03,D02,1,1,1
243,0.2,1644584713.53125,P03,D02,1,1,1
244,0.47,1644584713.546875,P03,D02,1,1,1
245,0.7,1644584713.5625,P03,D02,1,1,1
246,0.82,1644584713.578125,P03,D02,1,1,1
247,0.77,1644584713.59375,P03,D02,1,1,1
248,0.59,1644584713.609375,P03,D02,1,1,1
249,0.38,1644584713.625,P03,D02,1,1,1
250,0.21,1644584713.640625,P03,D02,1,1,1
251,0.13,1644584713.65625,P03,D02,1,1,1
252,0.13,1644584713.671875,P03,D02,1,1,1
253,0.15,1644584713.6875,P03,D02,1,1,1
254,0.15,1644584713.703125,P03,D02,1,1,1
255,0.11,1644584713.71875,P03,D02,1,1,1
256,0.03,1644584713.734375,P03,D02,1,1,1
257,-0.07,1644584713.75,P03,D02,1,1,1
258,-0.18,1644584713.765625,P03,D02,1,1,1
259,-0.26,1644584713.78125,P03,D02,1,1,1
260,-0.31,1644584713.796875,P03,D02,1,1,1
261,-0.34,1644584713.8125,P03,D02,1,1,1
262,-0.35,1644584713.828125,P03,D02,1,1,1
263,-0.36,1644584713.84375,P03,D02,1,1,1
264,-0.35,1644584713.859375,P03,D02,1,1,1
265,-0.3,1644584713.875,P03,D02,1,1,1
266,-0.2,1644584713.890625,P03,D02,1,1,1
267,-0.04,1644584713.90625,P03,D02,1,1,1
268,0.13,1644584713.921875,P03,D02,1,1,1
269,0.23,1644584713.9375,P03,D02,1,1,1
270,0.18,1644584713.953125,P03,D02,1,1,1
271,-0.02,1644584713.96875,P03,D02,1,1,1
272,-0.31,1644584713.984375,P03,D02,1,1,1
273,-0.57,1644584714.0,P03,D02,1,1,1
274,-0.68,1644584714.015625,P03,D02,1,1,1
275,-0.59,1644584714.03125,P03,D02,1,1,1
276,-0.33,1644584714.046875,P03,D02,1,1,1
277,-0.0,1644584714.0625,P03,D02,1,1,1
278,0.29,1644584714.078125,P03,D02,1,1,1
279,0.48,1644584714.09375,P03,D02,1,1,1
280,0.58,1644584714.109375,P03,D02,1,1,1
281,0.62,1644584714.125,P03,D02,1,1,1
282,0.62,1644584714.140625,P03,D02,1,1,1
283,0.58,1644584714.15625,P03,D02,1,1,1
284,0.46,1644584714.171875,P03,D02,1,1,1
285,0.23,1644584714.1875,P03,D02,1,1,1
286,-0.09,1644584714.203125,P03,D02,1,1,1
287,-0.39,1644584714.21875,P03,D02,1,1,1
288,-0.56,1644584714.234375,P03,D02,1,1,1
289,-0.5,1644584714.25,P03,D02,1,1,1
290,-0.2,1644584714.265625,P03,D02,1,1,1
291,0.25,1644584714.28125,P03,D02,1,1,1
292,0.7,1644584714.296875,P03,D02,1,1,1
293,1.05,1644584714.3125,P03,D02,1,1,1
294,1.21,1644584714.328125,P03,D02,1,1,1
295,1.17,1644584714.34375,P03,D02,1,1,1
296,0.98,1644584714.359375,P03,D02,1,1,1
297,0.66,1644584714.375,P03,D02,1,1,1
298,0.28,1644584714.390625,P03,D02,1,1,1
299,-0.15,1644584714.40625,P03,D02,1,1,1
300,-0.57,1644584714.421875,P03,D02,1,1,1
301,-0.93,1644584714.4375,P03,D02,1,1,1
302,-1.17,1644584714.453125,P03,D02,1,1,1
303,-1.27,1644584714.46875,P03,D02,1,1,1
304,-1.23,1644584714.484375,P03,D02,1,1,1
305,-1.08,1644584714.5,P03,D02,1,1,1
306,-0.89,1644584714.515625,P03,D02,1,1,1
307,-0.69,1644584714.53125,P03,D02,1,1,1
308,-0.51,1644584714.546875,P03,D02,1,1,1
309,-0.35,1644584714.5625,P03,D02,1,1,1
310,-0.22,1644584714.578125,P03,D02,1,1,1
311,-0.13,1644584714.59375,P03,D02,1,1,1
312,-0.08,1644584714.609375,P03,D02,1,1,1
313,-0.08,1644584714.625,P03,D02,1,1,1
314,-0.13,1644584714.640625,P03,D02,1,1,1
315,-0.21,1644584714.65625,P03,D02,1,1,1
316,-0.29,1644584714.671875,P03,D02,1,1,1
317,-0.34,1644584714.6875,P03,D02,1,1,1
318,-0.33,1644584714.703125,P03,D02,1,1,1
319,-0.3,1644584714.71875,P03,D02,1,1,1
320,-0.27,1644584714.734375,P03,D02,1,1,1
321,-0.32,1644584714.75,P03,D02,1,1,1
322,-0.44,1644584714.765625,P03,D02,1,1,1
323,-0.6,1644584714.78125,P03,D02,1,1,1
324,-0.68,1644584714.796875,P03,D02,1,1,1
325,-0.58,1644584714.8125,P03,D02,1,1,1
326,-0.27,1644584714.828125,P03,D02,1,1,1
327,0.19,1644584714.84375,P03,D02,1,1,1
328,0.66,1644584714.859375,P03,D02,1,1,1
329,0.95,1644584714.875,P03,D02,1,1,1
330,0.99,1644584714.890625,P03,D02,1,1,1
331,0.8,1644584714.90625,P03,D02,1,1,1
332,0.5,1644584714.921875,P03,D02,1,1,1
333,0.27,1644584714.9375,P03,D02,1,1,1
334,0.16,1644584714.953125,P03,D02,1,1,1
335,0.18,1644584714.96875,P03,D02,1,1,1
336,0.22,1644584714.984375,P03,D02,1,1,1
337,0.2,1644584715.0,P03,D02,1,1,1
338,0.09,1644584715.015625,P03,D02,1,1,1
339,-0.07,1644584715.03125,P03,D02,1,1,1
340,-0.18,1644584715.046875,P03,D02,1,1,1
341,-0.14,1644584715.0625,P03,D02,1,1,1
342,0.05,1644584715.078125,P03,D02,1,1,1
343,0.33,1644584715.09375,P03,D02,1,1,1
344,0.59,1644584715.109375,P03,D02,1,1,1
345,0.72,1644584715.125,P03,D02,1,1,1
346,0.66,1644584715.140625,P03,D02,1,1,1
347,0.41,1644584715.15625,P03,D02,1,1,1
348,0.04,1644584715.171875,P03,D02,1,1,1
349,-0.33,1644584715.1875,P03,D02,1,1,1
350,-0.6,1644584715.203125,P03,D02,1,1,1
351,-0.72,1644584715.21875,P03,D02,1,1,1
352,-0.67,1644584715.234375,P03,D02,1,1,1
353,-0.51,1644584715.25,P03,D02,1,1,1
354,-0.3,1644584715.265625,P03,D02,1,1,1
355,-0.1,1644584715.28125,P03,D02,1,1,1
356,0.05,1644584715.296875,P03,D02,1,1,1
357,0.17,1644584715.3125,P03,D02,1,1,1
358,0.27,1644584715.328125,P03,D02,1,1,1
359,0.35,1644584715.34375,P03,D02,1,1,1
360,0.4,1644584715.359375,P03,D02,1,1,1
361,0.39,1644584715.375,P03,D02,1,1,1
362,0.32,1644584715.390625,P03,D02,1,1,1
363,0.17,1644584715.40625,P03,D02,1,1,1
364,-0.0,1644584715.421875,P03,D02,1,1,1
365,-0.17,1644584715.4375,P03,D02,1,1,1
366,-0.28,1644584715.453125,P03,D02,1,1,1
367,-0.34,1644584715.46875,P03,D02,1,1,1
368,-0.35,1644584715.484375,P03,D02,1,1,1
369,-0.35,1644584715.5,P03,D02,1,1,1
370,-0.35,1644584715.515625,P03,D02,1,1,1
371,-0.37,1644584715.53125,P03,D02,1,1,1
372,-0.35,1644584715.546875,P03,D02,1,1,1
373,-0.27,1644584715.5625,P03,D02,1,1,1
374,-0.11,1644584715.578125,P03,D02,1,1,1
375,0.11,1644584715.59375,P03,D02,1,1,1
376,0.34,1644584715.609375,P03,D02,1,1,1
377,0.47,1644584715.625,P03,D02,1,1,1
378,0.47,1644584715.640625,P03,D02,1,1,1
379,0.33,1644584715.65625,P03,D02,1,1,1
380,0.14,1644584715.671875,P03,D02,1,1,1
381,0.0,1644584715.6875,P03,D02,1,1,1
382,-0.03,1644584715.703125,P03,D02,1,1,1
383,0.03,1644584715.71875,P03,D02,1,1,1
384,0.12,1644584715.734375,P03,D02,1,1,1
385,0.18,1644584715.75,P03,D02,1,1,1
386,0.18,1644584715.765625,P03,D02,1,1,1
387,0.2,1644584715.78125,P03,D02,1,1,1
388,0.3,1644584715.796875,P03,D02,1,1,1
389,0.5,1644584715.8125,P03,D02,1,1,1
390,0.73,1644584715.828125,P03,D02,1,1,1
391,0.86,1644584715.84375,P03,D02,1,1,1
392,0.76,1644584715.859375,P03,D02,1,1,1
393,0.44,1644584715.875,P03,D02,1,1,1
394,0.03,1644584715.890625,P03,D02,1,1,1
395,-0.26,1644584715.90625,P03,D02,1,1,1
396,-0.27,1644584715.921875,P03,D02,1,1,1
397,0.04,1644584715.9375,P03,D02,1,1,1
398,0.52,1644584715.953125,P03,D02,1,1,1
399,0.93,1644584715.96875,P03,D02,1,1,1
400,1.05,1644584715.984375,P03,D02,1,1,1
401,0.8,1644584716.0,P03,D02,1,1,1
402,0.24,1644584716.015625,P03,D02,1,1,1
403,-0.44,1644584716.03125,P03,D02,1,1,1
404,-1.03,1644584716.046875,P03,D02,1,1,1
405,-1.4,1644584716.0625,P03,D02,1,1,1
406,-1.51,1644584716.078125,P03,D02,1,1,1
407,-1.41,1644584716.09375,P03,D02,1,1,1
408,-1.17,1644584716.109375,P03,D02,1,1,1
409,-0.83,1644584716.125,P03,D02,1,1,1
410,-0.45,1644584716.140625,P03,D02,1,1,1
411,-0.06,1644584716.15625,P03,D02,1,1,1
412,0.29,1644584716.171875,P03,D02,1,1,1
413,0.53,1644584716.1875,P03,D02,1,1,1
414,0.61,1644584716.203125,P03,D02,1,1,1
415,0.54,1644584716.21875,P03,D02,1,1,1
416,0.36,1644584716.234375,P03,D02,1,1,1
417,0.14,1644584716.25,P03,D02,1,1,1
418,-0.05,1644584716.265625,P03,D02,1,1,1
419,-0.2,1644584716.28125,P03,D02,1,1,1
420,-0.32,1644584716.296875,P03,D02,1,1,1
421,-0.43,1644584716.3125,P03,D02,1,1,1
422,-0.55,1644584716.328125,P03,D02,1,1,1
423,-0.67,1644584716.34375,P03,D02,1,1,1
424,-0.74,1644584716.359375,P03,D02,1,1,1
425,-0.74,1644584716.375,P03,D02,1,1,1
426,-0.64,1644584716.390625,P03,D02,1,1,1
427,-0.47,1644584716.40625,P03,D02,1,1,1
428,-0.27,1644584716.421875,P03,D02,1,1,1
429,-0.07,1644584716.4375,P03,D02,1,1,1
430,0.07,1644584716.453125,P03,D02,1,1,1
431,0.14,1644584716.46875,P03,D02,1,1,1
432,0.14,1644584716.484375,P03,D02,1,1,1
433,0.08,1644584716.5,P03,D02,1,1,1
434,0.01,1644584716.515625,P03,D02,1,1,1
435,-0.04,1644584716.53125,P03,D02,1,1,1
436,-0.07,1644584716.546875,P03,D02,1,1,1
437,-0.07,1644584716.5625,P03,D02,1,1,1
438,-0.05,1644584716.578125,P03,D02,1,1,1
439,-0.03,1644584716.59375,P03,D02,1,1,1
440,0.03,1644584716.609375,P03,D02,1,1,1
441,0.13,1644584716.625,P03,D02,1,1,1
442,0.27,1644584716.640625,P03,D02,1,1,1
443,0.44,1644584716.65625,P03,D02,1,1,1
444,0.59,1644584716.671875,P03,D02,1,1,1
445,0.66,1644584716.6875,P03,D02,1,1,1
446,0.66,1644584716.703125,P03,D02,1,1,1
447,0.62,1644584716.71875,P03,D02,1,1,1
448,0.59,1644584716.734375,P03,D02,1,1,1
449,0.58,1644584716.75,P03,D02,1,1,1
450,0.59,1644584716.765625,P03,D02,1,1,1
451,0.58,1644584716.78125,P03,D02,1,1,1
452,0.53,1644584716.796875,P03,D02,1,1,1
453,0.48,1644584716.8125,P03,D02,1,1,1
454,0.45,1644584716.828125,P03,D02,1,1,1
455,0.49,1644584716.84375,P03,D02,1,1,1
456,0.56,1644584716.859375,P03,D02,1,1,1
457,0.61,1644584716.875,P03,D02,1,1,1
458,0.59,1644584716.890625,P03,D02,1,1,1
459,0.48,1644584716.90625,P03,D02,1,1,1
460,0.29,1644584716.921875,P03,D02,1,1,1
461,0.08,1644584716.9375,P03,D02,1,1,1
462,-0.11,1644584716.953125,P03,D02,1,1,1
463,-0.28,1644584716.96875,P03,D02,1,1,1
464,-0.43,1644584716.984375,P03,D02,1,1,1
465,-0.55,1644584717.0,P03,D02,1,1,1
466,-0.63,1644584717.015625,P03,D02,1,1,1
467,-0.66,1644584717.03125,P03,D02,1,1,1
468,-0.62,1644584717.046875,P03,D02,1,1,1
469,-0.55,1644584717.0625,P03,D02,1,1,1
470,-0.49,1644584717.078125,P03,D02,1,1,1
471,-0.49,1644584717.09375,P03,D02,1,1,1
472,-0.52,1644584717.109375,P03,D02,1,1,1
473,-0.54,1644584717.125,P03,D02,1,1,1
474,-0.49,1644584717.140625,P03,D02,1,1,1
475,-0.35,1644584717.15625,P03,D02,1,1,1
476,-0.16,1644584717.171875,P03,D02,1,1,1
477,-0.04,1644584717.1875,P03,D02,1,1,1
478,-0.07,1644584717.203125,P03,D02,1,1,1
479,-0.28,1644584717.21875,P03,D02,1,1,1
480,-0.59,1644584717.234375,P03,D02,1,1,1
481,-0.85,1644584717.25,P03,D02,1,1,1
482,-0.92,1644584717.265625,P03,D02,1,1,1
483,-0.75,1644584717.28125,P03,D02,1,1,1
484,-0.39,1644584717.296875,P03,D02,1,1,1
485,0.05,1644584717.3125,P03,D02,1,1,1
486,0.42,1644584717.328125,P03,D02,1,1,1
487,0.62,1644584717.34375,P03,D02,1,1,1
488,0.66,1644584717.359375,P03,D02,1,1,1
489,0.6,1644584717.375,P03,D02,1,1,1
490,0.53,1644584717.390625,P03,D02,1,1,1
491,0.51,1644584717.40625,P03,D02,1,1,1
492,0.57,1644584717.421875,P03,D02,1,1,1
493,0.66,1644584717.4375,P03,D02,1,1,1
494,0.72,1644584717.453125,P03,D02,1,1,1
495,0.71,1644584717.46875,P03,D02,1,1,1
496,0.6,1644584717.484375,P03,D02,1,1,1
497,0.42,1644584717.5,P03,D02,1,1,1
498,0.2,1644584717.515625,P03,D02,1,1,1
499,0.01,1644584717.53125,P03,D02,1,1,1
500,-0.15,1644584717.546875,P03,D02,1,1,1
501,-0.26,1644584717.5625,P03,D02,1,1,1
502,-0.32,1644584717.578125,P03,D02,1,1,1
503,-0.33,1644584717.59375,P03,D02,1,1,1
504,-0.29,1644584717.609375,P03,D02,1,1,1
505,-0.19,1644584717.625,P03,D02,1,1,1
506,-0.06,1644584717.640625,P03,D02,1,1,1
507,0.08,1644584717.65625,P03,D02,1,1,1
508,0.19,1644584717.671875,P03,D02,1,1,1
509,0.21,1644584717.6875,P03,D02,1,1,1
510,0.14,1644584717.703125,P03,D02,1,1,1
511,-0.02,1644584717.71875,P03,D02,1,1,1
512,-0.21,1644584717.734375,P03,D02,1,1,1
513,-0.35,1644584717.75,P03,D02,1,1,1
514,-0.38,1644584717.765625,P03,D02,1,1,1
515,-0.27,1644584717.78125,P03,D02,1,1,1
516,-0.07,1644584717.796875,P03,D02,1,1,1
517,0.15,1644584717.8125,P03,D02,1,1,1
518,0.3,1644584717.828125,P03,D02,1,1,1
519,0.35,1644584717.84375,P03,D02,1,1,1
520,0.32,1644584717.859375,P03,D02,1,1,1
521,0.27,1644584717.875,P03,D02,1,1,1
522,0.24,1644584717.890625,P03,D02,1,1,1
523,0.23,1644584717.90625,P03,D02,1,1,1
524,0.19,1644584717.921875,P03,D02,1,1,1
525,0.06,1644584717.9375,P03,D02,1,1,1
526,-0.17,1644584717.953125,P03,D02,1,1,1
527,-0.44,1644584717.96875,P03,D02,1,1,1
528,-0.66,1644584717.984375,P03,D02,1,1,1
529,-0.74,1644584718.0,P03,D02,1,1,1
530,-0.68,1644584718.015625,P03,D02,1,1,1
531,-0.52,1644584718.03125,P03,D02,1,1,1
532,-0.34,1644584718.046875,P03,D02,1,1,1
533,-0.18,1644584718.0625,P03,D02,1,1,1
534,-0.04,1644584718.078125,P03,D02,1,1,1
535,0.11,1644584718.09375,P03,D02,1,1,1
536,0.29,1644584718.109375,P03,D02,1,1,1
537,0.47,1644584718.125,P03,D02,1,1,1
538,0.6,1644584718.140625,P03,D02,1,1,1
539,0.62,1644584718.15625,P03,D02,1,1,1
540,0.52,1644584718.171875,P03,D02,1,1,1
541,0.31,1644584718.1875,P03,D02,1,1,1
542,0.07,1644584718.203125,P03,D02,1,1,1
543,-0.16,1644584718.21875,P03,D02,1,1,1
544,-0.34,1644584718.234375,P03,D02,1,1,1
545,-0.43,1644584718.25,P03,D02,1,1,1
546,-0.44,1644584718.265625,P03,D02,1,1,1
547,-0.36,1644584718.28125,P03,D02,1,1,1
548,-0.21,1644584718.296875,P03,D02,1,1,1
549,-0.02,1644584718.3125,P03,D02,1,1,1
550,0.15,1644584718.328125,P03,D02,1,1,1
551,0.24,1644584718.34375,P03,D02,1,1,1
552,0.22,1644584718.359375,P03,D02,1,1,1
553,0.12,1644584718.375,P03,D02,1,1,1
554,-0.01,1644584718.390625,P03,D02,1,1,1
555,-0.1,1644584718.40625,P03,D02,1,1,1
556,-0.07,1644584718.421875,P03,D02,1,1,1
557,0.05,1644584718.4375,P03,D02,1,1,1
558,0.22,1644584718.453125,P03,D02,1,1,1
559,0.31,1644584718.46875,P03,D02,1,1,1
560,0.27,1644584718.484375,P03,D02,1,1,1
561,0.07,1644584718.5,P03,D02,1,1,1
562,-0.22,1644584718.515625,P03,D02,1,1,1
563,-0.47,1644584718.53125,P03,D02,1,1,1
564,-0.59,1644584718.546875,P03,D02,1,1,1
565,-0.55,1644584718.5625,P03,D02,1,1,1
566,-0.38,1644584718.578125,P03,D02,1,1,1
567,-0.2,1644584718.59375,P03,D02,1,1,1
568,-0.09,1644584718.609375,P03,D02,1,1,1
569,-0.08,1644584718.625,P03,D02,1,1,1
570,-0.13,1644584718.640625,P03,D02,1,1,1
571,-0.17,1644584718.65625,P03,D02,1,1,1
572,-0.18,1644584718.671875,P03,D02,1,1,1
573,-0.16,1644584718.6875,P03,D02,1,1,1
574,-0.16,1644584718.703125,P03,D02,1,1,1
575,-0.21,1644584718.71875,P03,D02,1,1,1
576,-0.29,1644584718.734375,P03,D02,1,1,1
577,-0.35,1644584718.75,P03,D02,1,1,1
578,-0.36,1644584718.765625,P03,D02,1,1,1
579,-0.3,1644584718.78125,P03,D02,1,1,1
580,-0.23,1644584718.796875,P03,D02,1,1,1
581,-0.17,1644584718.8125,P03,D02,1,1,1
582,-0.16,1644584718.828125,P03,D02,1,1,1
583,-0.17,1644584718.84375,P03,D02,1,1,1
584,-0.12,1644584718.859375,P03,D02,1,1,1
585,0.01,1644584718.875,P03,D02,1,1,1
586,0.21,1644584718.890625,P03,D02,1,1,1
587,0.42,1644584718.90625,P03,D02,1,1,1
588,0.54,1644584718.921875,P03,D02,1,1,1
589,0.54,1644584718.9375,P03,D02,1,1,1
590,0.44,1644584718.953125,P03,D02,1,1,1
591,0.31,1644584718.96875,P03,D02,1,1,1
592,0.2,1644584718.984375,P03,D02,1,1,1
593,0.14,1644584719.0,P03,D02,1,1,1
594,0.09,1644584719.015625,P03,D02,1,1,1
595,0.01,1644584719.03125,P03,D02,1,1,1
596,-0.12,1644584719.046875,P03,D02,1,1,1
597,-0.26,1644584719.0625,P03,D02,1,1,1
598,-0.36,1644584719.078125,P03,D02,1,1,1
599,-0.33,1644584719.09375,P03,D02,1,1,1
600,-0.19,1644584719.109375,P03,D02,1,1,1
601,0.05,1644584719.125,P03,D02,1,1,1
602,0.32,1644584719.140625,P03,D02,1,1,1
603,0.55,1644584719.15625,P03,D02,1,1,1
604,0.71,1644584719.171875,P03,D02,1,1,1
605,0.78,1644584719.1875,P03,D02,1,1,1
606,0.74,1644584719.203125,P03,D02,1,1,1
607,0.59,1644584719.21875,P03,D02,1,1,1
608,0.35,1644584719.234375,P03,D02,1,1,1
609,0.08,1644584719.25,P03,D02,1,1,1
610,-0.14,1644584719.265625,P03,D02,1,1,1
611,-0.25,1644584719.28125,P03,D02,1,1,1
612,-0.22,1644584719.296875,P03,D02,1,1,1
613,-0.08,1644584719.3125,P03,D02,1,1,1
614,0.09,1644584719.328125,P03,D02,1,1,1
615,0.21,1644584719.34375,P03,D02,1,1,1
616,0.24,1644584719.359375,P03,D02,1,1,1
617,0.22,1644584719.375,P03,D02,1,1,1
618,0.22,1644584719.390625,P03,D02,1,1,1
619,0.31,1644584719.40625,P03,D02,1,1,1
620,0.51,1644584719.421875,P03,D02,1,1,1
621,0.76,1644584719.4375,P03,D02,1,1,1
622,0.95,1644584719.453125,P03,D02,1,1,1
623,1.0,1644584719.46875,P03,D02,1,1,1
624,0.88,1644584719.484375,P03,D02,1,1,1
625,0.61,1644584719.5,P03,D02,1,1,1
626,0.29,1644584719.515625,P03,D02,1,1,1
627,0.01,1644584719.53125,P03,D02,1,1,1
628,-0.18,1644584719.546875,P03,D02,1,1,1
629,-0.26,1644584719.5625,P03,D02,1,1,1
630,-0.25,1644584719.578125,P03,D02,1,1,1
631,-0.18,1644584719.59375,P03,D02,1,1,1
632,-0.06,1644584719.609375,P03,D02,1,1,1
633,0.08,1644584719.625,P03,D02,1,1,1
634,0.18,1644584719.640625,P03,D02,1,1,1
635,0.2,1644584719.65625,P03,D02,1,1,1
636,0.11,1644584719.671875,P03,D02,1,1,1
637,-0.07,1644584719.6875,P03,D02,1,1,1
638,-0.29,1644584719.703125,P03,D02,1,1,1
639,-0.46,1644584719.71875,P03,D02,1,1,1
640,-0.52,1644584719.734375,P03,D02,1,1,1
641,-0.46,1644584719.75,P03,D02,1,1,1
642,-0.35,1644584719.765625,P03,D02,1,1,1
643,-0.25,1644584719.78125,P03,D02,1,1,1
644,-0.22,1644584719.796875,P03,D02,1,1,1
645,-0.28,1644584719.8125,P03,D02,1,1,1
646,-0.38,1644584719.828125,P03,D02,1,1,1
647,-0.48,1644584719.84375,P03,D02,1,1,1
648,-0.55,1644584719.859375,P03,D02,1,1,1
649,-0.6,1644584719.875,P03,D02,1,1,1
650,-0.62,1644584719.890625,P03,D02,1,1,1
651,-0.61,1644584719.90625,P03,D02,1,1,1
652,-0.57,1644584719.921875,P03,D02,1,1,1
653,-0.46,1644584719.9375,P03,D02,1,1,1
654,-0.3,1644584719.953125,P03,D02,1,1,1
655,-0.13,1644584719.96875,P03,D02,1,1,1
656,-0.0,1644584719.984375,P03,D02,1,1,1
657,0.06,1644584720.0,P03,D02,1,1,1
658,0.09,1644584720.015625,P03,D02,1,1,1
659,0.15,1644584720.03125,P03,D02,1,1,1
660,0.29,1644584720.046875,P03,D02,1,1,1
661,0.45,1644584720.0625,P03,D02,1,1,1
662,0.56,1644584720.078125,P03,D02,1,1,1
663,0.52,1644584720.09375,P03,D02,1,1,1
664,0.29,1644584720.109375,P03,D02,1,1,1
665,-0.04,1644584720.125,P03,D02,1,1,1
666,-0.35,1644584720.140625,P03,D02,1,1,1
667,-0.51,1644584720.15625,P03,D02,1,1,1
668,-0.46,1644584720.171875,P03,D02,1,1,1
669,-0.26,1644584720.1875,P03,D02,1,1,1
670,-0.03,1644584720.203125,P03,D02,1,1,1
671,0.14,1644584720.21875,P03,D02,1,1,1
672,0.22,1644584720.234375,P03,D02,1,1,1
673,0.24,1644584720.25,P03,D02,1,1,1
674,0.25,1644584720.265625,P03,D02,1,1,1
675,0.26,1644584720.28125,P03,D02,1,1,1
676,0.22,1644584720.296875,P03,D02,1,1,1
677,0.06,1644584720.3125,P03,D02,1,1,1
678,-0.26,1644584720.328125,P03,D02,1,1,1
679,-0.68,1644584720.34375,P03,D02,1,1,1
680,-1.08,1644584720.359375,P03,D02,1,1,1
681,-1.3,1644584720.375,P03,D02,1,1,1
682,-1.22,1644584720.390625,P03,D02,1,1,1
683,-0.86,1644584720.40625,P03,D02,1,1,1
684,-0.3,1644584720.421875,P03,D02,1,1,1
685,0.26,1644584720.4375,P03,D02,1,1,1
686,0.67,1644584720.453125,P03,D02,1,1,1
687,0.85,1644584720.46875,P03,D02,1,1,1
688,0.79,1644584720.484375,P03,D02,1,1,1
689,0.59,1644584720.5,P03,D02,1,1,1
690,0.37,1644584720.515625,P03,D02,1,1,1
691,0.22,1644584720.53125,P03,D02,1,1,1
692,0.2,1644584720.546875,P03,D02,1,1,1
693,0.27,1644584720.5625,P03,D02,1,1,1
694,0.4,1644584720.578125,P03,D02,1,1,1
695,0.52,1644584720.59375,P03,D02,1,1,1
696,0.58,1644584720.609375,P03,D02,1,1,1
697,0.52,1644584720.625,P03,D02,1,1,1
698,0.35,1644584720.640625,P03,D02,1,1,1
699,0.1,1644584720.65625,P03,D02,1,1,1
700,-0.17,1644584720.671875,P03,D02,1,1,1
701,-0.38,1644584720.6875,P03,D02,1,1,1
702,-0.43,1644584720.703125,P03,D02,1,1,1
703,-0.3,1644584720.71875,P03,D02,1,1,1
704,-0.02,1644584720.734375,P03,D02,1,1,1
705,0.29,1644584720.75,P03,D02,1,1,1
706,0.54,1644584720.765625,P03,D02,1,1,1
707,0.61,1644584720.78125,P03,D02,1,1,1
708,0.5,1644584720.796875,P03,D02,1,1,1
709,0.25,1644584720.8125,P03,D02,1,1,1
710,-0.03,1644584720.828125,P03,D02,1,1,1
711,-0.22,1644584720.84375,P03,D02,1,1,1
712,-0.25,1644584720.859375,P03,D02,1,1,1
713,-0.12,1644584720.875,P03,D02,1,1,1
714,0.12,1644584720.890625,P03,D02,1,1,1
715,0.38,1644584720.90625,P03,D02,1,1,1
716,0.57,1644584720.921875,P03,D02,1,1,1
717,0.63,1644584720.9375,P03,D02,1,1,1
718,0.54,1644584720.953125,P03,D02,1,1,1
719,0.35,1644584720.96875,P03,D02,1,1,1
720,0.11,1644584720.984375,P03,D02,1,1,1
721,-0.14,1644584721.0,P03,D02,1,1,1
722,-0.36,1644584721.015625,P03,D02,1,1,1
723,-0.55,1644584721.03125,P03,D02,1,1,1
724,-0.69,1644584721.046875,P03,D02,1,1,1
725,-0.79,1644584721.0625,P03,D02,1,1,1
726,-0.82,1644584721.078125,P03,D02,1,1,1
727,-0.8,1644584721.09375,P03,D02,1,1,1
728,-0.75,1644584721.109375,P03,D02,1,1,1
729,-0.71,1644584721.125,P03,D02,1,1,1
730,-0.7,1644584721.140625,P03,D02,1,1,1
731,-0.72,1644584721.15625,P03,D02,1,1,1
732,-0.7,1644584721.171875,P03,D02,1,1,1
733,-0.6,1644584721.1875,P03,D02,1,1,1
734,-0.42,1644584721.203125,P03,D02,1,1,1
735,-0.18,1644584721.21875,P03,D02,1,1,1
736,0.01,1644584721.234375,P03,D02,1,1,1
737,0.07,1644584721.25,P03,D02,1,1,1
738,-0.05,1644584721.265625,P03,D02,1,1,1
739,-0.29,1644584721.28125,P03,D02,1,1,1
740,-0.54,1644584721.296875,P03,D02,1,1,1
741,-0.64,1644584721.3125,P03,D02,1,1,1
742,-0.54,1644584721.328125,P03,D02,1,1,1
743,-0.27,1644584721.34375,P03,D02,1,1,1
744,0.04,1644584721.359375,P03,D02,1,1,1
745,0.28,1644584721.375,P03,D02,1,1,1
746,0.36,1644584721.390625,P03,D02,1,1,1
747,0.32,1644584721.40625,P03,D02,1,1,1
748,0.24,1644584721.421875,P03,D02,1,1,1
749,0.21,1644584721.4375,P03,D02,1,1,1
750,0.24,1644584721.453125,P03,D02,1,1,1
751,0.26,1644584721.46875,P03,D02,1,1,1
752,0.2,1644584721.484375,P03,D02,1,1,1
753,0.04,1644584721.5,P03,D02,1,1,1
754,-0.15,1644584721.515625,P03,D02,1,1,1
755,-0.23,1644584721.53125,P03,D02,1,1,1
756,-0.1,1644584721.546875,P03,D02,1,1,1
757,0.23,1644584721.5625,P03,D02,1,1,1
758,0.66,1644584721.578125,P03,D02,1,1,1
759,1.03,1644584721.59375,P03,D02,1,1,1
760,1.21,1644584721.609375,P03,D02,1,1,1
761,1.17,1644584721.625,P03,D02,1,1,1
762,0.94,1644584721.640625,P03,D02,1,1,1
763,0.64,1644584721.65625,P03,D02,1,1,1
764,0.38,1644584721.671875,P03,D02,1,1,1
765,0.21,1644584721.6875,P03,D02,1,1,1
766,0.15,1644584721.703125,P03,D02,1,1,1
767,0.17,1644584721.71875,P03,D02,1,1,1
768,0.22,1644584721.734375,P03,D02,1,1,1
769,0.24,1644584721.75,P03,D02,1,1,1
770,0.19,1644584721.765625,P03,D02,1,1,1
771,0.08,1644584721.78125,P03,D02,1,1,1
772,-0.06,1644584721.796875,P03,D02,1,1,1
773,-0.17,1644584721.8125,P03,D02,1,1,1
774,-0.18,1644584721.828125,P03,D02,1,1,1
775,-0.06,1644584721.84375,P03,D02,1,1,1
776,0.18,1644584721.859375,P03,D02,1,1,1
777,0.48,1644584721.875,P03,D02,1,1,1
778,0.77,1644584721.890625,P03,D02,1,1,1
779,0.94,1644584721.90625,P03,D02,1,1,1
780,0.95,1644584721.921875,P03,D02,1,1,1
781,0.77,1644584721.9375,P03,D02,1,1,1
782,0.41,1644584721.953125,P03,D02,1,1,1
783,-0.03,1644584721.96875,P03,D02,1,1,1
784,-0.43,1644584721.984375,P03,D02,1,1,1
785,-0.67,1644584722.0,P03,D02,1,1,1
786,-0.68,1644584722.015625,P03,D02,1,1,1
787,-0.49,1644584722.03125,P03,D02,1,1,1
788,-0.23,1644584722.046875,P03,D02,1,1,1
789,-0.04,1644584722.0625,P03,D02,1,1,1
790,-0.0,1644584722.078125,P03,D02,1,1,1
791,-0.1,1644584722.09375,P03,D02,1,1,1
792,-0.22,1644584722.109375,P03,D02,1,1,1
793,-0.24,1644584722.125,P03,D02,1,1,1
794,-0.15,1644584722.140625,P03,D02,1,1,1
795,0.03,1644584722.15625,P03,D02,1,1,1
796,0.16,1644584722.171875,P03,D02,1,1,1
797,0.19,1644584722.1875,P03,D02,1,1,1
798,0.1,1644584722.203125,P03,D02,1,1,1
799,-0.04,1644584722.21875,P03,D02,1,1,1
800,-0.18,1644584722.234375,P03,D02,1,1,1
801,-0.3,1644584722.25,P03,D02,1,1,1
802,-0.41,1644584722.265625,P03,D02,1,1,1
803,-0.53,1644584722.28125,P03,D02,1,1,1
804,-0.63,1644584722.296875,P03,D02,1,1,1
805,-0.64,1644584722.3125,P03,D02,1,1,1
806,-0.51,1644584722.328125,P03,D02,1,1,1
807,-0.24,1644584722.34375,P03,D02,1,1,1
808,0.08,1644584722.359375,P03,D02,1,1,1
809,0.29,1644584722.375,P03,D02,1,1,1
810,0.3,1644584722.390625,P03,D02,1,1,1
811,0.07,1644584722.40625,P03,D02,1,1,1
812,-0.28,1644584722.421875,P03,D02,1,1,1
813,-0.62,1644584722.4375,P03,D02,1,1,1
814,-0.8,1644584722.453125,P03,D02,1,1,1
815,-0.78,1644584722.46875,P03,D02,1,1,1
816,-0.63,1644584722.484375,P03,D02,1,1,1
817,-0.44,1644584722.5,P03,D02,1,1,1
818,-0.29,1644584722.515625,P03,D02,1,1,1
819,-0.2,1644584722.53125,P03,D02,1,1,1
820,-0.11,1644584722.546875,P03,D02,1,1,1
821,0.03,1644584722.5625,P03,D02,1,1,1
822,0.21,1644584722.578125,P03,D02,1,1,1
823,0.35,1644584722.59375,P03,D02,1,1,1
824,0.36,1644584722.609375,P03,D02,1,1,1
825,0.19,1644584722.625,P03,D02,1,1,1
826,-0.13,1644584722.640625,P03,D02,1,1,1
827,-0.47,1644584722.65625,P03,D02,1,1,1
828,-0.7,1644584722.671875,P03,D02,1,1,1
829,-0.73,1644584722.6875,P03,D02,1,1,1
830,-0.56,1644584722.703125,P03,D02,1,1,1
831,-0.24,1644584722.71875,P03,D02,1,1,1
832,0.17,1644584722.734375,P03,D02,1,1,1
833,0.59,1644584722.75,P03,D02,1,1,1
834,0.96,1644584722.765625,P03,D02,1,1,1
835,1.2,1644584722.78125,P03,D02,1,1,1
836,1.25,1644584722.796875,P03,D02,1,1,1
837,1.08,1644584722.8125,P03,D02,1,1,1
838,0.73,1644584722.828125,P03,D02,1,1,1
839,0.31,1644584722.84375,P03,D02,1,1,1
840,-0.05,1644584722.859375,P03,D02,1,1,1
841,-0.25,1644584722.875,P03,D02,1,1,1
842,-0.25,1644584722.890625,P03,D02,1,1,1
843,-0.09,1644584722.90625,P03,D02,1,1,1
844,0.16,1644584722.921875,P03,D02,1,1,1
845,0.39,1644584722.9375,P03,D02,1,1,1
846,0.56,1644584722.953125,P03,D02,1,1,1
847,0.61,1644584722.96875,P03,D02,1,1,1
848,0.52,1644584722.984375,P03,D02,1,1,1
849,0.29,1644584723.0,P03,D02,1,1,1
850,-0.03,1644584723.015625,P03,D02,1,1,1
851,-0.38,1644584723.03125,P03,D02,1,1,1
852,-0.67,1644584723.046875,P03,D02,1,1,1
853,-0.82,1644584723.0625,P03,D02,1,1,1
854,-0.82,1644584723.078125,P03,D02,1,1,1
855,-0.7,1644584723.09375,P03,D02,1,1,1
856,-0.52,1644584723.109375,P03,D02,1,1,1
857,-0.36,1644584723.125,P03,D02,1,1,1
858,-0.24,1644584723.140625,P03,D02,1,1,1
859,-0.15,1644584723.15625,P03,D02,1,1,1
860,-0.03,1644584723.171875,P03,D02,1,1,1
861,0.1,1644584723.1875,P03,D02,1,1,1
862,0.2,1644584723.203125,P03,D02,1,1,1
863,0.17,1644584723.21875,P03,D02,1,1,1
864,-0.04,1644584723.234375,P03,D02,1,1,1
865,-0.39,1644584723.25,P03,D02,1,1,1
866,-0.74,1644584723.265625,P03,D02,1,1,1
867,-0.94,1644584723.28125,P03,D02,1,1,1
868,-0.9,1644584723.296875,P03,D02,1,1,1
869,-0.62,1644584723.3125,P03,D02,1,1,1
870,-0.25,1644584723.328125,P03,D02,1,1,1
871,0.04,1644584723.34375,P03,D02,1,1,1
872,0.15,1644584723.359375,P03,D02,1,1,1
873,0.07,1644584723.375,P03,D02,1,1,1
874,-0.08,1644584723.390625,P03,D02,1,1,1
875,-0.15,1644584723.40625,P03,D02,1,1,1
876,-0.04,1644584723.421875,P03,D02,1,1,1
877,0.24,1644584723.4375,P03,D02,1,1,1
878,0.61,1644584723.453125,P03,D02,1,1,1
879,0.95,1644584723.46875,P03,D02,1,1,1
880,1.13,1644584723.484375,P03,D02,1,1,1
881,1.12,1644584723.5,P03,D02,1,1,1
882,0.95,1644584723.515625,P03,D02,1,1,1
883,0.71,1644584723.53125,P03,D02,1,1,1
884,0.47,1644584723.546875,P03,D02,1,1,1
885,0.25,1644584723.5625,P03,D02,1,1,1
886,0.03,1644584723.578125,P03,D02,1,1,1
887,-0.23,1644584723.59375,P03,D02,1,1,1
888,-0.56,1644584723.609375,P03,D02,1,1,1
889,-0.89,1644584723.625,P03,D02,1,1,1
890,-1.12,1644584723.640625,P03,D02,1,1,1
891,-1.17,1644584723.65625,P03,D02,1,1,1
892,-0.99,1644584723.671875,P03,D02,1,1,1
893,-0.65,1644584723.6875,P03,D02,1,1,1
894,-0.26,1644584723.703125,P03,D02,1,1,1
895,0.06,1644584723.71875,P03,D02,1,1,1
896,0.25,1644584723.734375,P03,D02,1,1,1
897,0.3,1644584723.75,P03,D02,1,1,1
898,0.25,1644584723.765625,P03,D02,1,1,1
899,0.17,1644584723.78125,P03,D02,1,1,1
900,0.08,1644584723.796875,P03,D02,1,1,1
901,-0.01,1644584723.8125,P03,D02,1,1,1
902,-0.11,1644584723.828125,P03,D02,1,1,1
903,-0.2,1644584723.84375,P03,D02,1,1,1
904,-0.24,1644584723.859375,P03,D02,1,1,1
905,-0.21,1644584723.875,P03,D02,1,1,1
906,-0.11,1644584723.890625,P03,D02,1,1,1
907,0.04,1644584723.90625,P03,D02,1,1,1
908,0.19,1644584723.921875,P03,D02,1,1,1
909,0.32,1644584723.9375,P03,D02,1,1,1
910,0.41,1644584723.953125,P03,D02,1,1,1
911,0.49,1644584723.96875,P03,D02,1,1,1
912,0.6,1644584723.984375,P03,D02,1,1,1
913,0.76,1644584724.0,P03,D02,1,1,1
914,0.93,1644584724.015625,P03,D02,1,1,1
915,1.05,1644584724.03125,P03,D02,1,1,1
916,1.08,1644584724.046875,P03,D02,1,1,1
917,1.0,1644584724.0625,P03,D02,1,1,1
918,0.87,1644584724.078125,P03,D02,1,1,1
919,0.76,1644584724.09375,P03,D02,1,1,1
920,0.69,1644584724.109375,P03,D02,1,1,1
921,0.64,1644584724.125,P03,D02,1,1,1
922,0.55,1644584724.140625,P03,D02,1,1,1
923,0.36,1644584724.15625,P03,D02,1,1,1
924,0.07,1644584724.171875,P03,D02,1,1,1
925,-0.27,1644584724.1875,P03,D02,1,1,1
926,-0.57,1644584724.203125,P03,D02,1,1,1
927,-0.74,1644584724.21875,P03,D02,1,1,1
928,-0.77,1644584724.234375,P03,D02,1,1,1
929,-0.7,1644584724.25,P03,D02,1,1,1
930,-0.58,1644584724.265625,P03,D02,1,1,1
931,-0.49,1644584724.28125,P03,D02,1,1,1
932,-0.46,1644584724.296875,P03,D02,1,1,1
933,-0.48,1644584724.3125,P03,D02,1,1,1
934,-0.52,1644584724.328125,P03,D02,1,1,1
935,-0.56,1644584724.34375,P03,D02,1,1,1
936,-0.57,1644584724.359375,P03,D02,1,1,1
937,-0.56,1644584724.375,P03,D02,1,1,1
938,-0.52,1644584724.390625,P03,D02,1,1,1
939,-0.47,1644584724.40625,P03,D02,1,1,1
940,-0.43,1644584724.421875,P03,D02,1,1,1
941,-0.38,1644584724.4375,P03,D02,1,1,1
942,-0.34,1644584724.453125,P03,D02,1,1,1
943,-0.29,1644584724.46875,P03,D02,1,1,1
944,-0.24,1644584724.484375,P03,D02,1,1,1
945,-0.19,1644584724.5,P03,D02,1,1,1
946,-0.12,1644584724.515625,P03,D02,1,1,1
947,-0.03,1644584724.53125,P03,D02,1,1,1
948,0.1,1644584724.546875,P03,D02,1,1,1
949,0.28,1644584724.5625,P03,D02,1,1,1
950,0.49,1644584724.578125,P03,D02,1,1,1
951,0.68,1644584724.59375,P03,D02,1,1,1
952,0.8,1644584724.609375,P03,D02,1,1,1
953,0.82,1644584724.625,P03,D02,1,1,1
954,0.71,1644584724.640625,P03,D02,1,1,1
955,0.5,1644584724.65625,P03,D02,1,1,1
956,0.25,1644584724.671875,P03,D02,1,1,1
957,0.04,1644584724.6875,P03,D02,1,1,1
958,-0.08,1644584724.703125,P03,D02,1,1,1
959,-0.07,1644584724.71875,P03,D02,1,1,1
960,0.04,1644584724.734375,P03,D02,1,1,1
961,0.19,1644584724.75,P03,D02,1,1,1
962,0.34,1644584724.765625,P03,D02,1,1,1
963,0.41,1644584724.78125,P03,D02,1,1,1
964,0.41,1644584724.796875,P03,D02,1,1,1
965,0.37,1644584724.8125,P03,D02,1,1,1
966,0.31,1644584724.828125,P03,D02,1,1,1
967,0.25,1644584724.84375,P03,D02,1,1,1
968,0.17,1644584724.859375,P03,D02,1,1,1
969,0.04,1644584724.875,P03,D02,1,1,1
970,-0.14,1644584724.890625,P03,D02,1,1,1
971,-0.32,1644584724.90625,P03,D02,1,1,1
972,-0.44,1644584724.921875,P03,D02,1,1,1
973,-0.43,1644584724.9375,P03,D02,1,1,1
974,-0.3,1644584724.953125,P03,D02,1,1,1
975,-0.12,1644584724.96875,P03,D02,1,1,1
976,-0.01,1644584724.984375,P03,D02,1,1,1
977,-0.02,1644584725.0,P03,D02,1,1,1
978,-0.16,1644584725.015625,P03,D02,1,1,1
979,-0.32,1644584725.03125,P03,D02,1,1,1
980,-0.41,1644584725.046875,P03,D02,1,1,1
981,-0.38,1644584725.0625,P03,D02,1,1,1
982,-0.29,1644584725.078125,P03,D02,1,1,1
983,-0.21,1644584725.09375,P03,D02,1,1,1
984,-0.21,1644584725.109375,P03,D02,1,1,1
985,-0.29,1644584725.125,P03,D02,1,1,1
986,-0.38,1644584725.140625,P03,D02,1,1,1
987,-0.4,1644584725.15625,P03,D02,1,1,1
988,-0.29,1644584725.171875,P03,D02,1,1,1
989,-0.09,1644584725.1875,P03,D02,1,1,1
990,0.1,1644584725.203125,P03,D02,1,1,1
991,0.16,1644584725.21875,P03,D02,1,1,1
992,0.04,1644584725.234375,P03,D02,1,1,1
993,-0.19,1644584725.25,P03,D02,1,1,1
994,-0.43,1644584725.265625,P03,D02,1,1,1
995,-0.53,1644584725.28125,P03,D02,1,1,1
996,-0.44,1644584725.296875,P03,D02,1,1,1
997,-0.2,1644584725.3125,P03,D02,1,1,1
998,0.07,1644584725.328125,P03,D02,1,1,1
999,0.23,1644584725.34375,P03,D02,1,1,1
1000,0.23,1644584725.359375,P03,D02,1,1,1
1001,0.1,1644584725.375,P03,D02,1,1,1
1002,-0.05,1644584725.390625,P03,D02,1,1,1
1003,-0.14,1644584725.40625,P03,D02,1,1,1
1004,-0.12,1644584725.421875,P03,D02,1,1,1
1005,-0.04,1644584725.4375,P03,D02,1,1,1
1006,0.04,1644584725.453125,P03,D02,1,1,1
1007,0.07,1644584725.46875,P03,D02,1,1,1
1008,0.05,1644584725.484375,P03,D02,1,1,1
1009,-0.01,1644584725.5,P03,D02,1,1,1
1010,-0.05,1644584725.515625,P03,D02,1,1,1
1011,-0.08,1644584725.53125,P03,D02,1,1,1
1012,-0.11,1644584725.546875,P03,D02,1,1,1
1013,-0.15,1644584725.5625,P03,D02,1,1,1
1014,-0.21,1644584725.578125,P03,D02,1,1,1
1015,-0.22,1644584725.59375,P03,D02,1,1,1
1016,-0.12,1644584725.609375,P03,D02,1,1,1
1017,0.14,1644584725.625,P03,D02,1,1,1
1018,0.56,1644584725.640625,P03,D02,1,1,1
1019,1.08,1644584725.65625,P03,D02,1,1,1
1020,1.57,1644584725.671875,P03,D02,1,1,1
1021,1.9,1644584725.6875,P03,D02,1,1,1
1022,1.98,1644584725.703125,P03,D02,1,1,1
1023,1.78,1644584725.71875,P03,D02,1,1,1
1024,1.36,1644584725.734375,P03,D02,1,1,1
1025,0.86,1644584725.75,P03,D02,1,1,1
1026,0.41,1644584725.765625,P03,D02,1,1,1
1027,0.11,1644584725.78125,P03,D02,1,1,1
1028,0.0,1644584725.796875,P03,D02,1,1,1
1029,0.08,1644584725.8125,P03,D02,1,1,1
1030,0.25,1644584725.828125,P03,D02,1,1,1
1031,0.41,1644584725.84375,P03,D02,1,1,1
1032,0.45,1644584725.859375,P03,D02,1,1,1
1033,0.3,1644584725.875,P03,D02,1,1,1
1034,-0.04,1644584725.890625,P03,D02,1,1,1
1035,-0.53,1644584725.90625,P03,D02,1,1,1
1036,-1.04,1644584725.921875,P03,D02,1,1,1
1037,-1.45,1644584725.9375,P03,D02,1,1,1
1038,-1.66,1644584725.953125,P03,D02,1,1,1
1039,-1.64,1644584725.96875,P03,D02,1,1,1
1040,-1.41,1644584725.984375,P03,D02,1,1,1
1041,-1.09,1644584726.0,P03,D02,1,1,1
1042,-0.78,1644584726.015625,P03,D02,1,1,1
1043,-0.55,1644584726.03125,P03,D02,1,1,1
1044,-0.4,1644584726.046875,P03,D02,1,1,1
1045,-0.32,1644584726.0625,P03,D02,1,1,1
1046,-0.25,1644584726.078125,P03,D02,1,1,1
1047,-0.17,1644584726.09375,P03,D02,1,1,1
1048,-0.1,1644584726.109375,P03,D02,1,1,1
1049,-0.03,1644584726.125,P03,D02,1,1,1
1050,0.02,1644584726.140625,P03,D02,1,1,1
1051,0.02,1644584726.15625,P03,D02,1,1,1
1052,-0.02,1644584726.171875,P03,D02,1,1,1
1053,-0.13,1644584726.1875,P03,D02,1,1,1
1054,-0.3,1644584726.203125,P03,D02,1,1,1
1055,-0.49,1644584726.21875,P03,D02,1,1,1
1056,-0.62,1644584726.234375,P03,D02,1,1,1
1057,-0.61,1644584726.25,P03,D02,1,1,1
1058,-0.46,1644584726.265625,P03,D02,1,1,1
1059,-0.2,1644584726.28125,P03,D02,1,1,1
1060,0.06,1644584726.296875,P03,D02,1,1,1
1061,0.22,1644584726.3125,P03,D02,1,1,1
1062,0.24,1644584726.328125,P03,D02,1,1,1
1063,0.15,1644584726.34375,P03,D02,1,1,1
1064,0.05,1644584726.359375,P03,D02,1,1,1
1065,0.01,1644584726.375,P03,D02,1,1,1
1066,0.06,1644584726.390625,P03,D02,1,1,1
1067,0.19,1644584726.40625,P03,D02,1,1,1
1068,0.33,1644584726.421875,P03,D02,1,1,1
1069,0.45,1644584726.4375,P03,D02,1,1,1
1070,0.57,1644584726.453125,P03,D02,1,1,1
1071,0.71,1644584726.46875,P03,D02,1,1,1
1072,0.88,1644584726.484375,P03,D02,1,1,1
1073,1.03,1644584726.5,P03,D02,1,1,1
1074,1.09,1644584726.515625,P03,D02,1,1,1
1075,1.0,1644584726.53125,P03,D02,1,1,1
1076,0.75,1644584726.546875,P03,D02,1,1,1
1077,0.41,1644584726.5625,P03,D02,1,1,1
1078,0.08,1644584726.578125,P03,D02,1,1,1
1079,-0.16,1644584726.59375,P03,D02,1,1,1
1080,-0.24,1644584726.609375,P03,D02,1,1,1
1081,-0.17,1644584726.625,P03,D02,1,1,1
1082,0.01,1644584726.640625,P03,D02,1,1,1
1083,0.25,1644584726.65625,P03,D02,1,1,1
1084,0.48,1644584726.671875,P03,D02,1,1,1
1085,0.63,1644584726.6875,P03,D02,1,1,1
1086,0.64,1644584726.703125,P03,D02,1,1,1
1087,0.45,1644584726.71875,P03,D02,1,1,1
1088,0.07,1644584726.734375,P03,D02,1,1,1
1089,-0.46,1644584726.75,P03,D02,1,1,1
1090,-0.98,1644584726.765625,P03,D02,1,1,1
1091,-1.35,1644584726.78125,P03,D02,1,1,1
1092,-1.45,1644584726.796875,P03,D02,1,1,1
1093,-1.26,1644584726.8125,P03,D02,1,1,1
1094,-0.85,1644584726.828125,P03,D02,1,1,1
1095,-0.36,1644584726.84375,P03,D02,1,1,1
1096,0.08,1644584726.859375,P03,D02,1,1,1
1097,0.36,1644584726.875,P03,D02,1,1,1
1098,0.49,1644584726.890625,P03,D02,1,1,1
1099,0.52,1644584726.90625,P03,D02,1,1,1
1100,0.52,1644584726.921875,P03,D02,1,1,1
1101,0.51,1644584726.9375,P03,D02,1,1,1
1102,0.49,1644584726.953125,P03,D02,1,1,1
1103,0.41,1644584726.96875,P03,D02,1,1,1
1104,0.27,1644584726.984375,P03,D02,1,1,1
1105,0.1,1644584727.0,P03,D02,1,1,1
1106,-0.04,1644584727.015625,P03,D02,1,1,1
1107,-0.12,1644584727.03125,P03,D02,1,1,1
1108,-0.09,1644584727.046875,P03,D02,1,1,1
1109,-0.0,1644584727.0625,P03,D02,1,1,1
1110,0.1,1644584727.078125,P03,D02,1,1,1
1111,0.16,1644584727.09375,P03,D02,1,1,1
1112,0.15,1644584727.109375,P03,D02,1,1,1
1113,0.12,1644584727.125,P03,D02,1,1,1
1114,0.11,1644584727.140625,P03,D02,1,1,1
1115,0.19,1644584727.15625,P03,D02,1,1,1
1116,0.36,1644584727.171875,P03,D02,1,1,1
1117,0.58,1644584727.1875,P03,D02,1,1,1
1118,0.77,1644584727.203125,P03,D02,1,1,1
1119,0.8,1644584727.21875,P03,D02,1,1,1
1120,0.61,1644584727.234375,P03,D02,1,1,1
1121,0.22,1644584727.25,P03,D02,1,1,1
1122,-0.27,1644584727.265625,P03,D02,1,1,1
1123,-0.68,1644584727.28125,P03,D02,1,1,1
1124,-0.91,1644584727.296875,P03,D02,1,1,1
1125,-0.94,1644584727.3125,P03,D02,1,1,1
1126,-0.85,1644584727.328125,P03,D02,1,1,1
1127,-0.76,1644584727.34375,P03,D02,1,1,1
1128,-0.72,1644584727.359375,P03,D02,1,1,1
1129,-0.72,1644584727.375,P03,D02,1,1,1
1130,-0.63,1644584727.390625,P03,D02,1,1,1
1131,-0.4,1644584727.40625,P03,D02,1,1,1
1132,-0.06,1644584727.421875,P03,D02,1,1,1
1133,0.25,1644584727.4375,P03,D02,1,1,1
1134,0.39,1644584727.453125,P03,D02,1,1,1
1135,0.29,1644584727.46875,P03,D02,1,1,1
1136,0.01,1644584727.484375,P03,D02,1,1,1
1137,-0.3,1644584727.5,P03,D02,1,1,1
1138,-0.49,1644584727.515625,P03,D02,1,1,1
1139,-0.49,1644584727.53125,P03,D02,1,1,1
1140,-0.32,1644584727.546875,P03,D02,1,1,1
1141,-0.09,1644584727.5625,P03,D02,1,1,1
1142,0.1,1644584727.578125,P03,D02,1,1,1
1143,0.21,1644584727.59375,P03,D02,1,1,1
1144,0.26,1644584727.609375,P03,D02,1,1,1
1145,0.28,1644584727.625,P03,D02,1,1,1
1146,0.29,1644584727.640625,P03,D02,1,1,1
1147,0.3,1644584727.65625,P03,D02,1,1,1
1148,0.25,1644584727.671875,P03,D02,1,1,1
1149,0.12,1644584727.6875,P03,D02,1,1,1
1150,-0.07,1644584727.703125,P03,D02,1,1,1
1151,-0.24,1644584727.71875,P03,D02,1,1,1
1152,-0.34,1644584727.734375,P03,D02,1,1,1
1153,-0.3,1644584727.75,P03,D02,1,1,1
1154,-0.12,1644584727.765625,P03,D02,1,1,1
1155,0.15,1644584727.78125,P03,D02,1,1,1
1156,0.43,1644584727.796875,P03,D02,1,1,1
1157,0.66,1644584727.8125,P03,D02,1,1,1
1158,0.77,1644584727.828125,P03,D02,1,1,1
1159,0.77,1644584727.84375,P03,D02,1,1,1
1160,0.65,1644584727.859375,P03,D02,1,1,1
1161,0.46,1644584727.875,P03,D02,1,1,1
1162,0.25,1644584727.890625,P03,D02,1,1,1
1163,0.06,1644584727.90625,P03,D02,1,1,1
1164,-0.07,1644584727.921875,P03,D02,1,1,1
1165,-0.09,1644584727.9375,P03,D02,1,1,1
1166,-0.02,1644584727.953125,P03,D02,1,1,1
1167,0.12,1644584727.96875,P03,D02,1,1,1
1168,0.29,1644584727.984375,P03,D02,1,1,1
1169,0.45,1644584728.0,P03,D02,1,1,1
1170,0.59,1644584728.015625,P03,D02,1,1,1
1171,0.67,1644584728.03125,P03,D02,1,1,1
1172,0.66,1644584728.046875,P03,D02,1,1,1
1173,0.54,1644584728.0625,P03,D02,1,1,1
1174,0.29,1644584728.078125,P03,D02,1,1,1
1175,-0.02,1644584728.09375,P03,D02,1,1,1
1176,-0.33,1644584728.109375,P03,D02,1,1,1
1177,-0.57,1644584728.125,P03,D02,1,1,1
1178,-0.73,1644584728.140625,P03,D02,1,1,1
1179,-0.84,1644584728.15625,P03,D02,1,1,1
1180,-0.92,1644584728.171875,P03,D02,1,1,1
1181,-0.97,1644584728.1875,P03,D02,1,1,1
1182,-0.96,1644584728.203125,P03,D02,1,1,1
1183,-0.84,1644584728.21875,P03,D02,1,1,1
1184,-0.62,1644584728.234375,P03,D02,1,1,1
1185,-0.35,1644584728.25,P03,D02,1,1,1
1186,-0.14,1644584728.265625,P03,D02,1,1,1
1187,-0.06,1644584728.28125,P03,D02,1,1,1
1188,-0.12,1644584728.296875,P03,D02,1,1,1
1189,-0.21,1644584728.3125,P03,D02,1,1,1
1190,-0.26,1644584728.328125,P03,D02,1,1,1
1191,-0.19,1644584728.34375,P03,D02,1,1,1
1192,-0.06,1644584728.359375,P03,D02,1,1,1
1193,0.05,1644584728.375,P03,D02,1,1,1
1194,0.05,1644584728.390625,P03,D02,1,1,1
1195,-0.07,1644584728.40625,P03,D02,1,1,1
1196,-0.25,1644584728.421875,P03,D02,1,1,1
1197,-0.37,1644584728.4375,P03,D02,1,1,1
1198,-0.37,1644584728.453125,P03,D02,1,1,1
1199,-0.22,1644584728.46875,P03,D02,1,1,1
1200,0.01,1644584728.484375,P03,D02,1,1,1
1201,0.24,1644584728.5,P03,D02,1,1,1
1202,0.4,1644584728.515625,P03,D02,1,1,1
1203,0.48,1644584728.53125,P03,D02,1,1,1
1204,0.49,1644584728.546875,P03,D02,1,1,1
1205,0.47,1644584728.5625,P03,D02,1,1,1
1206,0.41,1644584728.578125,P03,D02,1,1,1
1207,0.32,1644584728.59375,P03,D02,1,1,1
1208,0.2,1644584728.609375,P03,D02,1,1,1
1209,0.09,1644584728.625,P03,D02,1,1,1
1210,0.03,1644584728.640625,P03,D02,1,1,1
1211,0.08,1644584728.65625,P03,D02,1,1,1
1212,0.23,1644584728.671875,P03,D02,1,1,1
1213,0.45,1644584728.6875,P03,D02,1,1,1
1214,0.66,1644584728.703125,P03,D02,1,1,1
1215,0.81,1644584728.71875,P03,D02,1,1,1
1216,0.85,1644584728.734375,P03,D02,1,1,1
1217,0.79,1644584728.75,P03,D02,1,1,1
1218,0.69,1644584728.765625,P03,D02,1,1,1
1219,0.57,1644584728.78125,P03,D02,1,1,1
1220,0.49,1644584728.796875,P03,D02,1,1,1
1221,0.46,1644584728.8125,P03,D02,1,1,1
1222,0.44,1644584728.828125,P03,D02,1,1,1
1223,0.39,1644584728.84375,P03,D02,1,1,1
1224,0.26,1644584728.859375,P03,D02,1,1,1
1225,0.02,1644584728.875,P03,D02,1,1,1
1226,-0.31,1644584728.890625,P03,D02,1,1,1
1227,-0.68,1644584728.90625,P03,D02,1,1,1
1228,-1.0,1644584728.921875,P03,D02,1,1,1
1229,-1.22,1644584728.9375,P03,D02,1,1,1
1230,-1.33,1644584728.953125,P03,D02,1,1,1
1231,-1.32,1644584728.96875,P03,D02,1,1,1
1232,-1.2,1644584728.984375,P03,D02,1,1,1
1233,-0.99,1644584729.0,P03,D02,1,1,1
1234,-0.74,1644584729.015625,P03,D02,1,1,1
1235,-0.49,1644584729.03125,P03,D02,1,1,1
1236,-0.31,1644584729.046875,P03,D02,1,1,1
1237,-0.23,1644584729.0625,P03,D02,1,1,1
1238,-0.23,1644584729.078125,P03,D02,1,1,1
1239,-0.25,1644584729.09375,P03,D02,1,1,1
1240,-0.23,1644584729.109375,P03,D02,1,1,1
1241,-0.13,1644584729.125,P03,D02,1,1,1
1242,0.0,1644584729.140625,P03,D02,1,1,1
1243,0.12,1644584729.15625,P03,D02,1,1,1
1244,0.17,1644584729.171875,P03,D02,1,1,1
1245,0.13,1644584729.1875,P03,D02,1,1,1
1246,0.07,1644584729.203125,P03,D02,1,1,1
1247,0.03,1644584729.21875,P03,D02,1,1,1
1248,0.03,1644584729.234375,P03,D02,1,1,1
1249,0.06,1644584729.25,P03,D02,1,1,1
1250,0.05,1644584729.265625,P03,D02,1,1,1
1251,-0.04,1644584729.28125,P03,D02,1,1,1
1252,-0.2,1644584729.296875,P03,D02,1,1,1
1253,-0.39,1644584729.3125,P03,D02,1,1,1
1254,-0.54,1644584729.328125,P03,D02,1,1,1
1255,-0.58,1644584729.34375,P03,D02,1,1,1
1256,-0.51,1644584729.359375,P03,D02,1,1,1
1257,-0.32,1644584729.375,P03,D02,1,1,1
1258,-0.07,1644584729.390625,P03,D02,1,1,1
1259,0.23,1644584729.40625,P03,D02,1,1,1
1260,0.52,1644584729.421875,P03,D02,1,1,1
1261,0.76,1644584729.4375,P03,D02,1,1,1
1262,0.9,1644584729.453125,P03,D02,1,1,1
1263,0.88,1644584729.46875,P03,D02,1,1,1
1264,0.7,1644584729.484375,P03,D02,1,1,1
1265,0.41,1644584729.5,P03,D02,1,1,1
1266,0.09,1644584729.515625,P03,D02,1,1,1
1267,-0.12,1644584729.53125,P03,D02,1,1,1
1268,-0.16,1644584729.546875,P03,D02,1,1,1
1269,-0.03,1644584729.5625,P03,D02,1,1,1
1270,0.18,1644584729.578125,P03,D02,1,1,1
1271,0.36,1644584729.59375,P03,D02,1,1,1
1272,0.42,1644584729.609375,P03,D02,1,1,1
1273,0.34,1644584729.625,P03,D02,1,1,1
1274,0.2,1644584729.640625,P03,D02,1,1,1
1275,0.11,1644584729.65625,P03,D02,1,1,1
1276,0.14,1644584729.671875,P03,D02,1,1,1
1277,0.32,1644584729.6875,P03,D02,1,1,1
1278,0.55,1644584729.703125,P03,D02,1,1,1
1279,0.72,1644584729.71875,P03,D02,1,1,1
1280,0.74,1644584729.734375,P03,D02,1,1,1
1281,0.57,1644584729.75,P03,D02,1,1,1
1282,0.27,1644584729.765625,P03,D02,1,1,1
1283,-0.06,1644584729.78125,P03,D02,1,1,1
1284,-0.34,1644584729.796875,P03,D02,1,1,1
1285,-0.55,1644584729.8125,P03,D02,1,1,1
1286,-0.72,1644584729.828125,P03,D02,1,1,1
1287,-0.91,1644584729.84375,P03,D02,1,1,1
1288,-1.11,1644584729.859375,P03,D02,1,1,1
1289,-1.25,1644584729.875,P03,D02,1,1,1
1290,-1.24,1644584729.890625,P03,D02,1,1,1
1291,-0.99,1644584729.90625,P03,D02,1,1,1
1292,-0.56,1644584729.921875,P03,D02,1,1,1
1293,-0.07,1644584729.9375,P03,D02,1,1,1
1294,0.32,1644584729.953125,P03,D02,1,1,1
1295,0.47,1644584729.96875,P03,D02,1,1,1
1296,0.38,1644584729.984375,P03,D02,1,1,1
1297,0.12,1644584730.0,P03,D02,1,1,1
1298,-0.19,1644584730.015625,P03,D02,1,1,1
1299,-0.42,1644584730.03125,P03,D02,1,1,1
1300,-0.51,1644584730.046875,P03,D02,1,1,1
1301,-0.43,1644584730.0625,P03,D02,1,1,1
1302,-0.19,1644584730.078125,P03,D02,1,1,1
1303,0.18,1644584730.09375,P03,D02,1,1,1
1304,0.6,1644584730.109375,P03,D02,1,1,1
1305,0.95,1644584730.125,P03,D02,1,1,1
1306,1.12,1644584730.140625,P03,D02,1,1,1
1307,1.06,1644584730.15625,P03,D02,1,1,1
1308,0.8,1644584730.171875,P03,D02,1,1,1
1309,0.47,1644584730.1875,P03,D02,1,1,1
1310,0.2,1644584730.203125,P03,D02,1,1,1
1311,0.04,1644584730.21875,P03,D02,1,1,1
1312,-0.02,1644584730.234375,P03,D02,1,1,1
1313,-0.04,1644584730.25,P03,D02,1,1,1
1314,-0.11,1644584730.265625,P03,D02,1,1,1
1315,-0.2,1644584730.28125,P03,D02,1,1,1
1316,-0.28,1644584730.296875,P03,D02,1,1,1
1317,-0.28,1644584730.3125,P03,D02,1,1,1
1318,-0.21,1644584730.328125,P03,D02,1,1,1
1319,-0.13,1644584730.34375,P03,D02,1,1,1
1320,-0.11,1644584730.359375,P03,D02,1,1,1
1321,-0.2,1644584730.375,P03,D02,1,1,1
1322,-0.35,1644584730.390625,P03,D02,1,1,1
1323,-0.47,1644584730.40625,P03,D02,1,1,1
1324,-0.49,1644584730.421875,P03,D02,1,1,1
1325,-0.38,1644584730.4375,P03,D02,1,1,1
1326,-0.21,1644584730.453125,P03,D02,1,1,1
1327,-0.05,1644584730.46875,P03,D02,1,1,1
1328,0.0,1644584730.484375,P03,D02,1,1,1
1329,-0.05,1644584730.5,P03,D02,1,1,1
1330,-0.16,1644584730.515625,P03,D02,1,1,1
1331,-0.27,1644584730.53125,P03,D02,1,1,1
1332,-0.29,1644584730.546875,P03,D02,1,1,1
1333,-0.23,1644584730.5625,P03,D02,1,1,1
1334,-0.11,1644584730.578125,P03,D02,1,1,1
1335,-0.01,1644584730.59375,P03,D02,1,1,1
1336,0.03,1644584730.609375,P03,D02,1,1,1
1337,0.01,1644584730.625,P03,D02,1,1,1
1338,-0.03,1644584730.640625,P03,D02,1,1,1
1339,-0.02,1644584730.65625,P03,D02,1,1,1
1340,0.07,1644584730.671875,P03,D02,1,1,1
1341,0.27,1644584730.6875,P03,D02,1,1,1
1342,0.55,1644584730.703125,P03,D02,1,1,1
1343,0.82,1644584730.71875,P03,D02,1,1,1
1344,1.01,1644584730.734375,P03,D02,1,1,1
1345,1.06,1644584730.75,P03,D02,1,1,1
1346,0.95,1644584730.765625,P03,D02,1,1,1
1347,0.71,1644584730.78125,P03,D02,1,1,1
1348,0.39,1644584730.796875,P03,D02,1,1,1
1349,0.08,1644584730.8125,P03,D02,1,1,1
1350,-0.18,1644584730.828125,P03,D02,1,1,1
1351,-0.34,1644584730.84375,P03,D02,1,1,1
1352,-0.41,1644584730.859375,P03,D02,1,1,1
1353,-0.41,1644584730.875,P03,D02,1,1,1
1354,-0.37,1644584730.890625,P03,D02,1,1,1
1355,-0.33,1644584730.90625,P03,D02,1,1,1
1356,-0.31,1644584730.921875,P03,D02,1,1,1
1357,-0.27,1644584730.9375,P03,D02,1,1,1
1358,-0.17,1644584730.953125,P03,D02,1,1,1
1359,0.03,1644584730.96875,P03,D02,1,1,1
1360,0.34,1644584730.984375,P03,D02,1,1,1
1361,0.7,1644584731.0,P03,D02,1,1,1
1362,0.99,1644584731.015625,P03,D02,1,1,1
1363,1.09,1644584731.03125,P03,D02,1,1,1
1364,0.94,1644584731.046875,P03,D02,1,1,1
1365,0.58,1644584731.0625,P03,D02,1,1,1
1366,0.13,1644584731.078125,P03,D02,1,1,1
1367,-0.25,1644584731.09375,P03,D02,1,1,1
1368,-0.48,1644584731.109375,P03,D02,1,1,1
1369,-0.55,1644584731.125,P03,D02,1,1,1
1370,-0.51,1644584731.140625,P03,D02,1,1,1
1371,-0.38,1644584731.15625,P03,D02,1,1,1
1372,-0.2,1644584731.171875,P03,D02,1,1,1
1373,0.06,1644584731.1875,P03,D02,1,1,1
1374,0.37,1644584731.203125,P03,D02,1,1,1
1375,0.66,1644584731.21875,P03,D02,1,1,1
1376,0.81,1644584731.234375,P03,D02,1,1,1
1377,0.75,1644584731.25,P03,D02,1,1,1
1378,0.5,1644584731.265625,P03,D02,1,1,1
1379,0.14,1644584731.28125,P03,D02,1,1,1
1380,-0.21,1644584731.296875,P03,D02,1,1,1
1381,-0.44,1644584731.3125,P03,D02,1,1,1
1382,-0.55,1644584731.328125,P03,D02,1,1,1
1383,-0.61,1644584731.34375,P03,D02,1,1,1
1384,-0.68,1644584731.359375,P03,D02,1,1,1
1385,-0.78,1644584731.375,P03,D02,1,1,1
1386,-0.84,1644584731.390625,P03,D02,1,1,1
1387,-0.8,1644584731.40625,P03,D02,1,1,1
1388,-0.57,1644584731.421875,P03,D02,1,1,1
1389,-0.19,1644584731.4375,P03,D02,1,1,1
1390,0.26,1644584731.453125,P03,D02,1,1,1
1391,0.65,1644584731.46875,P03,D02,1,1,1
1392,0.88,1644584731.484375,P03,D02,1,1,1
1393,0.91,1644584731.5,P03,D02,1,1,1
1394,0.78,1644584731.515625,P03,D02,1,1,1
1395,0.57,1644584731.53125,P03,D02,1,1,1
1396,0.32,1644584731.546875,P03,D02,1,1,1
1397,0.05,1644584731.5625,P03,D02,1,1,1
1398,-0.23,1644584731.578125,P03,D02,1,1,1
1399,-0.53,1644584731.59375,P03,D02,1,1,1
1400,-0.8,1644584731.609375,P03,D02,1,1,1
1401,-0.94,1644584731.625,P03,D02,1,1,1
1402,-0.92,1644584731.640625,P03,D02,1,1,1
1403,-0.72,1644584731.65625,P03,D02,1,1,1
1404,-0.43,1644584731.671875,P03,D02,1,1,1
1405,-0.16,1644584731.6875,P03,D02,1,1,1
1406,0.02,1644584731.703125,P03,D02,1,1,1
1407,0.09,1644584731.71875,P03,D02,1,1,1
1408,0.11,1644584731.734375,P03,D02,1,1,1
1409,0.14,1644584731.75,P03,D02,1,1,1
1410,0.23,1644584731.765625,P03,D02,1,1,1
1411,0.34,1644584731.78125,P03,D02,1,1,1
1412,0.41,1644584731.796875,P03,D02,1,1,1
1413,0.38,1644584731.8125,P03,D02,1,1,1
1414,0.24,1644584731.828125,P03,D02,1,1,1
1415,0.0,1644584731.84375,P03,D02,1,1,1
1416,-0.25,1644584731.859375,P03,D02,1,1,1
1417,-0.43,1644584731.875,P03,D02,1,1,1
1418,-0.48,1644584731.890625,P03,D02,1,1,1
1419,-0.36,1644584731.90625,P03,D02,1,1,1
1420,-0.1,1644584731.921875,P03,D02,1,1,1
1421,0.21,1644584731.9375,P03,D02,1,1,1
1422,0.46,1644584731.953125,P03,D02,1,1,1
1423,0.55,1644584731.96875,P03,D02,1,1,1
1424,0.41,1644584731.984375,P03,D02,1,1,1
1425,0.07,1644584732.0,P03,D02,1,1,1
1426,-0.36,1644584732.015625,P03,D02,1,1,1
1427,-0.73,1644584732.03125,P03,D02,1,1,1
1428,-0.94,1644584732.046875,P03,D02,1,1,1
1429,-0.92,1644584732.0625,P03,D02,1,1,1
1430,-0.73,1644584732.078125,P03,D02,1,1,1
1431,-0.43,1644584732.09375,P03,D02,1,1,1
1432,-0.12,1644584732.109375,P03,D02,1,1,1
1433,0.16,1644584732.125,P03,D02,1,1,1
1434,0.38,1644584732.140625,P03,D02,1,1,1
1435,0.54,1644584732.15625,P03,D02,1,1,1
1436,0.63,1644584732.171875,P03,D02,1,1,1
1437,0.62,1644584732.1875,P03,D02,1,1,1
1438,0.48,1644584732.203125,P03,D02,1,1,1
1439,0.25,1644584732.21875,P03,D02,1,1,1
1440,-0.0,1644584732.234375,P03,D02,1,1,1
1441,-0.18,1644584732.25,P03,D02,1,1,1
1442,-0.24,1644584732.265625,P03,D02,1,1,1
1443,-0.21,1644584732.28125,P03,D02,1,1,1
1444,-0.19,1644584732.296875,P03,D02,1,1,1
1445,-0.26,1644584732.3125,P03,D02,1,1,1
1446,-0.44,1644584732.328125,P03,D02,1,1,1
1447,-0.61,1644584732.34375,P03,D02,1,1,1
1448,-0.66,1644584732.359375,P03,D02,1,1,1
1449,-0.49,1644584732.375,P03,D02,1,1,1
1450,-0.15,1644584732.390625,P03,D02,1,1,1
1451,0.22,1644584732.40625,P03,D02,1,1,1
1452,0.45,1644584732.421875,P03,D02,1,1,1
1453,0.45,1644584732.4375,P03,D02,1,1,1
1454,0.28,1644584732.453125,P03,D02,1,1,1
1455,0.08,1644584732.46875,P03,D02,1,1,1
1456,-0.02,1644584732.484375,P03,D02,1,1,1
1457,0.07,1644584732.5,P03,D02,1,1,1
1458,0.33,1644584732.515625,P03,D02,1,1,1
1459,0.67,1644584732.53125,P03,D02,1,1,1
1460,0.98,1644584732.546875,P03,D02,1,1,1
1461,1.16,1644584732.5625,P03,D02,1,1,1
1462,1.18,1644584732.578125,P03,D02,1,1,1
1463,1.03,1644584732.59375,P03,D02,1,1,1
1464,0.77,1644584732.609375,P03,D02,1,1,1
1465,0.47,1644584732.625,P03,D02,1,1,1
1466,0.21,1644584732.640625,P03,D02,1,1,1
1467,0.01,1644584732.65625,P03,D02,1,1,1
1468,-0.13,1644584732.671875,P03,D02,1,1,1
1469,-0.28,1644584732.6875,P03,D02,1,1,1
1470,-0.47,1644584732.703125,P03,D02,1,1,1
1471,-0.7,1644584732.71875,P03,D02,1,1,1
1472,-0.88,1644584732.734375,P03,D02,1,1,1
1473,-0.96,1644584732.75,P03,D02,1,1,1
1474,-0.91,1644584732.765625,P03,D02,1,1,1
1475,-0.76,1644584732.78125,P03,D02,1,1,1
1476,-0.59,1644584732.796875,P03,D02,1,1,1
1477,-0.44,1644584732.8125,P03,D02,1,1,1
1478,-0.32,1644584732.828125,P03,D02,1,1,1
1479,-0.21,1644584732.84375,P03,D02,1,1,1
1480,-0.08,1644584732.859375,P03,D02,1,1,1
1481,0.09,1644584732.875,P03,D02,1,1,1
1482,0.24,1644584732.890625,P03,D02,1,1,1
1483,0.33,1644584732.90625,P03,D02,1,1,1
1484,0.29,1644584732.921875,P03,D02,1,1,1
1485,0.13,1644584732.9375,P03,D02,1,1,1
1486,-0.11,1644584732.953125,P03,D02,1,1,1
1487,-0.35,1644584732.96875,P03,D02,1,1,1
1488,-0.46,1644584732.984375,P03,D02,1,1,1
1489,-0.4,1644584733.0,P03,D02,1,1,1
1490,-0.19,1644584733.015625,P03,D02,1,1,1
1491,0.07,1644584733.03125,P03,D02,1,1,1
1492,0.24,1644584733.046875,P03,D02,1,1,1
1493,0.24,1644584733.0625,P03,D02,1,1,1
1494,0.09,1644584733.078125,P03,D02,1,1,1
1495,-0.11,1644584733.09375,P03,D02,1,1,1
1496,-0.23,1644584733.109375,P03,D02,1,1,1
1497,-0.18,1644584733.125,P03,D02,1,1,1
1498,-0.0,1644584733.140625,P03,D02,1,1,1
1499,0.2,1644584733.15625,P03,D02,1,1,1
1500,0.33,1644584733.171875,P03,D02,1,1,1
1501,0.34,1644584733.1875,P03,D02,1,1,1
1502,0.29,1644584733.203125,P03,D02,1,1,1
1503,0.27,1644584733.21875,P03,D02,1,1,1
1504,0.32,1644584733.234375,P03,D02,1,1,1
1505,0.44,1644584733.25,P03,D02,1,1,1
1506,0.56,1644584733.265625,P03,D02,1,1,1
1507,0.62,1644584733.28125,P03,D02,1,1,1
1508,0.62,1644584733.296875,P03,D02,1,1,1
1509,0.58,1644584733.3125,P03,D02,1,1,1
1510,0.54,1644584733.328125,P03,D02,1,1,1
1511,0.55,1644584733.34375,P03,D02,1,1,1
1512,0.57,1644584733.359375,P03,D02,1,1,1
1513,0.59,1644584733.375,P03,D02,1,1,1
1514,0.57,1644584733.390625,P03,D02,1,1,1
1515,0.51,1644584733.40625,P03,D02,1,1,1
1516,0.43,1644584733.421875,P03,D02,1,1,1
1517,0.32,1644584733.4375,P03,D02,1,1,1
1518,0.19,1644584733.453125,P03,D02,1,1,1
1519,0.03,1644584733.46875,P03,D02,1,1,1
1520,-0.12,1644584733.484375,P03,D02,1,1,1
1521,-0.21,1644584733.5,P03,D02,1,1,1
1522,-0.17,1644584733.515625,P03,D02,1,1,1
1523,0.03,1644584733.53125,P03,D02,1,1,1
1524,0.3,1644584733.546875,P03,D02,1,1,1
1525,0.53,1644584733.5625,P03,D02,1,1,1
1526,0.56,1644584733.578125,P03,D02,1,1,1
1527,0.33,1644584733.59375,P03,D02,1,1,1
1528,-0.11,1644584733.609375,P03,D02,1,1,1
1529,-0.62,1644584733.625,P03,D02,1,1,1
1530,-1.02,1644584733.640625,P03,D02,1,1,1
1531,-1.21,1644584733.65625,P03,D02,1,1,1
1532,-1.17,1644584733.671875,P03,D02,1,1,1
1533,-0.94,1644584733.6875,P03,D02,1,1,1
1534,-0.6,1644584733.703125,P03,D02,1,1,1
1535,-0.19,1644584733.71875,P03,D02,1,1,1
1536,0.24,1644584733.734375,P03,D02,1,1,1
1537,0.61,1644584733.75,P03,D02,1,1,1
1538,0.81,1644584733.765625,P03,D02,1,1,1
1539,0.74,1644584733.78125,P03,D02,1,1,1
1540,0.39,1644584733.796875,P03,D02,1,1,1
1541,-0.14,1644584733.8125,P03,D02,1,1,1
1542,-0.67,1644584733.828125,P03,D02,1,1,1
1543,-1.0,1644584733.84375,P03,D02,1,1,1
1544,-1.03,1644584733.859375,P03,D02,1,1,1
1545,-0.81,1644584733.875,P03,D02,1,1,1
1546,-0.46,1644584733.890625,P03,D02,1,1,1
1547,-0.14,1644584733.90625,P03,D02,1,1,1
1548,0.06,1644584733.921875,P03,D02,1,1,1
1549,0.14,1644584733.9375,P03,D02,1,1,1
1550,0.16,1644584733.953125,P03,D02,1,1,1
1551,0.19,1644584733.96875,P03,D02,1,1,1
1552,0.24,1644584733.984375,P03,D02,1,1,1
1553,0.29,1644584734.0,P03,D02,1,1,1
1554,0.31,1644584734.015625,P03,D02,1,1,1
1555,0.27,1644584734.03125,P03,D02,1,1,1
1556,0.19,1644584734.046875,P03,D02,1,1,1
1557,0.08,1644584734.0625,P03,D02,1,1,1
1558,-0.03,1644584734.078125,P03,D02,1,1,1
1559,-0.14,1644584734.09375,P03,D02,1,1,1
1560,-0.24,1644584734.109375,P03,D02,1,1,1
1561,-0.32,1644584734.125,P03,D02,1,1,1
1562,-0.36,1644584734.140625,P03,D02,1,1,1
1563,-0.34,1644584734.15625,P03,D02,1,1,1
1564,-0.26,1644584734.171875,P03,D02,1,1,1
1565,-0.14,1644584734.1875,P03,D02,1,1,1
1566,-0.01,1644584734.203125,P03,D02,1,1,1
1567,0.08,1644584734.21875,P03,D02,1,1,1
1568,0.12,1644584734.234375,P03,D02,1,1,1
1569,0.14,1644584734.25,P03,D02,1,1,1
1570,0.16,1644584734.265625,P03,D02,1,1,1
1571,0.22,1644584734.28125,P03,D02,1,1,1
1572,0.27,1644584734.296875,P03,D02,1,1,1
1573,0.25,1644584734.3125,P03,D02,1,1,1
1574,0.07,1644584734.328125,P03,D02,1,1,1
1575,-0.26,1644584734.34375,P03,D02,1,1,1
1576,-0.68,1644584734.359375,P03,D02,1,1,1
1577,-1.05,1644584734.375,P03,D02,1,1,1
1578,-1.28,1644584734.390625,P03,D02,1,1,1
1579,-1.31,1644584734.40625,P03,D02,1,1,1
1580,-1.16,1644584734.421875,P03,D02,1,1,1
1581,-0.92,1644584734.4375,P03,D02,1,1,1
1582,-0.67,1644584734.453125,P03,D02,1,1,1
1583,-0.39,1644584734.46875,P03,D02,1,1,1
1584,-0.09,1644584734.484375,P03,D02,1,1,1
1585,0.27,1644584734.5,P03,D02,1,1,1
1586,0.63,1644584734.515625,P03,D02,1,1,1
1587,0.91,1644584734.53125,P03,D02,1,1,1
1588,1.01,1644584734.546875,P03,D02,1,1,1
1589,0.92,1644584734.5625,P03,D02,1,1,1
1590,0.72,1644584734.578125,P03,D02,1,1,1
1591,0.52,1644584734.59375,P03,D02,1,1,1
1592,0.41,1644584734.609375,P03,D02,1,1,1
1593,0.4,1644584734.625,P03,D02,1,1,1
1594,0.4,1644584734.640625,P03,D02,1,1,1
1595,0.34,1644584734.65625,P03,D02,1,1,1
1596,0.2,1644584734.671875,P03,D02,1,1,1
1597,0.01,1644584734.6875,P03,D02,1,1,1
1598,-0.13,1644584734.703125,P03,D02,1,1,1
1599,-0.18,1644584734.71875,P03,D02,1,1,1
1600,-0.1,1644584734.734375,P03,D02,1,1,1
1601,0.07,1644584734.75,P03,D02,1,1,1
1602,0.3,1644584734.765625,P03,D02,1,1,1
1603,0.52,1644584734.78125,P03,D02,1,1,1
1604,0.68,1644584734.796875,P03,D02,1,1,1
1605,0.7,1644584734.8125,P03,D02,1,1,1
1606,0.53,1644584734.828125,P03,D02,1,1,1
1607,0.2,1644584734.84375,P03,D02,1,1,1
1608,-0.2,1644584734.859375,P03,D02,1,1,1
1609,-0.54,1644584734.875,P03,D02,1,1,1
1610,-0.67,1644584734.890625,P03,D02,1,1,1
1611,-0.55,1644584734.90625,P03,D02,1,1,1
1612,-0.26,1644584734.921875,P03,D02,1,1,1
1613,0.03,1644584734.9375,P03,D02,1,1,1
1614,0.19,1644584734.953125,P03,D02,1,1,1
1615,0.16,1644584734.96875,P03,D02,1,1,1
1616,-0.0,1644584734.984375,P03,D02,1,1,1
1617,-0.16,1644584735.0,P03,D02,1,1,1
1618,-0.22,1644584735.015625,P03,D02,1,1,1
1619,-0.16,1644584735.03125,P03,D02,1,1,1
1620,-0.07,1644584735.046875,P03,D02,1,1,1
1621,-0.06,1644584735.0625,P03,D02,1,1,1
1622,-0.17,1644584735.078125,P03,D02,1,1,1
1623,-0.35,1644584735.09375,P03,D02,1,1,1
1624,-0.48,1644584735.109375,P03,D02,1,1,1
1625,-0.45,1644584735.125,P03,D02,1,1,1
1626,-0.24,1644584735.140625,P03,D02,1,1,1
1627,0.03,1644584735.15625,P03,D02,1,1,1
1628,0.25,1644584735.171875,P03,D02,1,1,1
1629,0.32,1644584735.1875,P03,D02,1,1,1
1630,0.25,1644584735.203125,P03,D02,1,1,1
1631,0.14,1644584735.21875,P03,D02,1,1,1
1632,0.07,1644584735.234375,P03,D02,1,1,1
1633,0.07,1644584735.25,P03,D02,1,1,1
1634,0.06,1644584735.265625,P03,D02,1,1,1
1635,-0.06,1644584735.28125,P03,D02,1,1,1
1636,-0.33,1644584735.296875,P03,D02,1,1,1
1637,-0.67,1644584735.3125,P03,D02,1,1,1
1638,-0.93,1644584735.328125,P03,D02,1,1,1
1639,-0.97,1644584735.34375,P03,D02,1,1,1
1640,-0.71,1644584735.359375,P03,D02,1,1,1
1641,-0.27,1644584735.375,P03,D02,1,1,1
1642,0.2,1644584735.390625,P03,D02,1,1,1
1643,0.49,1644584735.40625,P03,D02,1,1,1
1644,0.5,1644584735.421875,P03,D02,1,1,1
1645,0.29,1644584735.4375,P03,D02,1,1,1
1646,-0.03,1644584735.453125,P03,D02,1,1,1
1647,-0.28,1644584735.46875,P03,D02,1,1,1
1648,-0.35,1644584735.484375,P03,D02,1,1,1
1649,-0.2,1644584735.5,P03,D02,1,1,1
1650,0.11,1644584735.515625,P03,D02,1,1,1
1651,0.45,1644584735.53125,P03,D02,1,1,1
1652,0.71,1644584735.546875,P03,D02,1,1,1
1653,0.81,1644584735.5625,P03,D02,1,1,1
1654,0.77,1644584735.578125,P03,D02,1,1,1
1655,0.66,1644584735.59375,P03,D02,1,1,1
1656,0.58,1644584735.609375,P03,D02,1,1,1
1657,0.6,1644584735.625,P03,D02,1,1,1
1658,0.72,1644584735.640625,P03,D02,1,1,1
1659,0.86,1644584735.65625,P03,D02,1,1,1
1660,0.93,1644584735.671875,P03,D02,1,1,1
1661,0.91,1644584735.6875,P03,D02,1,1,1
1662,0.8,1644584735.703125,P03,D02,1,1,1
1663,0.67,1644584735.71875,P03,D02,1,1,1
1664,0.57,1644584735.734375,P03,D02,1,1,1
1665,0.51,1644584735.75,P03,D02,1,1,1
1666,0.43,1644584735.765625,P03,D02,1,1,1
1667,0.27,1644584735.78125,P03,D02,1,1,1
1668,-0.01,1644584735.796875,P03,D02,1,1,1
1669,-0.36,1644584735.8125,P03,D02,1,1,1
1670,-0.7,1644584735.828125,P03,D02,1,1,1
1671,-0.93,1644584735.84375,P03,D02,1,1,1
1672,-0.97,1644584735.859375,P03,D02,1,1,1
1673,-0.81,1644584735.875,P03,D02,1,1,1
1674,-0.5,1644584735.890625,P03,D02,1,1,1
1675,-0.14,1644584735.90625,P03,D02,1,1,1
1676,0.15,1644584735.921875,P03,D02,1,1,1
1677,0.3,1644584735.9375,P03,D02,1,1,1
1678,0.24,1644584735.953125,P03,D02,1,1,1
1679,0.0,1644584735.96875,P03,D02,1,1,1
1680,-0.33,1644584735.984375,P03,D02,1,1,1
1681,-0.65,1644584736.0,P03,D02,1,1,1
1682,-0.85,1644584736.015625,P03,D02,1,1,1
1683,-0.9,1644584736.03125,P03,D02,1,1,1
1684,-0.8,1644584736.046875,P03,D02,1,1,1
1685,-0.64,1644584736.0625,P03,D02,1,1,1
1686,-0.48,1644584736.078125,P03,D02,1,1,1
1687,-0.36,1644584736.09375,P03,D02,1,1,1
1688,-0.27,1644584736.109375,P03,D02,1,1,1
1689,-0.21,1644584736.125,P03,D02,1,1,1
1690,-0.14,1644584736.140625,P03,D02,1,1,1
1691,-0.06,1644584736.15625,P03,D02,1,1,1
1692,0.02,1644584736.171875,P03,D02,1,1,1
1693,0.1,1644584736.1875,P03,D02,1,1,1
1694,0.16,1644584736.203125,P03,D02,1,1,1
1695,0.16,1644584736.21875,P03,D02,1,1,1
1696,0.09,1644584736.234375,P03,D02,1,1,1
1697,-0.05,1644584736.25,P03,D02,1,1,1
1698,-0.24,1644584736.265625,P03,D02,1,1,1
1699,-0.39,1644584736.28125,P03,D02,1,1,1
1700,-0.42,1644584736.296875,P03,D02,1,1,1
1701,-0.29,1644584736.3125,P03,D02,1,1,1
1702,-0.01,1644584736.328125,P03,D02,1,1,1
1703,0.32,1644584736.34375,P03,D02,1,1,1
1704,0.58,1644584736.359375,P03,D02,1,1,1
1705,0.68,1644584736.375,P03,D02,1,1,1
1706,0.62,1644584736.390625,P03,D02,1,1,1
1707,0.44,1644584736.40625,P03,D02,1,1,1
1708,0.21,1644584736.421875,P03,D02,1,1,1
1709,-0.01,1644584736.4375,P03,D02,1,1,1
1710,-0.21,1644584736.453125,P03,D02,1,1,1
1711,-0.39,1644584736.46875,P03,D02,1,1,1
1712,-0.56,1644584736.484375,P03,D02,1,1,1
1713,-0.67,1644584736.5,P03,D02,1,1,1
1714,-0.7,1644584736.515625,P03,D02,1,1,1
1715,-0.62,1644584736.53125,P03,D02,1,1,1
1716,-0.45,1644584736.546875,P03,D02,1,1,1
1717,-0.26,1644584736.5625,P03,D02,1,1,1
1718,-0.13,1644584736.578125,P03,D02,1,1,1
1719,-0.11,1644584736.59375,P03,D02,1,1,1
1720,-0.17,1644584736.609375,P03,D02,1,1,1
1721,-0.26,1644584736.625,P03,D02,1,1,1
1722,-0.28,1644584736.640625,P03,D02,1,1,1
1723,-0.19,1644584736.65625,P03,D02,1,1,1
1724,0.03,1644584736.671875,P03,D02,1,1,1
1725,0.3,1644584736.6875,P03,D02,1,1,1
1726,0.52,1644584736.703125,P03,D02,1,1,1
1727,0.63,1644584736.71875,P03,D02,1,1,1
1728,0.62,1644584736.734375,P03,D02,1,1,1
1729,0.53,1644584736.75,P03,D02,1,1,1
1730,0.43,1644584736.765625,P03,D02,1,1,1
1731,0.38,1644584736.78125,P03,D02,1,1,1
1732,0.37,1644584736.796875,P03,D02,1,1,1
1733,0.4,1644584736.8125,P03,D02,1,1,1
1734,0.42,1644584736.828125,P03,D02,1,1,1
1735,0.43,1644584736.84375,P03,D02,1,1,1
1736,0.43,1644584736.859375,P03,D02,1,1,1
1737,0.42,1644584736.875,P03,D02,1,1,1
1738,0.39,1644584736.890625,P03,D02,1,1,1
1739,0.33,1644584736.90625,P03,D02,1,1,1
1740,0.19,1644584736.921875,P03,D02,1,1,1
1741,-0.03,1644584736.9375,P03,D02,1,1,1
1742,-0.33,1644584736.953125,P03,D02,1,1,1
1743,-0.64,1644584736.96875,P03,D02,1,1,1
1744,-0.89,1644584736.984375,P03,D02,1,1,1
1745,-1.02,1644584737.0,P03,D02,1,1,1
1746,-0.96,1644584737.015625,P03,D02,1,1,1
1747,-0.73,1644584737.03125,P03,D02,1,1,1
1748,-0.38,1644584737.046875,P03,D02,1,1,1
1749,-0.01,1644584737.0625,P03,D02,1,1,1
1750,0.29,1644584737.078125,P03,D02,1,1,1
1751,0.44,1644584737.09375,P03,D02,1,1,1
1752,0.46,1644584737.109375,P03,D02,1,1,1
1753,0.36,1644584737.125,P03,D02,1,1,1
1754,0.21,1644584737.140625,P03,D02,1,1,1
1755,0.04,1644584737.15625,P03,D02,1,1,1
1756,-0.15,1644584737.171875,P03,D02,1,1,1
1757,-0.34,1644584737.1875,P03,D02,1,1,1
1758,-0.5,1644584737.203125,P03,D02,1,1,1
1759,-0.57,1644584737.21875,P03,D02,1,1,1
1760,-0.5,1644584737.234375,P03,D02,1,1,1
1761,-0.3,1644584737.25,P03,D02,1,1,1
1762,-0.02,1644584737.265625,P03,D02,1,1,1
1763,0.26,1644584737.28125,P03,D02,1,1,1
1764,0.42,1644584737.296875,P03,D02,1,1,1
1765,0.43,1644584737.3125,P03,D02,1,1,1
1766,0.3,1644584737.328125,P03,D02,1,1,1
1767,0.12,1644584737.34375,P03,D02,1,1,1
1768,-0.04,1644584737.359375,P03,D02,1,1,1
1769,-0.13,1644584737.375,P03,D02,1,1,1
1770,-0.17,1644584737.390625,P03,D02,1,1,1
1771,-0.21,1644584737.40625,P03,D02,1,1,1
1772,-0.28,1644584737.421875,P03,D02,1,1,1
1773,-0.35,1644584737.4375,P03,D02,1,1,1
1774,-0.34,1644584737.453125,P03,D02,1,1,1
1775,-0.19,1644584737.46875,P03,D02,1,1,1
1776,0.12,1644584737.484375,P03,D02,1,1,1
1777,0.54,1644584737.5,P03,D02,1,1,1
1778,0.93,1644584737.515625,P03,D02,1,1,1
1779,1.2,1644584737.53125,P03,D02,1,1,1
1780,1.3,1644584737.546875,P03,D02,1,1,1
1781,1.23,1644584737.5625,P03,D02,1,1,1
1782,1.04,1644584737.578125,P03,D02,1,1,1
1783,0.8,1644584737.59375,P03,D02,1,1,1
1784,0.53,1644584737.609375,P03,D02,1,1,1
1785,0.24,1644584737.625,P03,D02,1,1,1
1786,-0.03,1644584737.640625,P03,D02,1,1,1
1787,-0.22,1644584737.65625,P03,D02,1,1,1
1788,-0.28,1644584737.671875,P03,D02,1,1,1
1789,-0.19,1644584737.6875,P03,D02,1,1,1
1790,-0.02,1644584737.703125,P03,D02,1,1,1
1791,0.13,1644584737.71875,P03,D02,1,1,1
1792,0.17,1644584737.734375,P03,D02,1,1,1
1793,0.07,1644584737.75,P03,D02,1,1,1
1794,-0.15,1644584737.765625,P03,D02,1,1,1
1795,-0.37,1644584737.78125,P03,D02,1,1,1
1796,-0.51,1644584737.796875,P03,D02,1,1,1
1797,-0.53,1644584737.8125,P03,D02,1,1,1
1798,-0.44,1644584737.828125,P03,D02,1,1,1
1799,-0.32,1644584737.84375,P03,D02,1,1,1
1800,-0.23,1644584737.859375,P03,D02,1,1,1
1801,-0.19,1644584737.875,P03,D02,1,1,1
1802,-0.18,1644584737.890625,P03,D02,1,1,1
1803,-0.19,1644584737.90625,P03,D02,1,1,1
1804,-0.18,1644584737.921875,P03,D02,1,1,1
1805,-0.17,1644584737.9375,P03,D02,1,1,1
1806,-0.16,1644584737.953125,P03,D02,1,1,1
1807,-0.19,1644584737.96875,P03,D02,1,1,1
1808,-0.23,1644584737.984375,P03,D02,1,1,1
1809,-0.27,1644584738.0,P03,D02,1,1,1
1810,-0.25,1644584738.015625,P03,D02,1,1,1
1811,-0.14,1644584738.03125,P03,D02,1,1,1
1812,0.05,1644584738.046875,P03,D02,1,1,1
1813,0.26,1644584738.0625,P03,D02,1,1,1
1814,0.39,1644584738.078125,P03,D02,1,1,1
1815,0.37,1644584738.09375,P03,D02,1,1,1
1816,0.2,1644584738.109375,P03,D02,1,1,1
1817,-0.05,1644584738.125,P03,D02,1,1,1
1818,-0.24,1644584738.140625,P03,D02,1,1,1
1819,-0.29,1644584738.15625,P03,D02,1,1,1
1820,-0.17,1644584738.171875,P03,D02,1,1,1
1821,0.08,1644584738.1875,P03,D02,1,1,1
1822,0.33,1644584738.203125,P03,D02,1,1,1
1823,0.46,1644584738.21875,P03,D02,1,1,1
1824,0.41,1644584738.234375,P03,D02,1,1,1
1825,0.18,1644584738.25,P03,D02,1,1,1
1826,-0.13,1644584738.265625,P03,D02,1,1,1
1827,-0.42,1644584738.28125,P03,D02,1,1,1
1828,-0.59,1644584738.296875,P03,D02,1,1,1
1829,-0.58,1644584738.3125,P03,D02,1,1,1
1830,-0.42,1644584738.328125,P03,D02,1,1,1
1831,-0.18,1644584738.34375,P03,D02,1,1,1
1832,0.03,1644584738.359375,P03,D02,1,1,1
1833,0.16,1644584738.375,P03,D02,1,1,1
1834,0.18,1644584738.390625,P03,D02,1,1,1
1835,0.12,1644584738.40625,P03,D02,1,1,1
1836,0.06,1644584738.421875,P03,D02,1,1,1
1837,0.04,1644584738.4375,P03,D02,1,1,1
1838,0.07,1644584738.453125,P03,D02,1,1,1
1839,0.11,1644584738.46875,P03,D02,1,1,1
1840,0.13,1644584738.484375,P03,D02,1,1,1
1841,0.11,1644584738.5,P03,D02,1,1,1
1842,0.07,1644584738.515625,P03,D02,1,1,1
1843,0.05,1644584738.53125,P03,D02,1,1,1
1844,0.09,1644584738.546875,P03,D02,1,1,1
1845,0.16,1644584738.5625,P03,D02,1,1,1
1846,0.26,1644584738.578125,P03,D02,1,1,1
1847,0.37,1644584738.59375,P03,D02,1,1,1
1848,0.51,1644584738.609375,P03,D02,1,1,1
1849,0.7,1644584738.625,P03,D02,1,1,1
1850,0.95,1644584738.640625,P03,D02,1,1,1
1851,1.22,1644584738.65625,P03,D02,1,1,1
1852,1.4,1644584738.671875,P03,D02,1,1,1
1853,1.4,1644584738.6875,P03,D02,1,1,1
1854,1.18,1644584738.703125,P03,D02,1,1,1
1855,0.77,1644584738.71875,P03,D02,1,1,1
1856,0.28,1644584738.734375,P03,D02,1,1,1
1857,-0.14,1644584738.75,P03,D02,1,1,1
1858,-0.43,1644584738.765625,P03,D02,1,1,1
1859,-0.59,1644584738.78125,P03,D02,1,1,1
1860,-0.68,1644584738.796875,P03,D02,1,1,1
1861,-0.77,1644584738.8125,P03,D02,1,1,1
1862,-0.87,1644584738.828125,P03,D02,1,1,1
1863,-0.94,1644584738.84375,P03,D02,1,1,1
1864,-0.9,1644584738.859375,P03,D02,1,1,1
1865,-0.7,1644584738.875,P03,D02,1,1,1
1866,-0.4,1644584738.890625,P03,D02,1,1,1
1867,-0.11,1644584738.90625,P03,D02,1,1,1
1868,0.08,1644584738.921875,P03,D02,1,1,1
1869,0.09,1644584738.9375,P03,D02,1,1,1
1870,-0.04,1644584738.953125,P03,D02,1,1,1
1871,-0.21,1644584738.96875,P03,D02,1,1,1
1872,-0.29,1644584738.984375,P03,D02,1,1,1
1873,-0.27,1644584739.0,P03,D02,1,1,1
1874,-0.17,1644584739.015625,P03,D02,1,1,1
1875,-0.1,1644584739.03125,P03,D02,1,1,1
1876,-0.16,1644584739.046875,P03,D02,1,1,1
1877,-0.36,1644584739.0625,P03,D02,1,1,1
1878,-0.65,1644584739.078125,P03,D02,1,1,1
1879,-0.91,1644584739.09375,P03,D02,1,1,1
1880,-1.03,1644584739.109375,P03,D02,1,1,1
1881,-0.96,1644584739.125,P03,D02,1,1,1
1882,-0.72,1644584739.140625,P03,D02,1,1,1
1883,-0.39,1644584739.15625,P03,D02,1,1,1
1884,-0.07,1644584739.171875,P03,D02,1,1,1
1885,0.16,1644584739.1875,P03,D02,1,1,1
1886,0.27,1644584739.203125,P03,D02,1,1,1
1887,0.29,1644584739.21875,P03,D02,1,1,1
1888,0.26,1644584739.234375,P03,D02,1,1,1
1889,0.24,1644584739.25,P03,D02,1,1,1
1890,0.24,1644584739.265625,P03,D02,1,1,1
1891,0.28,1644584739.28125,P03,D02,1,1,1
1892,0.35,1644584739.296875,P03,D02,1,1,1
1893,0.41,1644584739.3125,P03,D02,1,1,1
1894,0.46,1644584739.328125,P03,D02,1,1,1
1895,0.48,1644584739.34375,P03,D02,1,1,1
1896,0.47,1644584739.359375,P03,D02,1,1,1
1897,0.41,1644584739.375,P03,D02,1,1,1
1898,0.31,1644584739.390625,P03,D02,1,1,1
1899,0.19,1644584739.40625,P03,D02,1,1,1
1900,0.09,1644584739.421875,P03,D02,1,1,1
1901,0.05,1644584739.4375,P03,D02,1,1,1
1902,0.06,1644584739.453125,P03,D02,1,1,1
1903,0.11,1644584739.46875,P03,D02,1,1,1
1904,0.14,1644584739.484375,P03,D02,1,1,1
1905,0.1,1644584739.5,P03,D02,1,1,1
1906,-0.01,1644584739.515625,P03,D02,1,1,1
1907,-0.14,1644584739.53125,P03,D02,1,1,1
1908,-0.25,1644584739.546875,P03,D02,1,1,1
1909,-0.27,1644584739.5625,P03,D02,1,1,1
1910,-0.19,1644584739.578125,P03,D02,1,1,1
1911,-0.02,1644584739.59375,P03,D02,1,1,1
1912,0.23,1644584739.609375,P03,D02,1,1,1
1913,0.54,1644584739.625,P03,D02,1,1,1
1914,0.84,1644584739.640625,P03,D02,1,1,1
1915,1.1,1644584739.65625,P03,D02,1,1,1
1916,1.25,1644584739.671875,P03,D02,1,1,1
1917,1.24,1644584739.6875,P03,D02,1,1,1
1918,1.06,1644584739.703125,P03,D02,1,1,1
1919,0.75,1644584739.71875,P03,D02,1,1,1
1920,0.39,1644584739.734375,P03,D02,1,1,1
1921,0.05,1644584739.75,P03,D02,1,1,1
1922,-0.19,1644584739.765625,P03,D02,1,1,1
1923,-0.33,1644584739.78125,P03,D02,1,1,1
1924,-0.41,1644584739.796875,P03,D02,1,1,1
1925,-0.46,1644584739.8125,P03,D02,1,1,1
1926,-0.5,1644584739.828125,P03,D02,1,1,1
1927,-0.53,1644584739.84375,P03,D02,1,1,1
1928,-0.53,1644584739.859375,P03,D02,1,1,1
1929,-0.47,1644584739.875,P03,D02,1,1,1
1930,-0.37,1644584739.890625,P03,D02,1,1,1
1931,-0.25,1644584739.90625,P03,D02,1,1,1
1932,-0.14,1644584739.921875,P03,D02,1,1,1
1933,-0.08,1644584739.9375,P03,D02,1,1,1
1934,-0.06,1644584739.953125,P03,D02,1,1,1
1935,-0.06,1644584739.96875,P03,D02,1,1,1
1936,-0.06,1644584739.984375,P03,D02,1,1,1
1937,-0.02,1644584740.0,P03,D02,1,1,1
1938,0.02,1644584740.015625,P03,D02,1,1,1
1939,0.03,1644584740.03125,P03,D02,1,1,1
1940,-0.04,1644584740.046875,P03,D02,1,1,1
1941,-0.17,1644584740.0625,P03,D02,1,1,1
1942,-0.35,1644584740.078125,P03,D02,1,1,1
1943,-0.49,1644584740.09375,P03,D02,1,1,1
1944,-0.54,1644584740.109375,P03,D02,1,1,1
1945,-0.45,1644584740.125,P03,D02,1,1,1
1946,-0.25,1644584740.140625,P03,D02,1,1,1
1947,-0.01,1644584740.15625,P03,D02,1,1,1
1948,0.19,1644584740.171875,P03,D02,1,1,1
1949,0.27,1644584740.1875,P03,D02,1,1,1
1950,0.18,1644584740.203125,P03,D02,1,1,1
1951,-0.05,1644584740.21875,P03,D02,1,1,1
1952,-0.37,1644584740.234375,P03,D02,1,1,1
1953,-0.66,1644584740.25,P03,D02,1,1,1
1954,-0.81,1644584740.265625,P03,D02,1,1,1
1955,-0.77,1644584740.28125,P03,D02,1,1,1
1956,-0.53,1644584740.296875,P03,D02,1,1,1
1957,-0.16,1644584740.3125,P03,D02,1,1,1
1958,0.22,1644584740.328125,P03,D02,1,1,1
1959,0.48,1644584740.34375,P03,D02,1,1,1
1960,0.56,1644584740.359375,P03,D02,1,1,1
1961,0.46,1644584740.375,P03,D02,1,1,1
1962,0.25,1644584740.390625,P03,D02,1,1,1
1963,0.01,1644584740.40625,P03,D02,1,1,1
1964,-0.21,1644584740.421875,P03,D02,1,1,1
1965,-0.35,1644584740.4375,P03,D02,1,1,1
1966,-0.41,1644584740.453125,P03,D02,1,1,1
1967,-0.37,1644584740.46875,P03,D02,1,1,1
1968,-0.24,1644584740.484375,P03,D02,1,1,1
1969,-0.05,1644584740.5,P03,D02,1,1,1
1970,0.15,1644584740.515625,P03,D02,1,1,1
1971,0.3,1644584740.53125,P03,D02,1,1,1
1972,0.34,1644584740.546875,P03,D02,1,1,1
1973,0.29,1644584740.5625,P03,D02,1,1,1
1974,0.18,1644584740.578125,P03,D02,1,1,1
1975,0.08,1644584740.59375,P03,D02,1,1,1
1976,0.04,1644584740.609375,P03,D02,1,1,1
1977,0.06,1644584740.625,P03,D02,1,1,1
1978,0.12,1644584740.640625,P03,D02,1,1,1
1979,0.18,1644584740.65625,P03,D02,1,1,1
1980,0.2,1644584740.671875,P03,D02,1,1,1
1981,0.2,1644584740.6875,P03,D02,1,1,1
1982,0.23,1644584740.703125,P03,D02,1,1,1
1983,0.32,1644584740.71875,P03,D02,1,1,1
1984,0.49,1644584740.734375,P03,D02,1,1,1
1985,0.67,1644584740.75,P03,D02,1,1,1
1986,0.78,1644584740.765625,P03,D02,1,1,1
1987,0.72,1644584740.78125,P03,D02,1,1,1
1988,0.47,1644584740.796875,P03,D02,1,1,1
1989,0.11,1644584740.8125,P03,D02,1,1,1
1990,-0.25,1644584740.828125,P03,D02,1,1,1
1991,-0.49,1644584740.84375,P03,D02,1,1,1
1992,-0.55,1644584740.859375,P03,D02,1,1,1
1993,-0.49,1644584740.875,P03,D02,1,1,1
1994,-0.42,1644584740.890625,P03,D02,1,1,1
1995,-0.41,1644584740.90625,P03,D02,1,1,1
1996,-0.51,1644584740.921875,P03,D02,1,1,1
1997,-0.66,1644584740.9375,P03,D02,1,1,1
1998,-0.76,1644584740.953125,P03,D02,1,1,1
1999,-0.7,1644584740.96875,P03,D02,1,1,1
2000,-0.48,1644584740.984375,P03,D02,1,1,1
2001,-0.16,1644584741.0,P03,D02,1,1,1
2002,0.16,1644584741.015625,P03,D02,1,1,1
2003,0.37,1644584741.03125,P03,D02,1,1,1
2004,0.4,1644584741.046875,P03,D02,1,1,1
2005,0.27,1644584741.0625,P03,D02,1,1,1
2006,0.05,1644584741.078125,P03,D02,1,1,1
2007,-0.15,1644584741.09375,P03,D02,1,1,1
2008,-0.25,1644584741.109375,P03,D02,1,1,1
2009,-0.22,1644584741.125,P03,D02,1,1,1
2010,-0.08,1644584741.140625,P03,D02,1,1,1
2011,0.09,1644584741.15625,P03,D02,1,1,1
2012,0.24,1644584741.171875,P03,D02,1,1,1
2013,0.32,1644584741.1875,P03,D02,1,1,1
2014,0.3,1644584741.203125,P03,D02,1,1,1
2015,0.2,1644584741.21875,P03,D02,1,1,1
2016,0.07,1644584741.234375,P03,D02,1,1,1
2017,-0.06,1644584741.25,P03,D02,1,1,1
2018,-0.15,1644584741.265625,P03,D02,1,1,1
2019,-0.2,1644584741.28125,P03,D02,1,1,1
2020,-0.21,1644584741.296875,P03,D02,1,1,1
2021,-0.23,1644584741.3125,P03,D02,1,1,1
2022,-0.26,1644584741.328125,P03,D02,1,1,1
2023,-0.31,1644584741.34375,P03,D02,1,1,1
2024,-0.35,1644584741.359375,P03,D02,1,1,1
2025,-0.33,1644584741.375,P03,D02,1,1,1
2026,-0.23,1644584741.390625,P03,D02,1,1,1
2027,-0.07,1644584741.40625,P03,D02,1,1,1
2028,0.09,1644584741.421875,P03,D02,1,1,1
2029,0.19,1644584741.4375,P03,D02,1,1,1
2030,0.21,1644584741.453125,P03,D02,1,1,1
2031,0.16,1644584741.46875,P03,D02,1,1,1
2032,0.1,1644584741.484375,P03,D02,1,1,1
2033,0.05,1644584741.5,P03,D02,1,1,1
2034,0.01,1644584741.515625,P03,D02,1,1,1
2035,-0.07,1644584741.53125,P03,D02,1,1,1
2036,-0.2,1644584741.546875,P03,D02,1,1,1
2037,-0.36,1644584741.5625,P03,D02,1,1,1
2038,-0.47,1644584741.578125,P03,D02,1,1,1
2039,-0.45,1644584741.59375,P03,D02,1,1,1
2040,-0.28,1644584741.609375,P03,D02,1,1,1
2041,-0.01,1644584741.625,P03,D02,1,1,1
2042,0.26,1644584741.640625,P03,D02,1,1,1
2043,0.44,1644584741.65625,P03,D02,1,1,1
2044,0.52,1644584741.671875,P03,D02,1,1,1
2045,0.56,1644584741.6875,P03,D02,1,1,1
2046,0.61,1644584741.703125,P03,D02,1,1,1
2047,0.7,1644584741.71875,P03,D02,1,1,1
2048,0.79,1644584741.734375,P03,D02,1,1,1
2049,0.81,1644584741.75,P03,D02,1,1,1
2050,0.7,1644584741.765625,P03,D02,1,1,1
2051,0.49,1644584741.78125,P03,D02,1,1,1
2052,0.22,1644584741.796875,P03,D02,1,1,1
2053,-0.03,1644584741.8125,P03,D02,1,1,1
2054,-0.22,1644584741.828125,P03,D02,1,1,1
2055,-0.32,1644584741.84375,P03,D02,1,1,1
2056,-0.33,1644584741.859375,P03,D02,1,1,1
2057,-0.22,1644584741.875,P03,D02,1,1,1
2058,-0.01,1644584741.890625,P03,D02,1,1,1
2059,0.27,1644584741.90625,P03,D02,1,1,1
2060,0.53,1644584741.921875,P03,D02,1,1,1
2061,0.65,1644584741.9375,P03,D02,1,1,1
2062,0.51,1644584741.953125,P03,D02,1,1,1
2063,0.12,1644584741.96875,P03,D02,1,1,1
2064,-0.41,1644584741.984375,P03,D02,1,1,1
2065,-0.89,1644584742.0,P03,D02,1,1,1
2066,-1.15,1644584742.015625,P03,D02,1,1,1
2067,-1.1,1644584742.03125,P03,D02,1,1,1
2068,-0.77,1644584742.046875,P03,D02,1,1,1
2069,-0.29,1644584742.0625,P03,D02,1,1,1
2070,0.19,1644584742.078125,P03,D02,1,1,1
2071,0.56,1644584742.09375,P03,D02,1,1,1
2072,0.78,1644584742.109375,P03,D02,1,1,1
2073,0.86,1644584742.125,P03,D02,1,1,1
2074,0.81,1644584742.140625,P03,D02,1,1,1
2075,0.64,1644584742.15625,P03,D02,1,1,1
2076,0.37,1644584742.171875,P03,D02,1,1,1
2077,0.03,1644584742.1875,P03,D02,1,1,1
2078,-0.32,1644584742.203125,P03,D02,1,1,1
2079,-0.61,1644584742.21875,P03,D02,1,1,1
2080,-0.78,1644584742.234375,P03,D02,1,1,1
2081,-0.83,1644584742.25,P03,D02,1,1,1
2082,-0.82,1644584742.265625,P03,D02,1,1,1
2083,-0.8,1644584742.28125,P03,D02,1,1,1
2084,-0.81,1644584742.296875,P03,D02,1,1,1
2085,-0.86,1644584742.3125,P03,D02,1,1,1
2086,-0.89,1644584742.328125,P03,D02,1,1,1
2087,-0.89,1644584742.34375,P03,D02,1,1,1
2088,-0.82,1644584742.359375,P03,D02,1,1,1
2089,-0.71,1644584742.375,P03,D02,1,1,1
2090,-0.61,1644584742.390625,P03,D02,1,1,1
2091,-0.55,1644584742.40625,P03,D02,1,1,1
2092,-0.54,1644584742.421875,P03,D02,1,1,1
2093,-0.51,1644584742.4375,P03,D02,1,1,1
2094,-0.4,1644584742.453125,P03,D02,1,1,1
2095,-0.16,1644584742.46875,P03,D02,1,1,1
2096,0.19,1644584742.484375,P03,D02,1,1,1
2097,0.57,1644584742.5,P03,D02,1,1,1
2098,0.86,1644584742.515625,P03,D02,1,1,1
2099,0.94,1644584742.53125,P03,D02,1,1,1
2100,0.79,1644584742.546875,P03,D02,1,1,1
2101,0.46,1644584742.5625,P03,D02,1,1,1
2102,0.09,1644584742.578125,P03,D02,1,1,1
2103,-0.18,1644584742.59375,P03,D02,1,1,1
2104,-0.27,1644584742.609375,P03,D02,1,1,1
2105,-0.22,1644584742.625,P03,D02,1,1,1
2106,-0.08,1644584742.640625,P03,D02,1,1,1
2107,0.05,1644584742.65625,P03,D02,1,1,1
2108,0.13,1644584742.671875,P03,D02,1,1,1
2109,0.19,1644584742.6875,P03,D02,1,1,1
2110,0.24,1644584742.703125,P03,D02,1,1,1
2111,0.33,1644584742.71875,P03,D02,1,1,1
2112,0.45,1644584742.734375,P03,D02,1,1,1
2113,0.56,1644584742.75,P03,D02,1,1,1
2114,0.63,1644584742.765625,P03,D02,1,1,1
2115,0.64,1644584742.78125,P03,D02,1,1,1
2116,0.61,1644584742.796875,P03,D02,1,1,1
2117,0.57,1644584742.8125,P03,D02,1,1,1
2118,0.59,1644584742.828125,P03,D02,1,1,1
2119,0.69,1644584742.84375,P03,D02,1,1,1
2120,0.85,1644584742.859375,P03,D02,1,1,1
2121,1.01,1644584742.875,P03,D02,1,1,1
2122,1.07,1644584742.890625,P03,D02,1,1,1
2123,0.96,1644584742.90625,P03,D02,1,1,1
2124,0.66,1644584742.921875,P03,D02,1,1,1
2125,0.26,1644584742.9375,P03,D02,1,1,1
2126,-0.16,1644584742.953125,P03,D02,1,1,1
2127,-0.49,1644584742.96875,P03,D02,1,1,1
2128,-0.7,1644584742.984375,P03,D02,1,1,1
2129,-0.8,1644584743.0,P03,D02,1,1,1
2130,-0.85,1644584743.015625,P03,D02,1,1,1
2131,-0.85,1644584743.03125,P03,D02,1,1,1
2132,-0.81,1644584743.046875,P03,D02,1,1,1
2133,-0.68,1644584743.0625,P03,D02,1,1,1
2134,-0.45,1644584743.078125,P03,D02,1,1,1
2135,-0.14,1644584743.09375,P03,D02,1,1,1
2136,0.21,1644584743.109375,P03,D02,1,1,1
2137,0.53,1644584743.125,P03,D02,1,1,1
2138,0.79,1644584743.140625,P03,D02,1,1,1
2139,0.93,1644584743.15625,P03,D02,1,1,1
2140,0.91,1644584743.171875,P03,D02,1,1,1
2141,0.69,1644584743.1875,P03,D02,1,1,1
2142,0.29,1644584743.203125,P03,D02,1,1,1
2143,-0.18,1644584743.21875,P03,D02,1,1,1
2144,-0.57,1644584743.234375,P03,D02,1,1,1
2145,-0.75,1644584743.25,P03,D02,1,1,1
2146,-0.67,1644584743.265625,P03,D02,1,1,1
2147,-0.4,1644584743.28125,P03,D02,1,1,1
2148,-0.12,1644584743.296875,P03,D02,1,1,1
2149,0.02,1644584743.3125,P03,D02,1,1,1
2150,-0.06,1644584743.328125,P03,D02,1,1,1
2151,-0.31,1644584743.34375,P03,D02,1,1,1
2152,-0.62,1644584743.359375,P03,D02,1,1,1
2153,-0.84,1644584743.375,P03,D02,1,1,1
2154,-0.89,1644584743.390625,P03,D02,1,1,1
2155,-0.76,1644584743.40625,P03,D02,1,1,1
2156,-0.51,1644584743.421875,P03,D02,1,1,1
2157,-0.23,1644584743.4375,P03,D02,1,1,1
2158,0.01,1644584743.453125,P03,D02,1,1,1
2159,0.13,1644584743.46875,P03,D02,1,1,1
2160,0.11,1644584743.484375,P03,D02,1,1,1
2161,-0.0,1644584743.5,P03,D02,1,1,1
2162,-0.14,1644584743.515625,P03,D02,1,1,1
2163,-0.2,1644584743.53125,P03,D02,1,1,1
2164,-0.15,1644584743.546875,P03,D02,1,1,1
2165,0.02,1644584743.5625,P03,D02,1,1,1
2166,0.22,1644584743.578125,P03,D02,1,1,1
2167,0.38,1644584743.59375,P03,D02,1,1,1
2168,0.47,1644584743.609375,P03,D02,1,1,1
2169,0.52,1644584743.625,P03,D02,1,1,1
2170,0.58,1644584743.640625,P03,D02,1,1,1
2171,0.69,1644584743.65625,P03,D02,1,1,1
2172,0.81,1644584743.671875,P03,D02,1,1,1
2173,0.88,1644584743.6875,P03,D02,1,1,1
2174,0.8,1644584743.703125,P03,D02,1,1,1
2175,0.55,1644584743.71875,P03,D02,1,1,1
2176,0.19,1644584743.734375,P03,D02,1,1,1
2177,-0.15,1644584743.75,P03,D02,1,1,1
2178,-0.32,1644584743.765625,P03,D02,1,1,1
2179,-0.28,1644584743.78125,P03,D02,1,1,1
2180,-0.06,1644584743.796875,P03,D02,1,1,1
2181,0.19,1644584743.8125,P03,D02,1,1,1
2182,0.38,1644584743.828125,P03,D02,1,1,1
2183,0.45,1644584743.84375,P03,D02,1,1,1
2184,0.48,1644584743.859375,P03,D02,1,1,1
2185,0.53,1644584743.875,P03,D02,1,1,1
2186,0.65,1644584743.890625,P03,D02,1,1,1
2187,0.78,1644584743.90625,P03,D02,1,1,1
2188,0.8,1644584743.921875,P03,D02,1,1,1
2189,0.63,1644584743.9375,P03,D02,1,1,1
2190,0.28,1644584743.953125,P03,D02,1,1,1
2191,-0.15,1644584743.96875,P03,D02,1,1,1
2192,-0.5,1644584743.984375,P03,D02,1,1,1
2193,-0.64,1644584744.0,P03,D02,1,1,1
2194,-0.53,1644584744.015625,P03,D02,1,1,1
2195,-0.25,1644584744.03125,P03,D02,1,1,1
2196,0.09,1644584744.046875,P03,D02,1,1,1
2197,0.37,1644584744.0625,P03,D02,1,1,1
2198,0.5,1644584744.078125,P03,D02,1,1,1
2199,0.45,1644584744.09375,P03,D02,1,1,1
2200,0.21,1644584744.109375,P03,D02,1,1,1
2201,-0.17,1644584744.125,P03,D02,1,1,1
2202,-0.6,1644584744.140625,P03,D02,1,1,1
2203,-0.96,1644584744.15625,P03,D02,1,1,1
2204,-1.15,1644584744.171875,P03,D02,1,1,1
2205,-1.12,1644584744.1875,P03,D02,1,1,1
2206,-0.89,1644584744.203125,P03,D02,1,1,1
2207,-0.56,1644584744.21875,P03,D02,1,1,1
2208,-0.26,1644584744.234375,P03,D02,1,1,1
2209,-0.11,1644584744.25,P03,D02,1,1,1
2210,-0.15,1644584744.265625,P03,D02,1,1,1
2211,-0.37,1644584744.28125,P03,D02,1,1,1
2212,-0.66,1644584744.296875,P03,D02,1,1,1
2213,-0.93,1644584744.3125,P03,D02,1,1,1
2214,-1.08,1644584744.328125,P03,D02,1,1,1
2215,-1.07,1644584744.34375,P03,D02,1,1,1
2216,-0.9,1644584744.359375,P03,D02,1,1,1
2217,-0.63,1644584744.375,P03,D02,1,1,1
2218,-0.32,1644584744.390625,P03,D02,1,1,1
2219,-0.02,1644584744.40625,P03,D02,1,1,1
2220,0.25,1644584744.421875,P03,D02,1,1,1
2221,0.47,1644584744.4375,P03,D02,1,1,1
2222,0.65,1644584744.453125,P03,D02,1,1,1
2223,0.78,1644584744.46875,P03,D02,1,1,1
2224,0.86,1644584744.484375,P03,D02,1,1,1
2225,0.9,1644584744.5,P03,D02,1,1,1
2226,0.93,1644584744.515625,P03,D02,1,1,1
2227,0.98,1644584744.53125,P03,D02,1,1,1
2228,1.03,1644584744.546875,P03,D02,1,1,1
2229,1.05,1644584744.5625,P03,D02,1,1,1
2230,1.0,1644584744.578125,P03,D02,1,1,1
2231,0.84,1644584744.59375,P03,D02,1,1,1
2232,0.59,1644584744.609375,P03,D02,1,1,1
2233,0.31,1644584744.625,P03,D02,1,1,1
2234,0.08,1644584744.640625,P03,D02,1,1,1
2235,-0.06,1644584744.65625,P03,D02,1,1,1
2236,-0.07,1644584744.671875,P03,D02,1,1,1
2237,0.01,1644584744.6875,P03,D02,1,1,1
2238,0.14,1644584744.703125,P03,D02,1,1,1
2239,0.27,1644584744.71875,P03,D02,1,1,1
2240,0.35,1644584744.734375,P03,D02,1,1,1
2241,0.34,1644584744.75,P03,D02,1,1,1
2242,0.26,1644584744.765625,P03,D02,1,1,1
2243,0.13,1644584744.78125,P03,D02,1,1,1
2244,-0.0,1644584744.796875,P03,D02,1,1,1
2245,-0.08,1644584744.8125,P03,D02,1,1,1
2246,-0.11,1644584744.828125,P03,D02,1,1,1
2247,-0.1,1644584744.84375,P03,D02,1,1,1
2248,-0.12,1644584744.859375,P03,D02,1,1,1
2249,-0.21,1644584744.875,P03,D02,1,1,1
2250,-0.36,1644584744.890625,P03,D02,1,1,1
2251,-0.52,1644584744.90625,P03,D02,1,1,1
2252,-0.64,1644584744.921875,P03,D02,1,1,1
2253,-0.69,1644584744.9375,P03,D02,1,1,1
2254,-0.67,1644584744.953125,P03,D02,1,1,1
2255,-0.61,1644584744.96875,P03,D02,1,1,1
2256,-0.57,1644584744.984375,P03,D02,1,1,1
2257,-0.58,1644584745.0,P03,D02,1,1,1
2258,-0.61,1644584745.015625,P03,D02,1,1,1
2259,-0.65,1644584745.03125,P03,D02,1,1,1
2260,-0.61,1644584745.046875,P03,D02,1,1,1
2261,-0.47,1644584745.0625,P03,D02,1,1,1
2262,-0.2,1644584745.078125,P03,D02,1,1,1
2263,0.14,1644584745.09375,P03,D02,1,1,1
2264,0.45,1644584745.109375,P03,D02,1,1,1
2265,0.64,1644584745.125,P03,D02,1,1,1
2266,0.66,1644584745.140625,P03,D02,1,1,1
2267,0.52,1644584745.15625,P03,D02,1,1,1
2268,0.31,1644584745.171875,P03,D02,1,1,1
2269,0.11,1644584745.1875,P03,D02,1,1,1
2270,-0.01,1644584745.203125,P03,D02,1,1,1
2271,-0.1,1644584745.21875,P03,D02,1,1,1
2272,-0.23,1644584745.234375,P03,D02,1,1,1
2273,-0.44,1644584745.25,P03,D02,1,1,1
2274,-0.74,1644584745.265625,P03,D02,1,1,1
2275,-1.04,1644584745.28125,P03,D02,1,1,1
2276,-1.22,1644584745.296875,P03,D02,1,1,1
2277,-1.2,1644584745.3125,P03,D02,1,1,1
2278,-1.02,1644584745.328125,P03,D02,1,1,1
2279,-0.74,1644584745.34375,P03,D02,1,1,1
2280,-0.51,1644584745.359375,P03,D02,1,1,1
2281,-0.41,1644584745.375,P03,D02,1,1,1
2282,-0.43,1644584745.390625,P03,D02,1,1,1
2283,-0.51,1644584745.40625,P03,D02,1,1,1
2284,-0.51,1644584745.421875,P03,D02,1,1,1
2285,-0.35,1644584745.4375,P03,D02,1,1,1
2286,-0.02,1644584745.453125,P03,D02,1,1,1
2287,0.41,1644584745.46875,P03,D02,1,1,1
2288,0.81,1644584745.484375,P03,D02,1,1,1
2289,1.06,1644584745.5,P03,D02,1,1,1
2290,1.11,1644584745.515625,P03,D02,1,1,1
2291,0.98,1644584745.53125,P03,D02,1,1,1
2292,0.77,1644584745.546875,P03,D02,1,1,1
2293,0.56,1644584745.5625,P03,D02,1,1,1
2294,0.41,1644584745.578125,P03,D02,1,1,1
2295,0.34,1644584745.59375,P03,D02,1,1,1
2296,0.3,1644584745.609375,P03,D02,1,1,1
2297,0.26,1644584745.625,P03,D02,1,1,1
2298,0.21,1644584745.640625,P03,D02,1,1,1
2299,0.15,1644584745.65625,P03,D02,1,1,1
2300,0.09,1644584745.671875,P03,D02,1,1,1
2301,0.08,1644584745.6875,P03,D02,1,1,1
2302,0.16,1644584745.703125,P03,D02,1,1,1
2303,0.32,1644584745.71875,P03,D02,1,1,1
2304,0.54,1644584745.734375,P03,D02,1,1,1
2305,0.74,1644584745.75,P03,D02,1,1,1
2306,0.85,1644584745.765625,P03,D02,1,1,1
2307,0.82,1644584745.78125,P03,D02,1,1,1
2308,0.65,1644584745.796875,P03,D02,1,1,1
2309,0.38,1644584745.8125,P03,D02,1,1,1
2310,0.09,1644584745.828125,P03,D02,1,1,1
2311,-0.17,1644584745.84375,P03,D02,1,1,1
2312,-0.34,1644584745.859375,P03,D02,1,1,1
2313,-0.44,1644584745.875,P03,D02,1,1,1
2314,-0.5,1644584745.890625,P03,D02,1,1,1
2315,-0.52,1644584745.90625,P03,D02,1,1,1
2316,-0.51,1644584745.921875,P03,D02,1,1,1
2317,-0.45,1644584745.9375,P03,D02,1,1,1
2318,-0.35,1644584745.953125,P03,D02,1,1,1
2319,-0.21,1644584745.96875,P03,D02,1,1,1
2320,-0.08,1644584745.984375,P03,D02,1,1,1
2321,-0.0,1644584746.0,P03,D02,1,1,1
2322,0.0,1644584746.015625,P03,D02,1,1,1
2323,-0.06,1644584746.03125,P03,D02,1,1,1
2324,-0.17,1644584746.046875,P03,D02,1,1,1
2325,-0.26,1644584746.0625,P03,D02,1,1,1
2326,-0.32,1644584746.078125,P03,D02,1,1,1
2327,-0.33,1644584746.09375,P03,D02,1,1,1
2328,-0.31,1644584746.109375,P03,D02,1,1,1
2329,-0.27,1644584746.125,P03,D02,1,1,1
2330,-0.23,1644584746.140625,P03,D02,1,1,1
2331,-0.21,1644584746.15625,P03,D02,1,1,1
2332,-0.19,1644584746.171875,P03,D02,1,1,1
2333,-0.15,1644584746.1875,P03,D02,1,1,1
2334,-0.05,1644584746.203125,P03,D02,1,1,1
2335,0.12,1644584746.21875,P03,D02,1,1,1
2336,0.36,1644584746.234375,P03,D02,1,1,1
2337,0.6,1644584746.25,P03,D02,1,1,1
2338,0.74,1644584746.265625,P03,D02,1,1,1
2339,0.73,1644584746.28125,P03,D02,1,1,1
2340,0.56,1644584746.296875,P03,D02,1,1,1
2341,0.27,1644584746.3125,P03,D02,1,1,1
2342,-0.04,1644584746.328125,P03,D02,1,1,1
2343,-0.26,1644584746.34375,P03,D02,1,1,1
2344,-0.34,1644584746.359375,P03,D02,1,1,1
2345,-0.24,1644584746.375,P03,D02,1,1,1
2346,-0.01,1644584746.390625,P03,D02,1,1,1
2347,0.26,1644584746.40625,P03,D02,1,1,1
2348,0.46,1644584746.421875,P03,D02,1,1,1
2349,0.5,1644584746.4375,P03,D02,1,1,1
2350,0.38,1644584746.453125,P03,D02,1,1,1
2351,0.18,1644584746.46875,P03,D02,1,1,1
2352,-0.01,1644584746.484375,P03,D02,1,1,1
2353,-0.08,1644584746.5,P03,D02,1,1,1
2354,0.01,1644584746.515625,P03,D02,1,1,1
2355,0.21,1644584746.53125,P03,D02,1,1,1
2356,0.41,1644584746.546875,P03,D02,1,1,1
2357,0.53,1644584746.5625,P03,D02,1,1,1
2358,0.51,1644584746.578125,P03,D02,1,1,1
2359,0.36,1644584746.59375,P03,D02,1,1,1
2360,0.15,1644584746.609375,P03,D02,1,1,1
2361,-0.08,1644584746.625,P03,D02,1,1,1
2362,-0.31,1644584746.640625,P03,D02,1,1,1
2363,-0.53,1644584746.65625,P03,D02,1,1,1
2364,-0.73,1644584746.671875,P03,D02,1,1,1
2365,-0.88,1644584746.6875,P03,D02,1,1,1
2366,-0.92,1644584746.703125,P03,D02,1,1,1
2367,-0.83,1644584746.71875,P03,D02,1,1,1
2368,-0.59,1644584746.734375,P03,D02,1,1,1
2369,-0.26,1644584746.75,P03,D02,1,1,1
2370,0.07,1644584746.765625,P03,D02,1,1,1
2371,0.31,1644584746.78125,P03,D02,1,1,1
2372,0.4,1644584746.796875,P03,D02,1,1,1
2373,0.31,1644584746.8125,P03,D02,1,1,1
2374,0.11,1644584746.828125,P03,D02,1,1,1
2375,-0.11,1644584746.84375,P03,D02,1,1,1
2376,-0.28,1644584746.859375,P03,D02,1,1,1
2377,-0.36,1644584746.875,P03,D02,1,1,1
2378,-0.38,1644584746.890625,P03,D02,1,1,1
2379,-0.36,1644584746.90625,P03,D02,1,1,1
2380,-0.32,1644584746.921875,P03,D02,1,1,1
2381,-0.28,1644584746.9375,P03,D02,1,1,1
2382,-0.21,1644584746.953125,P03,D02,1,1,1
2383,-0.12,1644584746.96875,P03,D02,1,1,1
2384,-0.05,1644584746.984375,P03,D02,1,1,1
2385,-0.01,1644584747.0,P03,D02,1,1,1
2386,-0.03,1644584747.015625,P03,D02,1,1,1
2387,-0.11,1644584747.03125,P03,D02,1,1,1
2388,-0.19,1644584747.046875,P03,D02,1,1,1
2389,-0.23,1644584747.0625,P03,D02,1,1,1
2390,-0.17,1644584747.078125,P03,D02,1,1,1
2391,-0.0,1644584747.09375,P03,D02,1,1,1
2392,0.25,1644584747.109375,P03,D02,1,1,1
2393,0.55,1644584747.125,P03,D02,1,1,1
2394,0.82,1644584747.140625,P03,D02,1,1,1
2395,1.01,1644584747.15625,P03,D02,1,1,1
2396,1.09,1644584747.171875,P03,D02,1,1,1
2397,1.04,1644584747.1875,P03,D02,1,1,1
2398,0.87,1644584747.203125,P03,D02,1,1,1
2399,0.62,1644584747.21875,P03,D02,1,1,1
2400,0.32,1644584747.234375,P03,D02,1,1,1
2401,-0.01,1644584747.25,P03,D02,1,1,1
2402,-0.3,1644584747.265625,P03,D02,1,1,1
2403,-0.51,1644584747.28125,P03,D02,1,1,1
2404,-0.56,1644584747.296875,P03,D02,1,1,1
2405,-0.47,1644584747.3125,P03,D02,1,1,1
2406,-0.3,1644584747.328125,P03,D02,1,1,1
2407,-0.13,1644584747.34375,P03,D02,1,1,1
2408,-0.06,1644584747.359375,P03,D02,1,1,1
2409,-0.13,1644584747.375,P03,D02,1,1,1
2410,-0.26,1644584747.390625,P03,D02,1,1,1
2411,-0.38,1644584747.40625,P03,D02,1,1,1
2412,-0.39,1644584747.421875,P03,D02,1,1,1
2413,-0.29,1644584747.4375,P03,D02,1,1,1
2414,-0.14,1644584747.453125,P03,D02,1,1,1
2415,-0.04,1644584747.46875,P03,D02,1,1,1
2416,-0.03,1644584747.484375,P03,D02,1,1,1
2417,-0.1,1644584747.5,P03,D02,1,1,1
2418,-0.15,1644584747.515625,P03,D02,1,1,1
2419,-0.12,1644584747.53125,P03,D02,1,1,1
2420,-0.0,1644584747.546875,P03,D02,1,1,1
2421,0.14,1644584747.5625,P03,D02,1,1,1
2422,0.2,1644584747.578125,P03,D02,1,1,1
2423,0.08,1644584747.59375,P03,D02,1,1,1
2424,-0.2,1644584747.609375,P03,D02,1,1,1
2425,-0.56,1644584747.625,P03,D02,1,1,1
2426,-0.85,1644584747.640625,P03,D02,1,1,1
2427,-0.95,1644584747.65625,P03,D02,1,1,1
2428,-0.83,1644584747.671875,P03,D02,1,1,1
2429,-0.53,1644584747.6875,P03,D02,1,1,1
2430,-0.2,1644584747.703125,P03,D02,1,1,1
2431,0.06,1644584747.71875,P03,D02,1,1,1
2432,0.19,1644584747.734375,P03,D02,1,1,1
2433,0.2,1644584747.75,P03,D02,1,1,1
2434,0.14,1644584747.765625,P03,D02,1,1,1
2435,0.06,1644584747.78125,P03,D02,1,1,1
2436,-0.01,1644584747.796875,P03,D02,1,1,1
2437,-0.05,1644584747.8125,P03,D02,1,1,1
2438,-0.07,1644584747.828125,P03,D02,1,1,1
2439,-0.08,1644584747.84375,P03,D02,1,1,1
2440,-0.09,1644584747.859375,P03,D02,1,1,1
2441,-0.12,1644584747.875,P03,D02,1,1,1
2442,-0.17,1644584747.890625,P03,D02,1,1,1
2443,-0.23,1644584747.90625,P03,D02,1,1,1
2444,-0.25,1644584747.921875,P03,D02,1,1,1
2445,-0.21,1644584747.9375,P03,D02,1,1,1
2446,-0.08,1644584747.953125,P03,D02,1,1,1
2447,0.08,1644584747.96875,P03,D02,1,1,1
2448,0.23,1644584747.984375,P03,D02,1,1,1
2449,0.32,1644584748.0,P03,D02,1,1,1
2450,0.35,1644584748.015625,P03,D02,1,1,1
2451,0.37,1644584748.03125,P03,D02,1,1,1
2452,0.4,1644584748.046875,P03,D02,1,1,1
2453,0.5,1644584748.0625,P03,D02,1,1,1
2454,0.62,1644584748.078125,P03,D02,1,1,1
2455,0.69,1644584748.09375,P03,D02,1,1,1
2456,0.66,1644584748.109375,P03,D02,1,1,1
2457,0.52,1644584748.125,P03,D02,1,1,1
2458,0.32,1644584748.140625,P03,D02,1,1,1
2459,0.15,1644584748.15625,P03,D02,1,1,1
2460,0.06,1644584748.171875,P03,D02,1,1,1
2461,0.07,1644584748.1875,P03,D02,1,1,1
2462,0.13,1644584748.203125,P03,D02,1,1,1
2463,0.22,1644584748.21875,P03,D02,1,1,1
2464,0.27,1644584748.234375,P03,D02,1,1,1
2465,0.27,1644584748.25,P03,D02,1,1,1
2466,0.23,1644584748.265625,P03,D02,1,1,1
2467,0.13,1644584748.28125,P03,D02,1,1,1
2468,0.01,1644584748.296875,P03,D02,1,1,1
2469,-0.1,1644584748.3125,P03,D02,1,1,1
2470,-0.15,1644584748.328125,P03,D02,1,1,1
2471,-0.08,1644584748.34375,P03,D02,1,1,1
2472,0.11,1644584748.359375,P03,D02,1,1,1
2473,0.37,1644584748.375,P03,D02,1,1,1
2474,0.63,1644584748.390625,P03,D02,1,1,1
2475,0.8,1644584748.40625,P03,D02,1,1,1
2476,0.84,1644584748.421875,P03,D02,1,1,1
2477,0.81,1644584748.4375,P03,D02,1,1,1
2478,0.79,1644584748.453125,P03,D02,1,1,1
2479,0.82,1644584748.46875,P03,D02,1,1,1
2480,0.9,1644584748.484375,P03,D02,1,1,1
2481,0.94,1644584748.5,P03,D02,1,1,1
2482,0.85,1644584748.515625,P03,D02,1,1,1
2483,0.61,1644584748.53125,P03,D02,1,1,1
2484,0.26,1644584748.546875,P03,D02,1,1,1
2485,-0.08,1644584748.5625,P03,D02,1,1,1
2486,-0.28,1644584748.578125,P03,D02,1,1,1
2487,-0.29,1644584748.59375,P03,D02,1,1,1
2488,-0.16,1644584748.609375,P03,D02,1,1,1
2489,0.03,1644584748.625,P03,D02,1,1,1
2490,0.16,1644584748.640625,P03,D02,1,1,1
2491,0.16,1644584748.65625,P03,D02,1,1,1
2492,0.01,1644584748.671875,P03,D02,1,1,1
2493,-0.22,1644584748.6875,P03,D02,1,1,1
2494,-0.4,1644584748.703125,P03,D02,1,1,1
2495,-0.43,1644584748.71875,P03,D02,1,1,1
2496,-0.29,1644584748.734375,P03,D02,1,1,1
2497,-0.02,1644584748.75,P03,D02,1,1,1
2498,0.24,1644584748.765625,P03,D02,1,1,1
2499,0.34,1644584748.78125,P03,D02,1,1,1
2500,0.22,1644584748.796875,P03,D02,1,1,1
2501,-0.07,1644584748.8125,P03,D02,1,1,1
2502,-0.4,1644584748.828125,P03,D02,1,1,1
2503,-0.62,1644584748.84375,P03,D02,1,1,1
2504,-0.66,1644584748.859375,P03,D02,1,1,1
2505,-0.58,1644584748.875,P03,D02,1,1,1
2506,-0.52,1644584748.890625,P03,D02,1,1,1
2507,-0.61,1644584748.90625,P03,D02,1,1,1
2508,-0.87,1644584748.921875,P03,D02,1,1,1
2509,-1.2,1644584748.9375,P03,D02,1,1,1
2510,-1.44,1644584748.953125,P03,D02,1,1,1
2511,-1.44,1644584748.96875,P03,D02,1,1,1
2512,-1.18,1644584748.984375,P03,D02,1,1,1
2513,-0.74,1644584749.0,P03,D02,1,1,1
2514,-0.3,1644584749.015625,P03,D02,1,1,1
2515,0.0,1644584749.03125,P03,D02,1,1,1
2516,0.1,1644584749.046875,P03,D02,1,1,1
2517,0.04,1644584749.0625,P03,D02,1,1,1
2518,-0.09,1644584749.078125,P03,D02,1,1,1
2519,-0.17,1644584749.09375,P03,D02,1,1,1
2520,-0.13,1644584749.109375,P03,D02,1,1,1
2521,-0.0,1644584749.125,P03,D02,1,1,1
2522,0.15,1644584749.140625,P03,D02,1,1,1
2523,0.24,1644584749.15625,P03,D02,1,1,1
2524,0.22,1644584749.171875,P03,D02,1,1,1
2525,0.1,1644584749.1875,P03,D02,1,1,1
2526,-0.08,1644584749.203125,P03,D02,1,1,1
2527,-0.22,1644584749.21875,P03,D02,1,1,1
2528,-0.26,1644584749.234375,P03,D02,1,1,1
2529,-0.18,1644584749.25,P03,D02,1,1,1
2530,-0.0,1644584749.265625,P03,D02,1,1,1
2531,0.2,1644584749.28125,P03,D02,1,1,1
2532,0.36,1644584749.296875,P03,D02,1,1,1
2533,0.42,1644584749.3125,P03,D02,1,1,1
2534,0.41,1644584749.328125,P03,D02,1,1,1
2535,0.36,1644584749.34375,P03,D02,1,1,1
2536,0.33,1644584749.359375,P03,D02,1,1,1
2537,0.35,1644584749.375,P03,D02,1,1,1
2538,0.39,1644584749.390625,P03,D02,1,1,1
2539,0.42,1644584749.40625,P03,D02,1,1,1
2540,0.39,1644584749.421875,P03,D02,1,1,1
2541,0.31,1644584749.4375,P03,D02,1,1,1
2542,0.2,1644584749.453125,P03,D02,1,1,1
2543,0.13,1644584749.46875,P03,D02,1,1,1
2544,0.1,1644584749.484375,P03,D02,1,1,1
2545,0.09,1644584749.5,P03,D02,1,1,1
2546,0.05,1644584749.515625,P03,D02,1,1,1
2547,-0.06,1644584749.53125,P03,D02,1,1,1
2548,-0.2,1644584749.546875,P03,D02,1,1,1
2549,-0.34,1644584749.5625,P03,D02,1,1,1
2550,-0.42,1644584749.578125,P03,D02,1,1,1
2551,-0.38,1644584749.59375,P03,D02,1,1,1
2552,-0.22,1644584749.609375,P03,D02,1,1,1
2553,0.04,1644584749.625,P03,D02,1,1,1
2554,0.36,1644584749.640625,P03,D02,1,1,1
2555,0.65,1644584749.65625,P03,D02,1,1,1
2556,0.85,1644584749.671875,P03,D02,1,1,1
2557,0.92,1644584749.6875,P03,D02,1,1,1
2558,0.86,1644584749.703125,P03,D02,1,1,1
2559,0.7,1644584749.71875,P03,D02,1,1,1
2560,0.51,1644584749.734375,P03,D02,1,1,1
2561,0.33,1644584749.75,P03,D02,1,1,1
2562,0.15,1644584749.765625,P03,D02,1,1,1
2563,-0.07,1644584749.78125,P03,D02,1,1,1
2564,-0.37,1644584749.796875,P03,D02,1,1,1
2565,-0.73,1644584749.8125,P03,D02,1,1,1
2566,-1.09,1644584749.828125,P03,D02,1,1,1
2567,-1.32,1644584749.84375,P03,D02,1,1,1
2568,-1.35,1644584749.859375,P03,D02,1,1,1
2569,-1.15,1644584749.875,P03,D02,1,1,1
2570,-0.76,1644584749.890625,P03,D02,1,1,1
2571,-0.32,1644584749.90625,P03,D02,1,1,1
2572,0.05,1644584749.921875,P03,D02,1,1,1
2573,0.28,1644584749.9375,P03,D02,1,1,1
2574,0.33,1644584749.953125,P03,D02,1,1,1
2575,0.25,1644584749.96875,P03,D02,1,1,1
2576,0.1,1644584749.984375,P03,D02,1,1,1
2577,-0.05,1644584750.0,P03,D02,1,1,1
2578,-0.13,1644584750.015625,P03,D02,1,1,1
2579,-0.11,1644584750.03125,P03,D02,1,1,1
2580,-0.0,1644584750.046875,P03,D02,1,1,1
2581,0.17,1644584750.0625,P03,D02,1,1,1
2582,0.35,1644584750.078125,P03,D02,1,1,1
2583,0.47,1644584750.09375,P03,D02,1,1,1
2584,0.5,1644584750.109375,P03,D02,1,1,1
2585,0.44,1644584750.125,P03,D02,1,1,1
2586,0.3,1644584750.140625,P03,D02,1,1,1
2587,0.14,1644584750.15625,P03,D02,1,1,1
2588,0.01,1644584750.171875,P03,D02,1,1,1
2589,-0.05,1644584750.1875,P03,D02,1,1,1
2590,-0.02,1644584750.203125,P03,D02,1,1,1
2591,0.12,1644584750.21875,P03,D02,1,1,1
2592,0.34,1644584750.234375,P03,D02,1,1,1
2593,0.56,1644584750.25,P03,D02,1,1,1
2594,0.69,1644584750.265625,P03,D02,1,1,1
2595,0.67,1644584750.28125,P03,D02,1,1,1
2596,0.48,1644584750.296875,P03,D02,1,1,1
2597,0.22,1644584750.3125,P03,D02,1,1,1
2598,-0.0,1644584750.328125,P03,D02,1,1,1
2599,-0.07,1644584750.34375,P03,D02,1,1,1
2600,0.03,1644584750.359375,P03,D02,1,1,1
2601,0.21,1644584750.375,P03,D02,1,1,1
2602,0.34,1644584750.390625,P03,D02,1,1,1
2603,0.33,1644584750.40625,P03,D02,1,1,1
2604,0.17,1644584750.421875,P03,D02,1,1,1
2605,-0.06,1644584750.4375,P03,D02,1,1,1
2606,-0.24,1644584750.453125,P03,D02,1,1,1
2607,-0.35,1644584750.46875,P03,D02,1,1,1
2608,-0.38,1644584750.484375,P03,D02,1,1,1
2609,-0.39,1644584750.5,P03,D02,1,1,1
2610,-0.4,1644584750.515625,P03,D02,1,1,1
2611,-0.41,1644584750.53125,P03,D02,1,1,1
2612,-0.36,1644584750.546875,P03,D02,1,1,1
2613,-0.21,1644584750.5625,P03,D02,1,1,1
2614,-0.03,1644584750.578125,P03,D02,1,1,1
2615,0.11,1644584750.59375,P03,D02,1,1,1
2616,0.1,1644584750.609375,P03,D02,1,1,1
2617,-0.11,1644584750.625,P03,D02,1,1,1
2618,-0.44,1644584750.640625,P03,D02,1,1,1
2619,-0.73,1644584750.65625,P03,D02,1,1,1
2620,-0.83,1644584750.671875,P03,D02,1,1,1
2621,-0.68,1644584750.6875,P03,D02,1,1,1
2622,-0.31,1644584750.703125,P03,D02,1,1,1
2623,0.12,1644584750.71875,P03,D02,1,1,1
2624,0.43,1644584750.734375,P03,D02,1,1,1
2625,0.53,1644584750.75,P03,D02,1,1,1
2626,0.43,1644584750.765625,P03,D02,1,1,1
2627,0.21,1644584750.78125,P03,D02,1,1,1
2628,0.01,1644584750.796875,P03,D02,1,1,1
2629,-0.13,1644584750.8125,P03,D02,1,1,1
2630,-0.21,1644584750.828125,P03,D02,1,1,1
2631,-0.28,1644584750.84375,P03,D02,1,1,1
2632,-0.36,1644584750.859375,P03,D02,1,1,1
2633,-0.44,1644584750.875,P03,D02,1,1,1
2634,-0.45,1644584750.890625,P03,D02,1,1,1
2635,-0.35,1644584750.90625,P03,D02,1,1,1
2636,-0.15,1644584750.921875,P03,D02,1,1,1
2637,0.08,1644584750.9375,P03,D02,1,1,1
2638,0.25,1644584750.953125,P03,D02,1,1,1
2639,0.27,1644584750.96875,P03,D02,1,1,1
2640,0.17,1644584750.984375,P03,D02,1,1,1
2641,0.02,1644584751.0,P03,D02,1,1,1
2642,-0.09,1644584751.015625,P03,D02,1,1,1
2643,-0.11,1644584751.03125,P03,D02,1,1,1
2644,-0.04,1644584751.046875,P03,D02,1,1,1
2645,0.06,1644584751.0625,P03,D02,1,1,1
2646,0.15,1644584751.078125,P03,D02,1,1,1
2647,0.19,1644584751.09375,P03,D02,1,1,1
2648,0.23,1644584751.109375,P03,D02,1,1,1
2649,0.29,1644584751.125,P03,D02,1,1,1
2650,0.39,1644584751.140625,P03,D02,1,1,1
2651,0.49,1644584751.15625,P03,D02,1,1,1
2652,0.53,1644584751.171875,P03,D02,1,1,1
2653,0.44,1644584751.1875,P03,D02,1,1,1
2654,0.23,1644584751.203125,P03,D02,1,1,1
2655,-0.04,1644584751.21875,P03,D02,1,1,1
2656,-0.26,1644584751.234375,P03,D02,1,1,1
2657,-0.35,1644584751.25,P03,D02,1,1,1
2658,-0.3,1644584751.265625,P03,D02,1,1,1
2659,-0.17,1644584751.28125,P03,D02,1,1,1
2660,-0.04,1644584751.296875,P03,D02,1,1,1
2661,-0.01,1644584751.3125,P03,D02,1,1,1
2662,-0.1,1644584751.328125,P03,D02,1,1,1
2663,-0.28,1644584751.34375,P03,D02,1,1,1
2664,-0.45,1644584751.359375,P03,D02,1,1,1
2665,-0.53,1644584751.375,P03,D02,1,1,1
2666,-0.49,1644584751.390625,P03,D02,1,1,1
2667,-0.37,1644584751.40625,P03,D02,1,1,1
2668,-0.25,1644584751.421875,P03,D02,1,1,1
2669,-0.22,1644584751.4375,P03,D02,1,1,1
2670,-0.29,1644584751.453125,P03,D02,1,1,1
2671,-0.43,1644584751.46875,P03,D02,1,1,1
2672,-0.56,1644584751.484375,P03,D02,1,1,1
2673,-0.58,1644584751.5,P03,D02,1,1,1
2674,-0.47,1644584751.515625,P03,D02,1,1,1
2675,-0.23,1644584751.53125,P03,D02,1,1,1
2676,0.05,1644584751.546875,P03,D02,1,1,1
2677,0.3,1644584751.5625,P03,D02,1,1,1
2678,0.43,1644584751.578125,P03,D02,1,1,1
2679,0.42,1644584751.59375,P03,D02,1,1,1
2680,0.28,1644584751.609375,P03,D02,1,1,1
2681,0.07,1644584751.625,P03,D02,1,1,1
2682,-0.13,1644584751.640625,P03,D02,1,1,1
2683,-0.24,1644584751.65625,P03,D02,1,1,1
2684,-0.2,1644584751.671875,P03,D02,1,1,1
2685,-0.0,1644584751.6875,P03,D02,1,1,1
2686,0.31,1644584751.703125,P03,D02,1,1,1
2687,0.64,1644584751.71875,P03,D02,1,1,1
2688,0.92,1644584751.734375,P03,D02,1,1,1
2689,1.09,1644584751.75,P03,D02,1,1,1
2690,1.12,1644584751.765625,P03,D02,1,1,1
2691,1.03,1644584751.78125,P03,D02,1,1,1
2692,0.81,1644584751.796875,P03,D02,1,1,1
2693,0.5,1644584751.8125,P03,D02,1,1,1
2694,0.13,1644584751.828125,P03,D02,1,1,1
2695,-0.2,1644584751.84375,P03,D02,1,1,1
2696,-0.4,1644584751.859375,P03,D02,1,1,1
2697,-0.41,1644584751.875,P03,D02,1,1,1
2698,-0.22,1644584751.890625,P03,D02,1,1,1
2699,0.08,1644584751.90625,P03,D02,1,1,1
2700,0.35,1644584751.921875,P03,D02,1,1,1
2701,0.49,1644584751.9375,P03,D02,1,1,1
2702,0.44,1644584751.953125,P03,D02,1,1,1
2703,0.25,1644584751.96875,P03,D02,1,1,1
2704,-0.03,1644584751.984375,P03,D02,1,1,1
2705,-0.32,1644584752.0,P03,D02,1,1,1
2706,-0.58,1644584752.015625,P03,D02,1,1,1
2707,-0.81,1644584752.03125,P03,D02,1,1,1
2708,-0.98,1644584752.046875,P03,D02,1,1,1
2709,-1.05,1644584752.0625,P03,D02,1,1,1
2710,-0.97,1644584752.078125,P03,D02,1,1,1
2711,-0.73,1644584752.09375,P03,D02,1,1,1
2712,-0.4,1644584752.109375,P03,D02,1,1,1
2713,-0.06,1644584752.125,P03,D02,1,1,1
2714,0.18,1644584752.140625,P03,D02,1,1,1
2715,0.23,1644584752.15625,P03,D02,1,1,1
2716,0.09,1644584752.171875,P03,D02,1,1,1
2717,-0.16,1644584752.1875,P03,D02,1,1,1
2718,-0.41,1644584752.203125,P03,D02,1,1,1
2719,-0.5,1644584752.21875,P03,D02,1,1,1
2720,-0.37,1644584752.234375,P03,D02,1,1,1
2721,-0.07,1644584752.25,P03,D02,1,1,1
2722,0.27,1644584752.265625,P03,D02,1,1,1
2723,0.49,1644584752.28125,P03,D02,1,1,1
2724,0.51,1644584752.296875,P03,D02,1,1,1
2725,0.32,1644584752.3125,P03,D02,1,1,1
2726,0.06,1644584752.328125,P03,D02,1,1,1
2727,-0.13,1644584752.34375,P03,D02,1,1,1
2728,-0.15,1644584752.359375,P03,D02,1,1,1
2729,-0.01,1644584752.375,P03,D02,1,1,1
2730,0.19,1644584752.390625,P03,D02,1,1,1
2731,0.33,1644584752.40625,P03,D02,1,1,1
2732,0.36,1644584752.421875,P03,D02,1,1,1
2733,0.33,1644584752.4375,P03,D02,1,1,1
2734,0.3,1644584752.453125,P03,D02,1,1,1
2735,0.37,1644584752.46875,P03,D02,1,1,1
2736,0.51,1644584752.484375,P03,D02,1,1,1
2737,0.67,1644584752.5,P03,D02,1,1,1
2738,0.73,1644584752.515625,P03,D02,1,1,1
2739,0.63,1644584752.53125,P03,D02,1,1,1
2740,0.35,1644584752.546875,P03,D02,1,1,1
2741,-0.06,1644584752.5625,P03,D02,1,1,1
2742,-0.5,1644584752.578125,P03,D02,1,1,1
2743,-0.86,1644584752.59375,P03,D02,1,1,1
2744,-1.02,1644584752.609375,P03,D02,1,1,1
2745,-0.94,1644584752.625,P03,D02,1,1,1
2746,-0.62,1644584752.640625,P03,D02,1,1,1
2747,-0.18,1644584752.65625,P03,D02,1,1,1
2748,0.25,1644584752.671875,P03,D02,1,1,1
2749,0.54,1644584752.6875,P03,D02,1,1,1
2750,0.64,1644584752.703125,P03,D02,1,1,1
2751,0.55,1644584752.71875,P03,D02,1,1,1
2752,0.35,1644584752.734375,P03,D02,1,1,1
2753,0.13,1644584752.75,P03,D02,1,1,1
2754,-0.06,1644584752.765625,P03,D02,1,1,1
2755,-0.19,1644584752.78125,P03,D02,1,1,1
2756,-0.26,1644584752.796875,P03,D02,1,1,1
2757,-0.26,1644584752.8125,P03,D02,1,1,1
2758,-0.16,1644584752.828125,P03,D02,1,1,1
2759,0.05,1644584752.84375,P03,D02,1,1,1
2760,0.32,1644584752.859375,P03,D02,1,1,1
2761,0.56,1644584752.875,P03,D02,1,1,1
2762,0.67,1644584752.890625,P03,D02,1,1,1
2763,0.59,1644584752.90625,P03,D02,1,1,1
2764,0.34,1644584752.921875,P03,D02,1,1,1
2765,0.04,1644584752.9375,P03,D02,1,1,1
2766,-0.17,1644584752.953125,P03,D02,1,1,1
2767,-0.18,1644584752.96875,P03,D02,1,1,1
2768,0.03,1644584752.984375,P03,D02,1,1,1
2769,0.36,1644584753.0,P03,D02,1,1,1
2770,0.66,1644584753.015625,P03,D02,1,1,1
2771,0.81,1644584753.03125,P03,D02,1,1,1
2772,0.73,1644584753.046875,P03,D02,1,1,1
2773,0.46,1644584753.0625,P03,D02,1,1,1
2774,0.1,1644584753.078125,P03,D02,1,1,1
2775,-0.21,1644584753.09375,P03,D02,1,1,1
2776,-0.34,1644584753.109375,P03,D02,1,1,1
2777,-0.28,1644584753.125,P03,D02,1,1,1
2778,-0.07,1644584753.140625,P03,D02,1,1,1
2779,0.16,1644584753.15625,P03,D02,1,1,1
2780,0.29,1644584753.171875,P03,D02,1,1,1
2781,0.27,1644584753.1875,P03,D02,1,1,1
2782,0.13,1644584753.203125,P03,D02,1,1,1
2783,-0.03,1644584753.21875,P03,D02,1,1,1
2784,-0.12,1644584753.234375,P03,D02,1,1,1
2785,-0.09,1644584753.25,P03,D02,1,1,1
2786,0.02,1644584753.265625,P03,D02,1,1,1
2787,0.11,1644584753.28125,P03,D02,1,1,1
2788,0.12,1644584753.296875,P03,D02,1,1,1
2789,0.03,1644584753.3125,P03,D02,1,1,1
2790,-0.11,1644584753.328125,P03,D02,1,1,1
2791,-0.22,1644584753.34375,P03,D02,1,1,1
2792,-0.26,1644584753.359375,P03,D02,1,1,1
2793,-0.25,1644584753.375,P03,D02,1,1,1
2794,-0.25,1644584753.390625,P03,D02,1,1,1
2795,-0.35,1644584753.40625,P03,D02,1,1,1
2796,-0.55,1644584753.421875,P03,D02,1,1,1
2797,-0.81,1644584753.4375,P03,D02,1,1,1
2798,-1.01,1644584753.453125,P03,D02,1,1,1
2799,-1.06,1644584753.46875,P03,D02,1,1,1
2800,-0.94,1644584753.484375,P03,D02,1,1,1
2801,-0.72,1644584753.5,P03,D02,1,1,1
2802,-0.51,1644584753.515625,P03,D02,1,1,1
2803,-0.4,1644584753.53125,P03,D02,1,1,1
2804,-0.41,1644584753.546875,P03,D02,1,1,1
2805,-0.46,1644584753.5625,P03,D02,1,1,1
2806,-0.47,1644584753.578125,P03,D02,1,1,1
2807,-0.36,1644584753.59375,P03,D02,1,1,1
2808,-0.16,1644584753.609375,P03,D02,1,1,1
2809,0.07,1644584753.625,P03,D02,1,1,1
2810,0.26,1644584753.640625,P03,D02,1,1,1
2811,0.39,1644584753.65625,P03,D02,1,1,1
2812,0.47,1644584753.671875,P03,D02,1,1,1
2813,0.54,1644584753.6875,P03,D02,1,1,1
2814,0.59,1644584753.703125,P03,D02,1,1,1
2815,0.57,1644584753.71875,P03,D02,1,1,1
2816,0.43,1644584753.734375,P03,D02,1,1,1
2817,0.18,1644584753.75,P03,D02,1,1,1
2818,-0.09,1644584753.765625,P03,D02,1,1,1
2819,-0.26,1644584753.78125,P03,D02,1,1,1
2820,-0.23,1644584753.796875,P03,D02,1,1,1
2821,-0.03,1644584753.8125,P03,D02,1,1,1
2822,0.22,1644584753.828125,P03,D02,1,1,1
2823,0.37,1644584753.84375,P03,D02,1,1,1
2824,0.3,1644584753.859375,P03,D02,1,1,1
2825,0.04,1644584753.875,P03,D02,1,1,1
2826,-0.28,1644584753.890625,P03,D02,1,1,1
2827,-0.48,1644584753.90625,P03,D02,1,1,1
2828,-0.45,1644584753.921875,P03,D02,1,1,1
2829,-0.21,1644584753.9375,P03,D02,1,1,1
2830,0.13,1644584753.953125,P03,D02,1,1,1
2831,0.44,1644584753.96875,P03,D02,1,1,1
2832,0.66,1644584753.984375,P03,D02,1,1,1
2833,0.76,1644584754.0,P03,D02,1,1,1
2834,0.74,1644584754.015625,P03,D02,1,1,1
2835,0.59,1644584754.03125,P03,D02,1,1,1
2836,0.3,1644584754.046875,P03,D02,1,1,1
2837,-0.12,1644584754.0625,P03,D02,1,1,1
2838,-0.58,1644584754.078125,P03,D02,1,1,1
2839,-0.94,1644584754.09375,P03,D02,1,1,1
2840,-1.05,1644584754.109375,P03,D02,1,1,1
2841,-0.86,1644584754.125,P03,D02,1,1,1
2842,-0.45,1644584754.140625,P03,D02,1,1,1
2843,0.03,1644584754.15625,P03,D02,1,1,1
2844,0.38,1644584754.171875,P03,D02,1,1,1
2845,0.5,1644584754.1875,P03,D02,1,1,1
2846,0.39,1644584754.203125,P03,D02,1,1,1
2847,0.16,1644584754.21875,P03,D02,1,1,1
2848,-0.08,1644584754.234375,P03,D02,1,1,1
2849,-0.26,1644584754.25,P03,D02,1,1,1
2850,-0.36,1644584754.265625,P03,D02,1,1,1
2851,-0.4,1644584754.28125,P03,D02,1,1,1
2852,-0.41,1644584754.296875,P03,D02,1,1,1
2853,-0.39,1644584754.3125,P03,D02,1,1,1
2854,-0.33,1644584754.328125,P03,D02,1,1,1
2855,-0.2,1644584754.34375,P03,D02,1,1,1
2856,-0.04,1644584754.359375,P03,D02,1,1,1
2857,0.14,1644584754.375,P03,D02,1,1,1
2858,0.29,1644584754.390625,P03,D02,1,1,1
2859,0.36,1644584754.40625,P03,D02,1,1,1
2860,0.35,1644584754.421875,P03,D02,1,1,1
2861,0.29,1644584754.4375,P03,D02,1,1,1
2862,0.22,1644584754.453125,P03,D02,1,1,1
2863,0.19,1644584754.46875,P03,D02,1,1,1
2864,0.21,1644584754.484375,P03,D02,1,1,1
2865,0.3,1644584754.5,P03,D02,1,1,1
2866,0.42,1644584754.515625,P03,D02,1,1,1
2867,0.54,1644584754.53125,P03,D02,1,1,1
2868,0.63,1644584754.546875,P03,D02,1,1,1
2869,0.67,1644584754.5625,P03,D02,1,1,1
2870,0.65,1644584754.578125,P03,D02,1,1,1
2871,0.58,1644584754.59375,P03,D02,1,1,1
2872,0.49,1644584754.609375,P03,D02,1,1,1
2873,0.38,1644584754.625,P03,D02,1,1,1
2874,0.25,1644584754.640625,P03,D02,1,1,1
2875,0.09,1644584754.65625,P03,D02,1,1,1
2876,-0.1,1644584754.671875,P03,D02,1,1,1
2877,-0.3,1644584754.6875,P03,D02,1,1,1
2878,-0.48,1644584754.703125,P03,D02,1,1,1
2879,-0.58,1644584754.71875,P03,D02,1,1,1
2880,-0.57,1644584754.734375,P03,D02,1,1,1
2881,-0.47,1644584754.75,P03,D02,1,1,1
2882,-0.32,1644584754.765625,P03,D02,1,1,1
2883,-0.17,1644584754.78125,P03,D02,1,1,1
2884,-0.05,1644584754.796875,P03,D02,1,1,1
2885,0.05,1644584754.8125,P03,D02,1,1,1
2886,0.14,1644584754.828125,P03,D02,1,1,1
2887,0.25,1644584754.84375,P03,D02,1,1,1
2888,0.35,1644584754.859375,P03,D02,1,1,1
2889,0.41,1644584754.875,P03,D02,1,1,1
2890,0.4,1644584754.890625,P03,D02,1,1,1
2891,0.32,1644584754.90625,P03,D02,1,1,1
2892,0.17,1644584754.921875,P03,D02,1,1,1
2893,-0.0,1644584754.9375,P03,D02,1,1,1
2894,-0.15,1644584754.953125,P03,D02,1,1,1
2895,-0.25,1644584754.96875,P03,D02,1,1,1
2896,-0.28,1644584754.984375,P03,D02,1,1,1
2897,-0.2,1644584755.0,P03,D02,1,1,1
2898,-0.05,1644584755.015625,P03,D02,1,1,1
2899,0.15,1644584755.03125,P03,D02,1,1,1
2900,0.29,1644584755.046875,P03,D02,1,1,1
2901,0.27,1644584755.0625,P03,D02,1,1,1
2902,0.04,1644584755.078125,P03,D02,1,1,1
2903,-0.38,1644584755.09375,P03,D02,1,1,1
2904,-0.85,1644584755.109375,P03,D02,1,1,1
2905,-1.21,1644584755.125,P03,D02,1,1,1
2906,-1.3,1644584755.140625,P03,D02,1,1,1
2907,-1.07,1644584755.15625,P03,D02,1,1,1
2908,-0.6,1644584755.171875,P03,D02,1,1,1
2909,-0.09,1644584755.1875,P03,D02,1,1,1
2910,0.28,1644584755.203125,P03,D02,1,1,1
2911,0.39,1644584755.21875,P03,D02,1,1,1
2912,0.26,1644584755.234375,P03,D02,1,1,1
2913,-0.0,1644584755.25,P03,D02,1,1,1
2914,-0.23,1644584755.265625,P03,D02,1,1,1
2915,-0.34,1644584755.28125,P03,D02,1,1,1
2916,-0.31,1644584755.296875,P03,D02,1,1,1
2917,-0.23,1644584755.3125,P03,D02,1,1,1
2918,-0.15,1644584755.328125,P03,D02,1,1,1
2919,-0.11,1644584755.34375,P03,D02,1,1,1
2920,-0.1,1644584755.359375,P03,D02,1,1,1
