,data,timestamp,participant,document,val,arou,eng
0,-0.36,1644586180.3125,P03,D08,0,1,1
1,-0.34,1644586180.328125,P03,D08,0,1,1
2,-0.31,1644586180.34375,P03,D08,0,1,1
3,-0.28,1644586180.359375,P03,D08,0,1,1
4,-0.21,1644586180.375,P03,D08,0,1,1
5,-0.08,1644586180.390625,P03,D08,0,1,1
6,0.08,1644586180.40625,P03,D08,0,1,1
7,0.26,1644586180.421875,P03,D08,0,1,1
8,0.41,1644586180.4375,P03,D08,0,1,1
9,0.51,1644586180.453125,P03,D08,0,1,1
10,0.6,1644586180.46875,P03,D08,0,1,1
11,0.67,1644586180.484375,P03,D08,0,1,1
12,0.76,1644586180.5,P03,D08,0,1,1
13,0.84,1644586180.515625,P03,D08,0,1,1
14,0.9,1644586180.53125,P03,D08,0,1,1
15,0.92,1644586180.546875,P03,D08,0,1,1
16,0.91,1644586180.5625,P03,D08,0,1,1
17,0.87,1644586180.578125,P03,D08,0,1,1
18,0.82,1644586180.59375,P03,D08,0,1,1
19,0.74,1644586180.609375,P03,D08,0,1,1
20,0.66,1644586180.625,P03,D08,0,1,1
21,0.57,1644586180.640625,P03,D08,0,1,1
22,0.49,1644586180.65625,P03,D08,0,1,1
23,0.41,1644586180.671875,P03,D08,0,1,1
24,0.34,1644586180.6875,P03,D08,0,1,1
25,0.24,1644586180.703125,P03,D08,0,1,1
26,0.1,1644586180.71875,P03,D08,0,1,1
27,-0.12,1644586180.734375,P03,D08,0,1,1
28,-0.4,1644586180.75,P03,D08,0,1,1
29,-0.7,1644586180.765625,P03,D08,0,1,1
30,-1.0,1644586180.78125,P03,D08,0,1,1
31,-1.24,1644586180.796875,P03,D08,0,1,1
32,-1.44,1644586180.8125,P03,D08,0,1,1
33,-1.56,1644586180.828125,P03,D08,0,1,1
34,-1.58,1644586180.84375,P03,D08,0,1,1
35,-1.48,1644586180.859375,P03,D08,0,1,1
36,-1.23,1644586180.875,P03,D08,0,1,1
37,-0.88,1644586180.890625,P03,D08,0,1,1
38,-0.49,1644586180.90625,P03,D08,0,1,1
39,-0.17,1644586180.921875,P03,D08,0,1,1
40,-0.02,1644586180.9375,P03,D08,0,1,1
41,-0.06,1644586180.953125,P03,D08,0,1,1
42,-0.21,1644586180.96875,P03,D08,0,1,1
43,-0.32,1644586180.984375,P03,D08,0,1,1
44,-0.27,1644586181.0,P03,D08,0,1,1
45,-0.01,1644586181.015625,P03,D08,0,1,1
46,0.37,1644586181.03125,P03,D08,0,1,1
47,0.71,1644586181.046875,P03,D08,0,1,1
48,0.87,1644586181.0625,P03,D08,0,1,1
49,0.8,1644586181.078125,P03,D08,0,1,1
50,0.57,1644586181.09375,P03,D08,0,1,1
51,0.31,1644586181.109375,P03,D08,0,1,1
52,0.12,1644586181.125,P03,D08,0,1,1
53,0.0,1644586181.140625,P03,D08,0,1,1
54,-0.09,1644586181.15625,P03,D08,0,1,1
55,-0.24,1644586181.171875,P03,D08,0,1,1
56,-0.45,1644586181.1875,P03,D08,0,1,1
57,-0.65,1644586181.203125,P03,D08,0,1,1
58,-0.72,1644586181.21875,P03,D08,0,1,1
59,-0.6,1644586181.234375,P03,D08,0,1,1
60,-0.33,1644586181.25,P03,D08,0,1,1
61,-0.05,1644586181.265625,P03,D08,0,1,1
62,0.08,1644586181.28125,P03,D08,0,1,1
63,-0.03,1644586181.296875,P03,D08,0,1,1
64,-0.33,1644586181.3125,P03,D08,0,1,1
65,-0.67,1644586181.328125,P03,D08,0,1,1
66,-0.85,1644586181.34375,P03,D08,0,1,1
67,-0.77,1644586181.359375,P03,D08,0,1,1
68,-0.46,1644586181.375,P03,D08,0,1,1
69,-0.06,1644586181.390625,P03,D08,0,1,1
70,0.25,1644586181.40625,P03,D08,0,1,1
71,0.34,1644586181.421875,P03,D08,0,1,1
72,0.24,1644586181.4375,P03,D08,0,1,1
73,0.09,1644586181.453125,P03,D08,0,1,1
74,0.03,1644586181.46875,P03,D08,0,1,1
75,0.16,1644586181.484375,P03,D08,0,1,1
76,0.44,1644586181.5,P03,D08,0,1,1
77,0.75,1644586181.515625,P03,D08,0,1,1
78,0.96,1644586181.53125,P03,D08,0,1,1
79,1.01,1644586181.546875,P03,D08,0,1,1
80,0.94,1644586181.5625,P03,D08,0,1,1
81,0.83,1644586181.578125,P03,D08,0,1,1
82,0.75,1644586181.59375,P03,D08,0,1,1
83,0.68,1644586181.609375,P03,D08,0,1,1
84,0.57,1644586181.625,P03,D08,0,1,1
85,0.4,1644586181.640625,P03,D08,0,1,1
86,0.16,1644586181.65625,P03,D08,0,1,1
87,-0.05,1644586181.671875,P03,D08,0,1,1
88,-0.15,1644586181.6875,P03,D08,0,1,1
89,-0.1,1644586181.703125,P03,D08,0,1,1
90,0.06,1644586181.71875,P03,D08,0,1,1
91,0.27,1644586181.734375,P03,D08,0,1,1
92,0.44,1644586181.75,P03,D08,0,1,1
93,0.52,1644586181.765625,P03,D08,0,1,1
94,0.53,1644586181.78125,P03,D08,0,1,1
95,0.47,1644586181.796875,P03,D08,0,1,1
96,0.39,1644586181.8125,P03,D08,0,1,1
97,0.3,1644586181.828125,P03,D08,0,1,1
98,0.18,1644586181.84375,P03,D08,0,1,1
99,0.02,1644586181.859375,P03,D08,0,1,1
100,-0.2,1644586181.875,P03,D08,0,1,1
101,-0.45,1644586181.890625,P03,D08,0,1,1
102,-0.72,1644586181.90625,P03,D08,0,1,1
103,-0.92,1644586181.921875,P03,D08,0,1,1
104,-0.99,1644586181.9375,P03,D08,0,1,1
105,-0.89,1644586181.953125,P03,D08,0,1,1
106,-0.64,1644586181.96875,P03,D08,0,1,1
107,-0.34,1644586181.984375,P03,D08,0,1,1
108,-0.12,1644586182.0,P03,D08,0,1,1
109,-0.06,1644586182.015625,P03,D08,0,1,1
110,-0.15,1644586182.03125,P03,D08,0,1,1
111,-0.33,1644586182.046875,P03,D08,0,1,1
112,-0.47,1644586182.0625,P03,D08,0,1,1
113,-0.48,1644586182.078125,P03,D08,0,1,1
114,-0.36,1644586182.09375,P03,D08,0,1,1
115,-0.16,1644586182.109375,P03,D08,0,1,1
116,0.03,1644586182.125,P03,D08,0,1,1
117,0.14,1644586182.140625,P03,D08,0,1,1
118,0.16,1644586182.15625,P03,D08,0,1,1
119,0.15,1644586182.171875,P03,D08,0,1,1
120,0.16,1644586182.1875,P03,D08,0,1,1
121,0.24,1644586182.203125,P03,D08,0,1,1
122,0.38,1644586182.21875,P03,D08,0,1,1
123,0.52,1644586182.234375,P03,D08,0,1,1
124,0.58,1644586182.25,P03,D08,0,1,1
125,0.53,1644586182.265625,P03,D08,0,1,1
126,0.39,1644586182.28125,P03,D08,0,1,1
127,0.21,1644586182.296875,P03,D08,0,1,1
128,0.06,1644586182.3125,P03,D08,0,1,1
129,0.01,1644586182.328125,P03,D08,0,1,1
130,0.05,1644586182.34375,P03,D08,0,1,1
131,0.14,1644586182.359375,P03,D08,0,1,1
132,0.23,1644586182.375,P03,D08,0,1,1
133,0.26,1644586182.390625,P03,D08,0,1,1
134,0.21,1644586182.40625,P03,D08,0,1,1
135,0.12,1644586182.421875,P03,D08,0,1,1
136,0.03,1644586182.4375,P03,D08,0,1,1
137,0.0,1644586182.453125,P03,D08,0,1,1
138,0.04,1644586182.46875,P03,D08,0,1,1
139,0.12,1644586182.484375,P03,D08,0,1,1
140,0.21,1644586182.5,P03,D08,0,1,1
141,0.25,1644586182.515625,P03,D08,0,1,1
142,0.22,1644586182.53125,P03,D08,0,1,1
143,0.14,1644586182.546875,P03,D08,0,1,1
144,0.05,1644586182.5625,P03,D08,0,1,1
145,-0.03,1644586182.578125,P03,D08,0,1,1
146,-0.08,1644586182.59375,P03,D08,0,1,1
147,-0.12,1644586182.609375,P03,D08,0,1,1
148,-0.16,1644586182.625,P03,D08,0,1,1
149,-0.19,1644586182.640625,P03,D08,0,1,1
150,-0.18,1644586182.65625,P03,D08,0,1,1
151,-0.13,1644586182.671875,P03,D08,0,1,1
152,-0.08,1644586182.6875,P03,D08,0,1,1
153,-0.06,1644586182.703125,P03,D08,0,1,1
154,-0.15,1644586182.71875,P03,D08,0,1,1
155,-0.34,1644586182.734375,P03,D08,0,1,1
156,-0.62,1644586182.75,P03,D08,0,1,1
157,-0.89,1644586182.765625,P03,D08,0,1,1
158,-1.06,1644586182.78125,P03,D08,0,1,1
159,-1.06,1644586182.796875,P03,D08,0,1,1
160,-0.87,1644586182.8125,P03,D08,0,1,1
161,-0.53,1644586182.828125,P03,D08,0,1,1
162,-0.15,1644586182.84375,P03,D08,0,1,1
163,0.13,1644586182.859375,P03,D08,0,1,1
164,0.2,1644586182.875,P03,D08,0,1,1
165,0.02,1644586182.890625,P03,D08,0,1,1
166,-0.38,1644586182.90625,P03,D08,0,1,1
167,-0.85,1644586182.921875,P03,D08,0,1,1
168,-1.21,1644586182.9375,P03,D08,0,1,1
169,-1.31,1644586182.953125,P03,D08,0,1,1
170,-1.09,1644586182.96875,P03,D08,0,1,1
171,-0.62,1644586182.984375,P03,D08,0,1,1
172,-0.04,1644586183.0,P03,D08,0,1,1
173,0.46,1644586183.015625,P03,D08,0,1,1
174,0.75,1644586183.03125,P03,D08,0,1,1
175,0.79,1644586183.046875,P03,D08,0,1,1
176,0.61,1644586183.0625,P03,D08,0,1,1
177,0.27,1644586183.078125,P03,D08,0,1,1
178,-0.12,1644586183.09375,P03,D08,0,1,1
179,-0.46,1644586183.109375,P03,D08,0,1,1
180,-0.66,1644586183.125,P03,D08,0,1,1
181,-0.67,1644586183.140625,P03,D08,0,1,1
182,-0.46,1644586183.15625,P03,D08,0,1,1
183,-0.06,1644586183.171875,P03,D08,0,1,1
184,0.45,1644586183.1875,P03,D08,0,1,1
185,0.94,1644586183.203125,P03,D08,0,1,1
186,1.27,1644586183.21875,P03,D08,0,1,1
187,1.35,1644586183.234375,P03,D08,0,1,1
188,1.18,1644586183.25,P03,D08,0,1,1
189,0.81,1644586183.265625,P03,D08,0,1,1
190,0.36,1644586183.28125,P03,D08,0,1,1
191,-0.06,1644586183.296875,P03,D08,0,1,1
192,-0.37,1644586183.3125,P03,D08,0,1,1
193,-0.54,1644586183.328125,P03,D08,0,1,1
194,-0.58,1644586183.34375,P03,D08,0,1,1
195,-0.51,1644586183.359375,P03,D08,0,1,1
196,-0.38,1644586183.375,P03,D08,0,1,1
197,-0.22,1644586183.390625,P03,D08,0,1,1
198,-0.07,1644586183.40625,P03,D08,0,1,1
199,0.04,1644586183.421875,P03,D08,0,1,1
200,0.08,1644586183.4375,P03,D08,0,1,1
201,0.04,1644586183.453125,P03,D08,0,1,1
202,-0.05,1644586183.46875,P03,D08,0,1,1
203,-0.15,1644586183.484375,P03,D08,0,1,1
204,-0.21,1644586183.5,P03,D08,0,1,1
205,-0.19,1644586183.515625,P03,D08,0,1,1
206,-0.09,1644586183.53125,P03,D08,0,1,1
207,0.08,1644586183.546875,P03,D08,0,1,1
208,0.34,1644586183.5625,P03,D08,0,1,1
209,0.67,1644586183.578125,P03,D08,0,1,1
210,1.02,1644586183.59375,P03,D08,0,1,1
211,1.33,1644586183.609375,P03,D08,0,1,1
212,1.48,1644586183.625,P03,D08,0,1,1
213,1.38,1644586183.640625,P03,D08,0,1,1
214,1.03,1644586183.65625,P03,D08,0,1,1
215,0.48,1644586183.671875,P03,D08,0,1,1
216,-0.1,1644586183.6875,P03,D08,0,1,1
217,-0.56,1644586183.703125,P03,D08,0,1,1
218,-0.78,1644586183.71875,P03,D08,0,1,1
219,-0.76,1644586183.734375,P03,D08,0,1,1
220,-0.56,1644586183.75,P03,D08,0,1,1
221,-0.29,1644586183.765625,P03,D08,0,1,1
222,-0.05,1644586183.78125,P03,D08,0,1,1
223,0.13,1644586183.796875,P03,D08,0,1,1
224,0.25,1644586183.8125,P03,D08,0,1,1
225,0.36,1644586183.828125,P03,D08,0,1,1
226,0.49,1644586183.84375,P03,D08,0,1,1
227,0.64,1644586183.859375,P03,D08,0,1,1
228,0.76,1644586183.875,P03,D08,0,1,1
229,0.79,1644586183.890625,P03,D08,0,1,1
230,0.67,1644586183.90625,P03,D08,0,1,1
231,0.42,1644586183.921875,P03,D08,0,1,1
232,0.09,1644586183.9375,P03,D08,0,1,1
233,-0.22,1644586183.953125,P03,D08,0,1,1
234,-0.39,1644586183.96875,P03,D08,0,1,1
235,-0.4,1644586183.984375,P03,D08,0,1,1
236,-0.29,1644586184.0,P03,D08,0,1,1
237,-0.19,1644586184.015625,P03,D08,0,1,1
238,-0.23,1644586184.03125,P03,D08,0,1,1
239,-0.44,1644586184.046875,P03,D08,0,1,1
240,-0.78,1644586184.0625,P03,D08,0,1,1
241,-1.1,1644586184.078125,P03,D08,0,1,1
242,-1.27,1644586184.09375,P03,D08,0,1,1
243,-1.22,1644586184.109375,P03,D08,0,1,1
244,-1.0,1644586184.125,P03,D08,0,1,1
245,-0.73,1644586184.140625,P03,D08,0,1,1
246,-0.53,1644586184.15625,P03,D08,0,1,1
247,-0.45,1644586184.171875,P03,D08,0,1,1
248,-0.43,1644586184.1875,P03,D08,0,1,1
249,-0.35,1644586184.203125,P03,D08,0,1,1
250,-0.14,1644586184.21875,P03,D08,0,1,1
251,0.2,1644586184.234375,P03,D08,0,1,1
252,0.57,1644586184.25,P03,D08,0,1,1
253,0.82,1644586184.265625,P03,D08,0,1,1
254,0.86,1644586184.28125,P03,D08,0,1,1
255,0.66,1644586184.296875,P03,D08,0,1,1
256,0.31,1644586184.3125,P03,D08,0,1,1
257,-0.06,1644586184.328125,P03,D08,0,1,1
258,-0.31,1644586184.34375,P03,D08,0,1,1
259,-0.36,1644586184.359375,P03,D08,0,1,1
260,-0.21,1644586184.375,P03,D08,0,1,1
261,0.09,1644586184.390625,P03,D08,0,1,1
262,0.44,1644586184.40625,P03,D08,0,1,1
263,0.75,1644586184.421875,P03,D08,0,1,1
264,0.95,1644586184.4375,P03,D08,0,1,1
265,1.02,1644586184.453125,P03,D08,0,1,1
266,0.95,1644586184.46875,P03,D08,0,1,1
267,0.76,1644586184.484375,P03,D08,0,1,1
268,0.48,1644586184.5,P03,D08,0,1,1
269,0.18,1644586184.515625,P03,D08,0,1,1
270,-0.09,1644586184.53125,P03,D08,0,1,1
271,-0.24,1644586184.546875,P03,D08,0,1,1
272,-0.22,1644586184.5625,P03,D08,0,1,1
273,-0.06,1644586184.578125,P03,D08,0,1,1
274,0.15,1644586184.59375,P03,D08,0,1,1
275,0.26,1644586184.609375,P03,D08,0,1,1
276,0.19,1644586184.625,P03,D08,0,1,1
277,-0.07,1644586184.640625,P03,D08,0,1,1
278,-0.43,1644586184.65625,P03,D08,0,1,1
279,-0.73,1644586184.671875,P03,D08,0,1,1
280,-0.83,1644586184.6875,P03,D08,0,1,1
281,-0.66,1644586184.703125,P03,D08,0,1,1
282,-0.29,1644586184.71875,P03,D08,0,1,1
283,0.15,1644586184.734375,P03,D08,0,1,1
284,0.53,1644586184.75,P03,D08,0,1,1
285,0.73,1644586184.765625,P03,D08,0,1,1
286,0.72,1644586184.78125,P03,D08,0,1,1
287,0.52,1644586184.796875,P03,D08,0,1,1
288,0.22,1644586184.8125,P03,D08,0,1,1
289,-0.1,1644586184.828125,P03,D08,0,1,1
290,-0.37,1644586184.84375,P03,D08,0,1,1
291,-0.51,1644586184.859375,P03,D08,0,1,1
292,-0.52,1644586184.875,P03,D08,0,1,1
293,-0.43,1644586184.890625,P03,D08,0,1,1
294,-0.28,1644586184.90625,P03,D08,0,1,1
295,-0.12,1644586184.921875,P03,D08,0,1,1
296,0.03,1644586184.9375,P03,D08,0,1,1
297,0.14,1644586184.953125,P03,D08,0,1,1
298,0.21,1644586184.96875,P03,D08,0,1,1
299,0.25,1644586184.984375,P03,D08,0,1,1
300,0.25,1644586185.0,P03,D08,0,1,1
301,0.24,1644586185.015625,P03,D08,0,1,1
302,0.23,1644586185.03125,P03,D08,0,1,1
303,0.26,1644586185.046875,P03,D08,0,1,1
304,0.32,1644586185.0625,P03,D08,0,1,1
305,0.36,1644586185.078125,P03,D08,0,1,1
306,0.33,1644586185.09375,P03,D08,0,1,1
307,0.16,1644586185.109375,P03,D08,0,1,1
308,-0.15,1644586185.125,P03,D08,0,1,1
309,-0.5,1644586185.140625,P03,D08,0,1,1
310,-0.78,1644586185.15625,P03,D08,0,1,1
311,-0.87,1644586185.171875,P03,D08,0,1,1
312,-0.73,1644586185.1875,P03,D08,0,1,1
313,-0.38,1644586185.203125,P03,D08,0,1,1
314,0.04,1644586185.21875,P03,D08,0,1,1
315,0.43,1644586185.234375,P03,D08,0,1,1
316,0.7,1644586185.25,P03,D08,0,1,1
317,0.82,1644586185.265625,P03,D08,0,1,1
318,0.79,1644586185.28125,P03,D08,0,1,1
319,0.62,1644586185.296875,P03,D08,0,1,1
320,0.35,1644586185.3125,P03,D08,0,1,1
321,0.04,1644586185.328125,P03,D08,0,1,1
322,-0.21,1644586185.34375,P03,D08,0,1,1
323,-0.3,1644586185.359375,P03,D08,0,1,1
324,-0.21,1644586185.375,P03,D08,0,1,1
325,-0.0,1644586185.390625,P03,D08,0,1,1
326,0.23,1644586185.40625,P03,D08,0,1,1
327,0.38,1644586185.421875,P03,D08,0,1,1
328,0.4,1644586185.4375,P03,D08,0,1,1
329,0.32,1644586185.453125,P03,D08,0,1,1
330,0.17,1644586185.46875,P03,D08,0,1,1
331,-0.0,1644586185.484375,P03,D08,0,1,1
332,-0.21,1644586185.5,P03,D08,0,1,1
333,-0.44,1644586185.515625,P03,D08,0,1,1
334,-0.68,1644586185.53125,P03,D08,0,1,1
335,-0.84,1644586185.546875,P03,D08,0,1,1
336,-0.87,1644586185.5625,P03,D08,0,1,1
337,-0.72,1644586185.578125,P03,D08,0,1,1
338,-0.45,1644586185.59375,P03,D08,0,1,1
339,-0.16,1644586185.609375,P03,D08,0,1,1
340,0.05,1644586185.625,P03,D08,0,1,1
341,0.1,1644586185.640625,P03,D08,0,1,1
342,-0.03,1644586185.65625,P03,D08,0,1,1
343,-0.27,1644586185.671875,P03,D08,0,1,1
344,-0.55,1644586185.6875,P03,D08,0,1,1
345,-0.77,1644586185.703125,P03,D08,0,1,1
346,-0.86,1644586185.71875,P03,D08,0,1,1
347,-0.81,1644586185.734375,P03,D08,0,1,1
348,-0.63,1644586185.75,P03,D08,0,1,1
349,-0.39,1644586185.765625,P03,D08,0,1,1
350,-0.16,1644586185.78125,P03,D08,0,1,1
351,-0.03,1644586185.796875,P03,D08,0,1,1
352,-0.03,1644586185.8125,P03,D08,0,1,1
353,-0.19,1644586185.828125,P03,D08,0,1,1
354,-0.46,1644586185.84375,P03,D08,0,1,1
355,-0.79,1644586185.859375,P03,D08,0,1,1
356,-1.1,1644586185.875,P03,D08,0,1,1
357,-1.29,1644586185.890625,P03,D08,0,1,1
358,-1.31,1644586185.90625,P03,D08,0,1,1
359,-1.1,1644586185.921875,P03,D08,0,1,1
360,-0.7,1644586185.9375,P03,D08,0,1,1
361,-0.16,1644586185.953125,P03,D08,0,1,1
362,0.4,1644586185.96875,P03,D08,0,1,1
363,0.88,1644586185.984375,P03,D08,0,1,1
364,1.19,1644586186.0,P03,D08,0,1,1
365,1.27,1644586186.015625,P03,D08,0,1,1
366,1.12,1644586186.03125,P03,D08,0,1,1
367,0.8,1644586186.046875,P03,D08,0,1,1
368,0.42,1644586186.0625,P03,D08,0,1,1
369,0.1,1644586186.078125,P03,D08,0,1,1
370,-0.05,1644586186.09375,P03,D08,0,1,1
371,0.0,1644586186.109375,P03,D08,0,1,1
372,0.22,1644586186.125,P03,D08,0,1,1
373,0.5,1644586186.140625,P03,D08,0,1,1
374,0.74,1644586186.15625,P03,D08,0,1,1
375,0.85,1644586186.171875,P03,D08,0,1,1
376,0.84,1644586186.1875,P03,D08,0,1,1
377,0.76,1644586186.203125,P03,D08,0,1,1
378,0.67,1644586186.21875,P03,D08,0,1,1
379,0.58,1644586186.234375,P03,D08,0,1,1
380,0.47,1644586186.25,P03,D08,0,1,1
381,0.3,1644586186.265625,P03,D08,0,1,1
382,0.06,1644586186.28125,P03,D08,0,1,1
383,-0.19,1644586186.296875,P03,D08,0,1,1
384,-0.35,1644586186.3125,P03,D08,0,1,1
385,-0.35,1644586186.328125,P03,D08,0,1,1
386,-0.21,1644586186.34375,P03,D08,0,1,1
387,-0.01,1644586186.359375,P03,D08,0,1,1
388,0.12,1644586186.375,P03,D08,0,1,1
389,0.14,1644586186.390625,P03,D08,0,1,1
390,0.06,1644586186.40625,P03,D08,0,1,1
391,0.0,1644586186.421875,P03,D08,0,1,1
392,0.08,1644586186.4375,P03,D08,0,1,1
393,0.31,1644586186.453125,P03,D08,0,1,1
394,0.62,1644586186.46875,P03,D08,0,1,1
395,0.88,1644586186.484375,P03,D08,0,1,1
396,0.97,1644586186.5,P03,D08,0,1,1
397,0.84,1644586186.515625,P03,D08,0,1,1
398,0.56,1644586186.53125,P03,D08,0,1,1
399,0.22,1644586186.546875,P03,D08,0,1,1
400,-0.08,1644586186.5625,P03,D08,0,1,1
401,-0.33,1644586186.578125,P03,D08,0,1,1
402,-0.53,1644586186.59375,P03,D08,0,1,1
403,-0.7,1644586186.609375,P03,D08,0,1,1
404,-0.85,1644586186.625,P03,D08,0,1,1
405,-0.96,1644586186.640625,P03,D08,0,1,1
406,-1.0,1644586186.65625,P03,D08,0,1,1
407,-0.93,1644586186.671875,P03,D08,0,1,1
408,-0.73,1644586186.6875,P03,D08,0,1,1
409,-0.43,1644586186.703125,P03,D08,0,1,1
410,-0.1,1644586186.71875,P03,D08,0,1,1
411,0.17,1644586186.734375,P03,D08,0,1,1
412,0.29,1644586186.75,P03,D08,0,1,1
413,0.24,1644586186.765625,P03,D08,0,1,1
414,0.05,1644586186.78125,P03,D08,0,1,1
415,-0.2,1644586186.796875,P03,D08,0,1,1
416,-0.41,1644586186.8125,P03,D08,0,1,1
417,-0.52,1644586186.828125,P03,D08,0,1,1
418,-0.51,1644586186.84375,P03,D08,0,1,1
419,-0.39,1644586186.859375,P03,D08,0,1,1
420,-0.2,1644586186.875,P03,D08,0,1,1
421,0.05,1644586186.890625,P03,D08,0,1,1
422,0.33,1644586186.90625,P03,D08,0,1,1
423,0.6,1644586186.921875,P03,D08,0,1,1
424,0.82,1644586186.9375,P03,D08,0,1,1
425,0.93,1644586186.953125,P03,D08,0,1,1
426,0.88,1644586186.96875,P03,D08,0,1,1
427,0.68,1644586186.984375,P03,D08,0,1,1
428,0.41,1644586187.0,P03,D08,0,1,1
429,0.16,1644586187.015625,P03,D08,0,1,1
430,0.02,1644586187.03125,P03,D08,0,1,1
431,0.05,1644586187.046875,P03,D08,0,1,1
432,0.21,1644586187.0625,P03,D08,0,1,1
433,0.44,1644586187.078125,P03,D08,0,1,1
434,0.65,1644586187.09375,P03,D08,0,1,1
435,0.78,1644586187.109375,P03,D08,0,1,1
436,0.82,1644586187.125,P03,D08,0,1,1
437,0.78,1644586187.140625,P03,D08,0,1,1
438,0.7,1644586187.15625,P03,D08,0,1,1
439,0.59,1644586187.171875,P03,D08,0,1,1
440,0.46,1644586187.1875,P03,D08,0,1,1
441,0.27,1644586187.203125,P03,D08,0,1,1
442,0.01,1644586187.21875,P03,D08,0,1,1
443,-0.28,1644586187.234375,P03,D08,0,1,1
444,-0.54,1644586187.25,P03,D08,0,1,1
445,-0.7,1644586187.265625,P03,D08,0,1,1
446,-0.75,1644586187.28125,P03,D08,0,1,1
447,-0.74,1644586187.296875,P03,D08,0,1,1
448,-0.75,1644586187.3125,P03,D08,0,1,1
449,-0.84,1644586187.328125,P03,D08,0,1,1
450,-1.0,1644586187.34375,P03,D08,0,1,1
451,-1.19,1644586187.359375,P03,D08,0,1,1
452,-1.3,1644586187.375,P03,D08,0,1,1
453,-1.23,1644586187.390625,P03,D08,0,1,1
454,-0.98,1644586187.40625,P03,D08,0,1,1
455,-0.58,1644586187.421875,P03,D08,0,1,1
456,-0.16,1644586187.4375,P03,D08,0,1,1
457,0.2,1644586187.453125,P03,D08,0,1,1
458,0.4,1644586187.46875,P03,D08,0,1,1
459,0.45,1644586187.484375,P03,D08,0,1,1
460,0.39,1644586187.5,P03,D08,0,1,1
461,0.28,1644586187.515625,P03,D08,0,1,1
462,0.17,1644586187.53125,P03,D08,0,1,1
463,0.09,1644586187.546875,P03,D08,0,1,1
464,0.05,1644586187.5625,P03,D08,0,1,1
465,0.03,1644586187.578125,P03,D08,0,1,1
466,0.05,1644586187.59375,P03,D08,0,1,1
467,0.09,1644586187.609375,P03,D08,0,1,1
468,0.17,1644586187.625,P03,D08,0,1,1
469,0.28,1644586187.640625,P03,D08,0,1,1
470,0.41,1644586187.65625,P03,D08,0,1,1
471,0.5,1644586187.671875,P03,D08,0,1,1
472,0.54,1644586187.6875,P03,D08,0,1,1
473,0.47,1644586187.703125,P03,D08,0,1,1
474,0.28,1644586187.71875,P03,D08,0,1,1
475,0.02,1644586187.734375,P03,D08,0,1,1
476,-0.28,1644586187.75,P03,D08,0,1,1
477,-0.53,1644586187.765625,P03,D08,0,1,1
478,-0.67,1644586187.78125,P03,D08,0,1,1
479,-0.67,1644586187.796875,P03,D08,0,1,1
480,-0.53,1644586187.8125,P03,D08,0,1,1
481,-0.32,1644586187.828125,P03,D08,0,1,1
482,-0.1,1644586187.84375,P03,D08,0,1,1
483,0.06,1644586187.859375,P03,D08,0,1,1
484,0.1,1644586187.875,P03,D08,0,1,1
485,0.05,1644586187.890625,P03,D08,0,1,1
486,-0.02,1644586187.90625,P03,D08,0,1,1
487,-0.05,1644586187.921875,P03,D08,0,1,1
488,0.02,1644586187.9375,P03,D08,0,1,1
489,0.22,1644586187.953125,P03,D08,0,1,1
490,0.48,1644586187.96875,P03,D08,0,1,1
491,0.7,1644586187.984375,P03,D08,0,1,1
492,0.79,1644586188.0,P03,D08,0,1,1
493,0.7,1644586188.015625,P03,D08,0,1,1
494,0.46,1644586188.03125,P03,D08,0,1,1
495,0.17,1644586188.046875,P03,D08,0,1,1
496,-0.04,1644586188.0625,P03,D08,0,1,1
497,-0.08,1644586188.078125,P03,D08,0,1,1
498,0.06,1644586188.09375,P03,D08,0,1,1
499,0.29,1644586188.109375,P03,D08,0,1,1
500,0.52,1644586188.125,P03,D08,0,1,1
501,0.65,1644586188.140625,P03,D08,0,1,1
502,0.68,1644586188.15625,P03,D08,0,1,1
503,0.61,1644586188.171875,P03,D08,0,1,1
504,0.5,1644586188.1875,P03,D08,0,1,1
505,0.35,1644586188.203125,P03,D08,0,1,1
506,0.15,1644586188.21875,P03,D08,0,1,1
507,-0.13,1644586188.234375,P03,D08,0,1,1
508,-0.46,1644586188.25,P03,D08,0,1,1
509,-0.76,1644586188.265625,P03,D08,0,1,1
510,-0.92,1644586188.28125,P03,D08,0,1,1
511,-0.86,1644586188.296875,P03,D08,0,1,1
512,-0.61,1644586188.3125,P03,D08,0,1,1
513,-0.26,1644586188.328125,P03,D08,0,1,1
514,0.05,1644586188.34375,P03,D08,0,1,1
515,0.2,1644586188.359375,P03,D08,0,1,1
516,0.16,1644586188.375,P03,D08,0,1,1
517,-0.02,1644586188.390625,P03,D08,0,1,1
518,-0.25,1644586188.40625,P03,D08,0,1,1
519,-0.44,1644586188.421875,P03,D08,0,1,1
520,-0.56,1644586188.4375,P03,D08,0,1,1
521,-0.59,1644586188.453125,P03,D08,0,1,1
522,-0.53,1644586188.46875,P03,D08,0,1,1
523,-0.39,1644586188.484375,P03,D08,0,1,1
524,-0.19,1644586188.5,P03,D08,0,1,1
525,0.05,1644586188.515625,P03,D08,0,1,1
526,0.26,1644586188.53125,P03,D08,0,1,1
527,0.38,1644586188.546875,P03,D08,0,1,1
528,0.36,1644586188.5625,P03,D08,0,1,1
529,0.22,1644586188.578125,P03,D08,0,1,1
530,0.01,1644586188.59375,P03,D08,0,1,1
531,-0.2,1644586188.609375,P03,D08,0,1,1
532,-0.35,1644586188.625,P03,D08,0,1,1
533,-0.41,1644586188.640625,P03,D08,0,1,1
534,-0.39,1644586188.65625,P03,D08,0,1,1
535,-0.29,1644586188.671875,P03,D08,0,1,1
536,-0.11,1644586188.6875,P03,D08,0,1,1
537,0.12,1644586188.703125,P03,D08,0,1,1
538,0.37,1644586188.71875,P03,D08,0,1,1
539,0.58,1644586188.734375,P03,D08,0,1,1
540,0.67,1644586188.75,P03,D08,0,1,1
541,0.6,1644586188.765625,P03,D08,0,1,1
542,0.39,1644586188.78125,P03,D08,0,1,1
543,0.1,1644586188.796875,P03,D08,0,1,1
544,-0.18,1644586188.8125,P03,D08,0,1,1
545,-0.38,1644586188.828125,P03,D08,0,1,1
546,-0.48,1644586188.84375,P03,D08,0,1,1
547,-0.51,1644586188.859375,P03,D08,0,1,1
548,-0.52,1644586188.875,P03,D08,0,1,1
549,-0.52,1644586188.890625,P03,D08,0,1,1
550,-0.51,1644586188.90625,P03,D08,0,1,1
551,-0.46,1644586188.921875,P03,D08,0,1,1
552,-0.34,1644586188.9375,P03,D08,0,1,1
553,-0.16,1644586188.953125,P03,D08,0,1,1
554,0.04,1644586188.96875,P03,D08,0,1,1
555,0.21,1644586188.984375,P03,D08,0,1,1
556,0.33,1644586189.0,P03,D08,0,1,1
557,0.39,1644586189.015625,P03,D08,0,1,1
558,0.41,1644586189.03125,P03,D08,0,1,1
559,0.44,1644586189.046875,P03,D08,0,1,1
560,0.47,1644586189.0625,P03,D08,0,1,1
561,0.5,1644586189.078125,P03,D08,0,1,1
562,0.54,1644586189.09375,P03,D08,0,1,1
563,0.56,1644586189.109375,P03,D08,0,1,1
564,0.58,1644586189.125,P03,D08,0,1,1
565,0.58,1644586189.140625,P03,D08,0,1,1
566,0.57,1644586189.15625,P03,D08,0,1,1
567,0.52,1644586189.171875,P03,D08,0,1,1
568,0.42,1644586189.1875,P03,D08,0,1,1
569,0.28,1644586189.203125,P03,D08,0,1,1
570,0.11,1644586189.21875,P03,D08,0,1,1
571,-0.03,1644586189.234375,P03,D08,0,1,1
572,-0.11,1644586189.25,P03,D08,0,1,1
573,-0.1,1644586189.265625,P03,D08,0,1,1
574,-0.03,1644586189.28125,P03,D08,0,1,1
575,0.04,1644586189.296875,P03,D08,0,1,1
576,0.07,1644586189.3125,P03,D08,0,1,1
577,0.03,1644586189.328125,P03,D08,0,1,1
578,-0.06,1644586189.34375,P03,D08,0,1,1
579,-0.15,1644586189.359375,P03,D08,0,1,1
580,-0.19,1644586189.375,P03,D08,0,1,1
581,-0.17,1644586189.390625,P03,D08,0,1,1
582,-0.09,1644586189.40625,P03,D08,0,1,1
583,0.01,1644586189.421875,P03,D08,0,1,1
584,0.09,1644586189.4375,P03,D08,0,1,1
585,0.13,1644586189.453125,P03,D08,0,1,1
586,0.13,1644586189.46875,P03,D08,0,1,1
587,0.07,1644586189.484375,P03,D08,0,1,1
588,-0.06,1644586189.5,P03,D08,0,1,1
589,-0.28,1644586189.515625,P03,D08,0,1,1
590,-0.59,1644586189.53125,P03,D08,0,1,1
591,-0.93,1644586189.546875,P03,D08,0,1,1
592,-1.21,1644586189.5625,P03,D08,0,1,1
593,-1.34,1644586189.578125,P03,D08,0,1,1
594,-1.25,1644586189.59375,P03,D08,0,1,1
595,-0.98,1644586189.609375,P03,D08,0,1,1
596,-0.58,1644586189.625,P03,D08,0,1,1
597,-0.17,1644586189.640625,P03,D08,0,1,1
598,0.2,1644586189.65625,P03,D08,0,1,1
599,0.48,1644586189.671875,P03,D08,0,1,1
600,0.71,1644586189.6875,P03,D08,0,1,1
601,0.91,1644586189.703125,P03,D08,0,1,1
602,1.13,1644586189.71875,P03,D08,0,1,1
603,1.33,1644586189.734375,P03,D08,0,1,1
604,1.48,1644586189.75,P03,D08,0,1,1
605,1.54,1644586189.765625,P03,D08,0,1,1
606,1.47,1644586189.78125,P03,D08,0,1,1
607,1.26,1644586189.796875,P03,D08,0,1,1
608,0.95,1644586189.8125,P03,D08,0,1,1
609,0.57,1644586189.828125,P03,D08,0,1,1
610,0.18,1644586189.84375,P03,D08,0,1,1
611,-0.14,1644586189.859375,P03,D08,0,1,1
612,-0.35,1644586189.875,P03,D08,0,1,1
613,-0.45,1644586189.890625,P03,D08,0,1,1
614,-0.48,1644586189.90625,P03,D08,0,1,1
615,-0.53,1644586189.921875,P03,D08,0,1,1
616,-0.65,1644586189.9375,P03,D08,0,1,1
617,-0.84,1644586189.953125,P03,D08,0,1,1
618,-1.06,1644586189.96875,P03,D08,0,1,1
619,-1.22,1644586189.984375,P03,D08,0,1,1
620,-1.29,1644586190.0,P03,D08,0,1,1
621,-1.3,1644586190.015625,P03,D08,0,1,1
622,-1.3,1644586190.03125,P03,D08,0,1,1
623,-1.31,1644586190.046875,P03,D08,0,1,1
624,-1.31,1644586190.0625,P03,D08,0,1,1
625,-1.22,1644586190.078125,P03,D08,0,1,1
626,-0.97,1644586190.09375,P03,D08,0,1,1
627,-0.55,1644586190.109375,P03,D08,0,1,1
628,-0.03,1644586190.125,P03,D08,0,1,1
629,0.44,1644586190.140625,P03,D08,0,1,1
630,0.75,1644586190.15625,P03,D08,0,1,1
631,0.86,1644586190.171875,P03,D08,0,1,1
632,0.82,1644586190.1875,P03,D08,0,1,1
633,0.74,1644586190.203125,P03,D08,0,1,1
634,0.7,1644586190.21875,P03,D08,0,1,1
635,0.72,1644586190.234375,P03,D08,0,1,1
636,0.73,1644586190.25,P03,D08,0,1,1
637,0.66,1644586190.265625,P03,D08,0,1,1
638,0.46,1644586190.28125,P03,D08,0,1,1
639,0.14,1644586190.296875,P03,D08,0,1,1
640,-0.18,1644586190.3125,P03,D08,0,1,1
641,-0.38,1644586190.328125,P03,D08,0,1,1
642,-0.37,1644586190.34375,P03,D08,0,1,1
643,-0.16,1644586190.359375,P03,D08,0,1,1
644,0.15,1644586190.375,P03,D08,0,1,1
645,0.44,1644586190.390625,P03,D08,0,1,1
646,0.63,1644586190.40625,P03,D08,0,1,1
647,0.71,1644586190.421875,P03,D08,0,1,1
648,0.72,1644586190.4375,P03,D08,0,1,1
649,0.76,1644586190.453125,P03,D08,0,1,1
650,0.83,1644586190.46875,P03,D08,0,1,1
651,0.92,1644586190.484375,P03,D08,0,1,1
652,0.96,1644586190.5,P03,D08,0,1,1
653,0.88,1644586190.515625,P03,D08,0,1,1
654,0.68,1644586190.53125,P03,D08,0,1,1
655,0.4,1644586190.546875,P03,D08,0,1,1
656,0.11,1644586190.5625,P03,D08,0,1,1
657,-0.18,1644586190.578125,P03,D08,0,1,1
658,-0.45,1644586190.59375,P03,D08,0,1,1
659,-0.74,1644586190.609375,P03,D08,0,1,1
660,-1.04,1644586190.625,P03,D08,0,1,1
661,-1.33,1644586190.640625,P03,D08,0,1,1
662,-1.51,1644586190.65625,P03,D08,0,1,1
663,-1.53,1644586190.671875,P03,D08,0,1,1
664,-1.34,1644586190.6875,P03,D08,0,1,1
665,-0.95,1644586190.703125,P03,D08,0,1,1
666,-0.48,1644586190.71875,P03,D08,0,1,1
667,-0.03,1644586190.734375,P03,D08,0,1,1
668,0.28,1644586190.75,P03,D08,0,1,1
669,0.4,1644586190.765625,P03,D08,0,1,1
670,0.34,1644586190.78125,P03,D08,0,1,1
671,0.16,1644586190.796875,P03,D08,0,1,1
672,-0.01,1644586190.8125,P03,D08,0,1,1
673,-0.1,1644586190.828125,P03,D08,0,1,1
674,-0.03,1644586190.84375,P03,D08,0,1,1
675,0.16,1644586190.859375,P03,D08,0,1,1
676,0.39,1644586190.875,P03,D08,0,1,1
677,0.55,1644586190.890625,P03,D08,0,1,1
678,0.56,1644586190.90625,P03,D08,0,1,1
679,0.42,1644586190.921875,P03,D08,0,1,1
680,0.19,1644586190.9375,P03,D08,0,1,1
681,-0.03,1644586190.953125,P03,D08,0,1,1
682,-0.16,1644586190.96875,P03,D08,0,1,1
683,-0.14,1644586190.984375,P03,D08,0,1,1
684,0.02,1644586191.0,P03,D08,0,1,1
685,0.26,1644586191.015625,P03,D08,0,1,1
686,0.53,1644586191.03125,P03,D08,0,1,1
687,0.74,1644586191.046875,P03,D08,0,1,1
688,0.85,1644586191.0625,P03,D08,0,1,1
689,0.79,1644586191.078125,P03,D08,0,1,1
690,0.57,1644586191.09375,P03,D08,0,1,1
691,0.23,1644586191.109375,P03,D08,0,1,1
692,-0.12,1644586191.125,P03,D08,0,1,1
693,-0.37,1644586191.140625,P03,D08,0,1,1
694,-0.44,1644586191.15625,P03,D08,0,1,1
695,-0.34,1644586191.171875,P03,D08,0,1,1
696,-0.13,1644586191.1875,P03,D08,0,1,1
697,0.07,1644586191.203125,P03,D08,0,1,1
698,0.17,1644586191.21875,P03,D08,0,1,1
699,0.14,1644586191.234375,P03,D08,0,1,1
700,0.01,1644586191.25,P03,D08,0,1,1
701,-0.14,1644586191.265625,P03,D08,0,1,1
702,-0.25,1644586191.28125,P03,D08,0,1,1
703,-0.27,1644586191.296875,P03,D08,0,1,1
704,-0.21,1644586191.3125,P03,D08,0,1,1
705,-0.1,1644586191.328125,P03,D08,0,1,1
706,0.03,1644586191.34375,P03,D08,0,1,1
707,0.13,1644586191.359375,P03,D08,0,1,1
708,0.16,1644586191.375,P03,D08,0,1,1
709,0.13,1644586191.390625,P03,D08,0,1,1
710,0.07,1644586191.40625,P03,D08,0,1,1
711,0.02,1644586191.421875,P03,D08,0,1,1
712,0.04,1644586191.4375,P03,D08,0,1,1
713,0.14,1644586191.453125,P03,D08,0,1,1
714,0.3,1644586191.46875,P03,D08,0,1,1
715,0.42,1644586191.484375,P03,D08,0,1,1
716,0.41,1644586191.5,P03,D08,0,1,1
717,0.22,1644586191.515625,P03,D08,0,1,1
718,-0.16,1644586191.53125,P03,D08,0,1,1
719,-0.65,1644586191.546875,P03,D08,0,1,1
720,-1.16,1644586191.5625,P03,D08,0,1,1
721,-1.57,1644586191.578125,P03,D08,0,1,1
722,-1.8,1644586191.59375,P03,D08,0,1,1
723,-1.82,1644586191.609375,P03,D08,0,1,1
724,-1.65,1644586191.625,P03,D08,0,1,1
725,-1.35,1644586191.640625,P03,D08,0,1,1
726,-1.02,1644586191.65625,P03,D08,0,1,1
727,-0.73,1644586191.671875,P03,D08,0,1,1
728,-0.54,1644586191.6875,P03,D08,0,1,1
729,-0.49,1644586191.703125,P03,D08,0,1,1
730,-0.54,1644586191.71875,P03,D08,0,1,1
731,-0.64,1644586191.734375,P03,D08,0,1,1
732,-0.71,1644586191.75,P03,D08,0,1,1
733,-0.68,1644586191.765625,P03,D08,0,1,1
734,-0.49,1644586191.78125,P03,D08,0,1,1
735,-0.17,1644586191.796875,P03,D08,0,1,1
736,0.25,1644586191.8125,P03,D08,0,1,1
737,0.65,1644586191.828125,P03,D08,0,1,1
738,0.96,1644586191.84375,P03,D08,0,1,1
739,1.12,1644586191.859375,P03,D08,0,1,1
740,1.14,1644586191.875,P03,D08,0,1,1
741,1.08,1644586191.890625,P03,D08,0,1,1
742,1.03,1644586191.90625,P03,D08,0,1,1
743,1.01,1644586191.921875,P03,D08,0,1,1
744,1.01,1644586191.9375,P03,D08,0,1,1
745,0.97,1644586191.953125,P03,D08,0,1,1
746,0.84,1644586191.96875,P03,D08,0,1,1
747,0.62,1644586191.984375,P03,D08,0,1,1
748,0.38,1644586192.0,P03,D08,0,1,1
749,0.22,1644586192.015625,P03,D08,0,1,1
750,0.19,1644586192.03125,P03,D08,0,1,1
751,0.25,1644586192.046875,P03,D08,0,1,1
752,0.3,1644586192.0625,P03,D08,0,1,1
753,0.26,1644586192.078125,P03,D08,0,1,1
754,0.09,1644586192.09375,P03,D08,0,1,1
755,-0.13,1644586192.109375,P03,D08,0,1,1
756,-0.26,1644586192.125,P03,D08,0,1,1
757,-0.21,1644586192.140625,P03,D08,0,1,1
758,0.02,1644586192.15625,P03,D08,0,1,1
759,0.33,1644586192.171875,P03,D08,0,1,1
760,0.58,1644586192.1875,P03,D08,0,1,1
761,0.66,1644586192.203125,P03,D08,0,1,1
762,0.57,1644586192.21875,P03,D08,0,1,1
763,0.4,1644586192.234375,P03,D08,0,1,1
764,0.23,1644586192.25,P03,D08,0,1,1
765,0.12,1644586192.265625,P03,D08,0,1,1
766,0.07,1644586192.28125,P03,D08,0,1,1
767,-0.02,1644586192.296875,P03,D08,0,1,1
768,-0.19,1644586192.3125,P03,D08,0,1,1
769,-0.46,1644586192.328125,P03,D08,0,1,1
770,-0.75,1644586192.34375,P03,D08,0,1,1
771,-0.96,1644586192.359375,P03,D08,0,1,1
772,-1.0,1644586192.375,P03,D08,0,1,1
773,-0.83,1644586192.390625,P03,D08,0,1,1
774,-0.55,1644586192.40625,P03,D08,0,1,1
775,-0.28,1644586192.421875,P03,D08,0,1,1
776,-0.12,1644586192.4375,P03,D08,0,1,1
777,-0.12,1644586192.453125,P03,D08,0,1,1
778,-0.2,1644586192.46875,P03,D08,0,1,1
779,-0.23,1644586192.484375,P03,D08,0,1,1
780,-0.13,1644586192.5,P03,D08,0,1,1
781,0.12,1644586192.515625,P03,D08,0,1,1
782,0.44,1644586192.53125,P03,D08,0,1,1
783,0.7,1644586192.546875,P03,D08,0,1,1
784,0.77,1644586192.5625,P03,D08,0,1,1
785,0.65,1644586192.578125,P03,D08,0,1,1
786,0.42,1644586192.59375,P03,D08,0,1,1
787,0.2,1644586192.609375,P03,D08,0,1,1
788,0.09,1644586192.625,P03,D08,0,1,1
789,0.13,1644586192.640625,P03,D08,0,1,1
790,0.24,1644586192.65625,P03,D08,0,1,1
791,0.36,1644586192.671875,P03,D08,0,1,1
792,0.39,1644586192.6875,P03,D08,0,1,1
793,0.31,1644586192.703125,P03,D08,0,1,1
794,0.14,1644586192.71875,P03,D08,0,1,1
795,-0.07,1644586192.734375,P03,D08,0,1,1
796,-0.27,1644586192.75,P03,D08,0,1,1
797,-0.43,1644586192.765625,P03,D08,0,1,1
798,-0.55,1644586192.78125,P03,D08,0,1,1
799,-0.67,1644586192.796875,P03,D08,0,1,1
800,-0.79,1644586192.8125,P03,D08,0,1,1
801,-0.92,1644586192.828125,P03,D08,0,1,1
802,-1.02,1644586192.84375,P03,D08,0,1,1
803,-1.07,1644586192.859375,P03,D08,0,1,1
804,-1.03,1644586192.875,P03,D08,0,1,1
805,-0.9,1644586192.890625,P03,D08,0,1,1
806,-0.7,1644586192.90625,P03,D08,0,1,1
807,-0.49,1644586192.921875,P03,D08,0,1,1
808,-0.29,1644586192.9375,P03,D08,0,1,1
809,-0.11,1644586192.953125,P03,D08,0,1,1
810,0.07,1644586192.96875,P03,D08,0,1,1
811,0.23,1644586192.984375,P03,D08,0,1,1
812,0.38,1644586193.0,P03,D08,0,1,1
813,0.46,1644586193.015625,P03,D08,0,1,1
814,0.48,1644586193.03125,P03,D08,0,1,1
815,0.43,1644586193.046875,P03,D08,0,1,1
816,0.38,1644586193.0625,P03,D08,0,1,1
817,0.37,1644586193.078125,P03,D08,0,1,1
818,0.43,1644586193.09375,P03,D08,0,1,1
819,0.51,1644586193.109375,P03,D08,0,1,1
820,0.56,1644586193.125,P03,D08,0,1,1
821,0.5,1644586193.140625,P03,D08,0,1,1
822,0.34,1644586193.15625,P03,D08,0,1,1
823,0.15,1644586193.171875,P03,D08,0,1,1
824,0.03,1644586193.1875,P03,D08,0,1,1
825,0.06,1644586193.203125,P03,D08,0,1,1
826,0.24,1644586193.21875,P03,D08,0,1,1
827,0.52,1644586193.234375,P03,D08,0,1,1
828,0.78,1644586193.25,P03,D08,0,1,1
829,0.92,1644586193.265625,P03,D08,0,1,1
830,0.88,1644586193.28125,P03,D08,0,1,1
831,0.69,1644586193.296875,P03,D08,0,1,1
832,0.42,1644586193.3125,P03,D08,0,1,1
833,0.2,1644586193.328125,P03,D08,0,1,1
834,0.1,1644586193.34375,P03,D08,0,1,1
835,0.14,1644586193.359375,P03,D08,0,1,1
836,0.27,1644586193.375,P03,D08,0,1,1
837,0.38,1644586193.390625,P03,D08,0,1,1
838,0.37,1644586193.40625,P03,D08,0,1,1
839,0.2,1644586193.421875,P03,D08,0,1,1
840,-0.07,1644586193.4375,P03,D08,0,1,1
841,-0.35,1644586193.453125,P03,D08,0,1,1
842,-0.51,1644586193.46875,P03,D08,0,1,1
843,-0.5,1644586193.484375,P03,D08,0,1,1
844,-0.29,1644586193.5,P03,D08,0,1,1
845,0.03,1644586193.515625,P03,D08,0,1,1
846,0.36,1644586193.53125,P03,D08,0,1,1
847,0.61,1644586193.546875,P03,D08,0,1,1
848,0.71,1644586193.5625,P03,D08,0,1,1
849,0.62,1644586193.578125,P03,D08,0,1,1
850,0.39,1644586193.59375,P03,D08,0,1,1
851,0.11,1644586193.609375,P03,D08,0,1,1
852,-0.1,1644586193.625,P03,D08,0,1,1
853,-0.15,1644586193.640625,P03,D08,0,1,1
854,-0.01,1644586193.65625,P03,D08,0,1,1
855,0.29,1644586193.671875,P03,D08,0,1,1
856,0.6,1644586193.6875,P03,D08,0,1,1
857,0.77,1644586193.703125,P03,D08,0,1,1
858,0.71,1644586193.71875,P03,D08,0,1,1
859,0.41,1644586193.734375,P03,D08,0,1,1
860,-0.02,1644586193.75,P03,D08,0,1,1
861,-0.44,1644586193.765625,P03,D08,0,1,1
862,-0.72,1644586193.78125,P03,D08,0,1,1
863,-0.85,1644586193.796875,P03,D08,0,1,1
864,-0.88,1644586193.8125,P03,D08,0,1,1
865,-0.88,1644586193.828125,P03,D08,0,1,1
866,-0.88,1644586193.84375,P03,D08,0,1,1
867,-0.84,1644586193.859375,P03,D08,0,1,1
868,-0.68,1644586193.875,P03,D08,0,1,1
869,-0.39,1644586193.890625,P03,D08,0,1,1
870,-0.01,1644586193.90625,P03,D08,0,1,1
871,0.34,1644586193.921875,P03,D08,0,1,1
872,0.53,1644586193.9375,P03,D08,0,1,1
873,0.52,1644586193.953125,P03,D08,0,1,1
874,0.34,1644586193.96875,P03,D08,0,1,1
875,0.1,1644586193.984375,P03,D08,0,1,1
876,-0.08,1644586194.0,P03,D08,0,1,1
877,-0.17,1644586194.015625,P03,D08,0,1,1
878,-0.18,1644586194.03125,P03,D08,0,1,1
879,-0.17,1644586194.046875,P03,D08,0,1,1
880,-0.18,1644586194.0625,P03,D08,0,1,1
881,-0.25,1644586194.078125,P03,D08,0,1,1
882,-0.37,1644586194.09375,P03,D08,0,1,1
883,-0.54,1644586194.109375,P03,D08,0,1,1
884,-0.72,1644586194.125,P03,D08,0,1,1
885,-0.89,1644586194.140625,P03,D08,0,1,1
886,-0.97,1644586194.15625,P03,D08,0,1,1
887,-0.91,1644586194.171875,P03,D08,0,1,1
888,-0.7,1644586194.1875,P03,D08,0,1,1
889,-0.38,1644586194.203125,P03,D08,0,1,1
890,-0.02,1644586194.21875,P03,D08,0,1,1
891,0.28,1644586194.234375,P03,D08,0,1,1
892,0.46,1644586194.25,P03,D08,0,1,1
893,0.52,1644586194.265625,P03,D08,0,1,1
894,0.49,1644586194.28125,P03,D08,0,1,1
895,0.42,1644586194.296875,P03,D08,0,1,1
896,0.35,1644586194.3125,P03,D08,0,1,1
897,0.26,1644586194.328125,P03,D08,0,1,1
898,0.12,1644586194.34375,P03,D08,0,1,1
899,-0.09,1644586194.359375,P03,D08,0,1,1
900,-0.32,1644586194.375,P03,D08,0,1,1
901,-0.52,1644586194.390625,P03,D08,0,1,1
902,-0.6,1644586194.40625,P03,D08,0,1,1
903,-0.51,1644586194.421875,P03,D08,0,1,1
904,-0.28,1644586194.4375,P03,D08,0,1,1
905,0.05,1644586194.453125,P03,D08,0,1,1
906,0.38,1644586194.46875,P03,D08,0,1,1
907,0.64,1644586194.484375,P03,D08,0,1,1
908,0.79,1644586194.5,P03,D08,0,1,1
909,0.87,1644586194.515625,P03,D08,0,1,1
910,0.9,1644586194.53125,P03,D08,0,1,1
911,0.92,1644586194.546875,P03,D08,0,1,1
912,0.91,1644586194.5625,P03,D08,0,1,1
913,0.81,1644586194.578125,P03,D08,0,1,1
914,0.61,1644586194.59375,P03,D08,0,1,1
915,0.29,1644586194.609375,P03,D08,0,1,1
916,-0.06,1644586194.625,P03,D08,0,1,1
917,-0.32,1644586194.640625,P03,D08,0,1,1
918,-0.44,1644586194.65625,P03,D08,0,1,1
919,-0.37,1644586194.671875,P03,D08,0,1,1
920,-0.18,1644586194.6875,P03,D08,0,1,1
921,0.03,1644586194.703125,P03,D08,0,1,1
922,0.16,1644586194.71875,P03,D08,0,1,1
923,0.15,1644586194.734375,P03,D08,0,1,1
924,0.03,1644586194.75,P03,D08,0,1,1
925,-0.14,1644586194.765625,P03,D08,0,1,1
926,-0.26,1644586194.78125,P03,D08,0,1,1
927,-0.28,1644586194.796875,P03,D08,0,1,1
928,-0.21,1644586194.8125,P03,D08,0,1,1
929,-0.1,1644586194.828125,P03,D08,0,1,1
930,-0.02,1644586194.84375,P03,D08,0,1,1
931,-0.01,1644586194.859375,P03,D08,0,1,1
932,-0.06,1644586194.875,P03,D08,0,1,1
933,-0.11,1644586194.890625,P03,D08,0,1,1
934,-0.07,1644586194.90625,P03,D08,0,1,1
935,0.06,1644586194.921875,P03,D08,0,1,1
936,0.22,1644586194.9375,P03,D08,0,1,1
937,0.27,1644586194.953125,P03,D08,0,1,1
938,0.11,1644586194.96875,P03,D08,0,1,1
939,-0.23,1644586194.984375,P03,D08,0,1,1
940,-0.61,1644586195.0,P03,D08,0,1,1
941,-0.8,1644586195.015625,P03,D08,0,1,1
942,-0.68,1644586195.03125,P03,D08,0,1,1
943,-0.24,1644586195.046875,P03,D08,0,1,1
944,0.34,1644586195.0625,P03,D08,0,1,1
945,0.82,1644586195.078125,P03,D08,0,1,1
946,1.0,1644586195.09375,P03,D08,0,1,1
947,0.82,1644586195.109375,P03,D08,0,1,1
948,0.37,1644586195.125,P03,D08,0,1,1
949,-0.16,1644586195.140625,P03,D08,0,1,1
950,-0.6,1644586195.15625,P03,D08,0,1,1
951,-0.85,1644586195.171875,P03,D08,0,1,1
952,-0.88,1644586195.1875,P03,D08,0,1,1
953,-0.73,1644586195.203125,P03,D08,0,1,1
954,-0.46,1644586195.21875,P03,D08,0,1,1
955,-0.17,1644586195.234375,P03,D08,0,1,1
956,0.07,1644586195.25,P03,D08,0,1,1
957,0.18,1644586195.265625,P03,D08,0,1,1
958,0.15,1644586195.28125,P03,D08,0,1,1
959,-0.0,1644586195.296875,P03,D08,0,1,1
960,-0.2,1644586195.3125,P03,D08,0,1,1
961,-0.37,1644586195.328125,P03,D08,0,1,1
962,-0.46,1644586195.34375,P03,D08,0,1,1
963,-0.47,1644586195.359375,P03,D08,0,1,1
964,-0.44,1644586195.375,P03,D08,0,1,1
965,-0.42,1644586195.390625,P03,D08,0,1,1
966,-0.39,1644586195.40625,P03,D08,0,1,1
967,-0.33,1644586195.421875,P03,D08,0,1,1
968,-0.23,1644586195.4375,P03,D08,0,1,1
969,-0.06,1644586195.453125,P03,D08,0,1,1
970,0.13,1644586195.46875,P03,D08,0,1,1
971,0.3,1644586195.484375,P03,D08,0,1,1
972,0.44,1644586195.5,P03,D08,0,1,1
973,0.53,1644586195.515625,P03,D08,0,1,1
974,0.58,1644586195.53125,P03,D08,0,1,1
975,0.61,1644586195.546875,P03,D08,0,1,1
976,0.59,1644586195.5625,P03,D08,0,1,1
977,0.51,1644586195.578125,P03,D08,0,1,1
978,0.37,1644586195.59375,P03,D08,0,1,1
979,0.21,1644586195.609375,P03,D08,0,1,1
980,0.04,1644586195.625,P03,D08,0,1,1
981,-0.11,1644586195.640625,P03,D08,0,1,1
982,-0.28,1644586195.65625,P03,D08,0,1,1
983,-0.47,1644586195.671875,P03,D08,0,1,1
984,-0.67,1644586195.6875,P03,D08,0,1,1
985,-0.82,1644586195.703125,P03,D08,0,1,1
986,-0.86,1644586195.71875,P03,D08,0,1,1
987,-0.76,1644586195.734375,P03,D08,0,1,1
988,-0.57,1644586195.75,P03,D08,0,1,1
989,-0.37,1644586195.765625,P03,D08,0,1,1
990,-0.22,1644586195.78125,P03,D08,0,1,1
991,-0.12,1644586195.796875,P03,D08,0,1,1
992,0.0,1644586195.8125,P03,D08,0,1,1
993,0.19,1644586195.828125,P03,D08,0,1,1
994,0.45,1644586195.84375,P03,D08,0,1,1
995,0.71,1644586195.859375,P03,D08,0,1,1
996,0.89,1644586195.875,P03,D08,0,1,1
997,0.91,1644586195.890625,P03,D08,0,1,1
998,0.8,1644586195.90625,P03,D08,0,1,1
999,0.63,1644586195.921875,P03,D08,0,1,1
1000,0.5,1644586195.9375,P03,D08,0,1,1
1001,0.46,1644586195.953125,P03,D08,0,1,1
1002,0.52,1644586195.96875,P03,D08,0,1,1
1003,0.64,1644586195.984375,P03,D08,0,1,1
1004,0.8,1644586196.0,P03,D08,0,1,1
1005,0.94,1644586196.015625,P03,D08,0,1,1
1006,1.01,1644586196.03125,P03,D08,0,1,1
1007,0.98,1644586196.046875,P03,D08,0,1,1
1008,0.81,1644586196.0625,P03,D08,0,1,1
1009,0.52,1644586196.078125,P03,D08,0,1,1
1010,0.16,1644586196.09375,P03,D08,0,1,1
1011,-0.2,1644586196.109375,P03,D08,0,1,1
1012,-0.52,1644586196.125,P03,D08,0,1,1
1013,-0.78,1644586196.140625,P03,D08,0,1,1
1014,-0.99,1644586196.15625,P03,D08,0,1,1
1015,-1.17,1644586196.171875,P03,D08,0,1,1
1016,-1.29,1644586196.1875,P03,D08,0,1,1
1017,-1.29,1644586196.203125,P03,D08,0,1,1
1018,-1.16,1644586196.21875,P03,D08,0,1,1
1019,-0.92,1644586196.234375,P03,D08,0,1,1
1020,-0.64,1644586196.25,P03,D08,0,1,1
1021,-0.43,1644586196.265625,P03,D08,0,1,1
1022,-0.34,1644586196.28125,P03,D08,0,1,1
1023,-0.34,1644586196.296875,P03,D08,0,1,1
1024,-0.37,1644586196.3125,P03,D08,0,1,1
1025,-0.34,1644586196.328125,P03,D08,0,1,1
1026,-0.2,1644586196.34375,P03,D08,0,1,1
1027,0.01,1644586196.359375,P03,D08,0,1,1
1028,0.23,1644586196.375,P03,D08,0,1,1
1029,0.4,1644586196.390625,P03,D08,0,1,1
1030,0.51,1644586196.40625,P03,D08,0,1,1
1031,0.59,1644586196.421875,P03,D08,0,1,1
1032,0.65,1644586196.4375,P03,D08,0,1,1
1033,0.68,1644586196.453125,P03,D08,0,1,1
1034,0.68,1644586196.46875,P03,D08,0,1,1
1035,0.59,1644586196.484375,P03,D08,0,1,1
1036,0.43,1644586196.5,P03,D08,0,1,1
1037,0.23,1644586196.515625,P03,D08,0,1,1
1038,0.08,1644586196.53125,P03,D08,0,1,1
1039,0.03,1644586196.546875,P03,D08,0,1,1
1040,0.1,1644586196.5625,P03,D08,0,1,1
1041,0.26,1644586196.578125,P03,D08,0,1,1
1042,0.42,1644586196.59375,P03,D08,0,1,1
1043,0.49,1644586196.609375,P03,D08,0,1,1
1044,0.43,1644586196.625,P03,D08,0,1,1
1045,0.26,1644586196.640625,P03,D08,0,1,1
1046,0.06,1644586196.65625,P03,D08,0,1,1
1047,-0.1,1644586196.671875,P03,D08,0,1,1
1048,-0.19,1644586196.6875,P03,D08,0,1,1
1049,-0.23,1644586196.703125,P03,D08,0,1,1
1050,-0.28,1644586196.71875,P03,D08,0,1,1
1051,-0.38,1644586196.734375,P03,D08,0,1,1
1052,-0.49,1644586196.75,P03,D08,0,1,1
1053,-0.55,1644586196.765625,P03,D08,0,1,1
1054,-0.49,1644586196.78125,P03,D08,0,1,1
1055,-0.3,1644586196.796875,P03,D08,0,1,1
1056,-0.07,1644586196.8125,P03,D08,0,1,1
1057,0.11,1644586196.828125,P03,D08,0,1,1
1058,0.19,1644586196.84375,P03,D08,0,1,1
1059,0.19,1644586196.859375,P03,D08,0,1,1
1060,0.23,1644586196.875,P03,D08,0,1,1
1061,0.42,1644586196.890625,P03,D08,0,1,1
1062,0.75,1644586196.90625,P03,D08,0,1,1
1063,1.13,1644586196.921875,P03,D08,0,1,1
1064,1.37,1644586196.9375,P03,D08,0,1,1
1065,1.35,1644586196.953125,P03,D08,0,1,1
1066,1.06,1644586196.96875,P03,D08,0,1,1
1067,0.62,1644586196.984375,P03,D08,0,1,1
1068,0.17,1644586197.0,P03,D08,0,1,1
1069,-0.18,1644586197.015625,P03,D08,0,1,1
1070,-0.44,1644586197.03125,P03,D08,0,1,1
1071,-0.68,1644586197.046875,P03,D08,0,1,1
1072,-0.95,1644586197.0625,P03,D08,0,1,1
1073,-1.24,1644586197.078125,P03,D08,0,1,1
1074,-1.43,1644586197.09375,P03,D08,0,1,1
1075,-1.4,1644586197.109375,P03,D08,0,1,1
1076,-1.1,1644586197.125,P03,D08,0,1,1
1077,-0.58,1644586197.140625,P03,D08,0,1,1
1078,0.01,1644586197.15625,P03,D08,0,1,1
1079,0.52,1644586197.171875,P03,D08,0,1,1
1080,0.84,1644586197.1875,P03,D08,0,1,1
1081,0.92,1644586197.203125,P03,D08,0,1,1
1082,0.8,1644586197.21875,P03,D08,0,1,1
1083,0.52,1644586197.234375,P03,D08,0,1,1
1084,0.16,1644586197.25,P03,D08,0,1,1
1085,-0.2,1644586197.265625,P03,D08,0,1,1
1086,-0.49,1644586197.28125,P03,D08,0,1,1
1087,-0.65,1644586197.296875,P03,D08,0,1,1
1088,-0.65,1644586197.3125,P03,D08,0,1,1
1089,-0.52,1644586197.328125,P03,D08,0,1,1
1090,-0.3,1644586197.34375,P03,D08,0,1,1
1091,-0.08,1644586197.359375,P03,D08,0,1,1
1092,0.1,1644586197.375,P03,D08,0,1,1
1093,0.25,1644586197.390625,P03,D08,0,1,1
1094,0.37,1644586197.40625,P03,D08,0,1,1
1095,0.46,1644586197.421875,P03,D08,0,1,1
1096,0.51,1644586197.4375,P03,D08,0,1,1
1097,0.47,1644586197.453125,P03,D08,0,1,1
1098,0.29,1644586197.46875,P03,D08,0,1,1
1099,-0.03,1644586197.484375,P03,D08,0,1,1
1100,-0.4,1644586197.5,P03,D08,0,1,1
1101,-0.71,1644586197.515625,P03,D08,0,1,1
1102,-0.81,1644586197.53125,P03,D08,0,1,1
1103,-0.68,1644586197.546875,P03,D08,0,1,1
1104,-0.36,1644586197.5625,P03,D08,0,1,1
1105,0.01,1644586197.578125,P03,D08,0,1,1
1106,0.28,1644586197.59375,P03,D08,0,1,1
1107,0.37,1644586197.609375,P03,D08,0,1,1
1108,0.29,1644586197.625,P03,D08,0,1,1
1109,0.11,1644586197.640625,P03,D08,0,1,1
1110,-0.08,1644586197.65625,P03,D08,0,1,1
1111,-0.24,1644586197.671875,P03,D08,0,1,1
1112,-0.36,1644586197.6875,P03,D08,0,1,1
1113,-0.43,1644586197.703125,P03,D08,0,1,1
1114,-0.45,1644586197.71875,P03,D08,0,1,1
1115,-0.36,1644586197.734375,P03,D08,0,1,1
1116,-0.17,1644586197.75,P03,D08,0,1,1
1117,0.08,1644586197.765625,P03,D08,0,1,1
1118,0.26,1644586197.78125,P03,D08,0,1,1
1119,0.23,1644586197.796875,P03,D08,0,1,1
1120,-0.04,1644586197.8125,P03,D08,0,1,1
1121,-0.44,1644586197.828125,P03,D08,0,1,1
1122,-0.77,1644586197.84375,P03,D08,0,1,1
1123,-0.84,1644586197.859375,P03,D08,0,1,1
1124,-0.59,1644586197.875,P03,D08,0,1,1
1125,-0.16,1644586197.890625,P03,D08,0,1,1
1126,0.22,1644586197.90625,P03,D08,0,1,1
1127,0.35,1644586197.921875,P03,D08,0,1,1
1128,0.13,1644586197.9375,P03,D08,0,1,1
1129,-0.3,1644586197.953125,P03,D08,0,1,1
1130,-0.74,1644586197.96875,P03,D08,0,1,1
1131,-0.95,1644586197.984375,P03,D08,0,1,1
1132,-0.83,1644586198.0,P03,D08,0,1,1
1133,-0.41,1644586198.015625,P03,D08,0,1,1
1134,0.16,1644586198.03125,P03,D08,0,1,1
1135,0.71,1644586198.046875,P03,D08,0,1,1
1136,1.1,1644586198.0625,P03,D08,0,1,1
1137,1.28,1644586198.078125,P03,D08,0,1,1
1138,1.27,1644586198.09375,P03,D08,0,1,1
1139,1.13,1644586198.109375,P03,D08,0,1,1
1140,0.92,1644586198.125,P03,D08,0,1,1
1141,0.7,1644586198.140625,P03,D08,0,1,1
1142,0.48,1644586198.15625,P03,D08,0,1,1
1143,0.28,1644586198.171875,P03,D08,0,1,1
1144,0.1,1644586198.1875,P03,D08,0,1,1
1145,-0.07,1644586198.203125,P03,D08,0,1,1
1146,-0.2,1644586198.21875,P03,D08,0,1,1
1147,-0.26,1644586198.234375,P03,D08,0,1,1
1148,-0.26,1644586198.25,P03,D08,0,1,1
1149,-0.23,1644586198.265625,P03,D08,0,1,1
1150,-0.22,1644586198.28125,P03,D08,0,1,1
1151,-0.28,1644586198.296875,P03,D08,0,1,1
1152,-0.45,1644586198.3125,P03,D08,0,1,1
1153,-0.67,1644586198.328125,P03,D08,0,1,1
1154,-0.87,1644586198.34375,P03,D08,0,1,1
1155,-0.97,1644586198.359375,P03,D08,0,1,1
1156,-0.9,1644586198.375,P03,D08,0,1,1
1157,-0.66,1644586198.390625,P03,D08,0,1,1
1158,-0.34,1644586198.40625,P03,D08,0,1,1
1159,-0.02,1644586198.421875,P03,D08,0,1,1
1160,0.21,1644586198.4375,P03,D08,0,1,1
1161,0.33,1644586198.453125,P03,D08,0,1,1
1162,0.36,1644586198.46875,P03,D08,0,1,1
1163,0.39,1644586198.484375,P03,D08,0,1,1
1164,0.47,1644586198.5,P03,D08,0,1,1
1165,0.63,1644586198.515625,P03,D08,0,1,1
1166,0.8,1644586198.53125,P03,D08,0,1,1
1167,0.94,1644586198.546875,P03,D08,0,1,1
1168,0.98,1644586198.5625,P03,D08,0,1,1
1169,0.94,1644586198.578125,P03,D08,0,1,1
1170,0.88,1644586198.59375,P03,D08,0,1,1
1171,0.86,1644586198.609375,P03,D08,0,1,1
1172,0.91,1644586198.625,P03,D08,0,1,1
1173,1.02,1644586198.640625,P03,D08,0,1,1
1174,1.11,1644586198.65625,P03,D08,0,1,1
1175,1.09,1644586198.671875,P03,D08,0,1,1
1176,0.93,1644586198.6875,P03,D08,0,1,1
1177,0.65,1644586198.703125,P03,D08,0,1,1
1178,0.33,1644586198.71875,P03,D08,0,1,1
1179,0.04,1644586198.734375,P03,D08,0,1,1
1180,-0.17,1644586198.75,P03,D08,0,1,1
1181,-0.29,1644586198.765625,P03,D08,0,1,1
1182,-0.32,1644586198.78125,P03,D08,0,1,1
1183,-0.29,1644586198.796875,P03,D08,0,1,1
1184,-0.22,1644586198.8125,P03,D08,0,1,1
1185,-0.17,1644586198.828125,P03,D08,0,1,1
1186,-0.17,1644586198.84375,P03,D08,0,1,1
1187,-0.26,1644586198.859375,P03,D08,0,1,1
1188,-0.46,1644586198.875,P03,D08,0,1,1
1189,-0.73,1644586198.890625,P03,D08,0,1,1
1190,-1.01,1644586198.90625,P03,D08,0,1,1
1191,-1.23,1644586198.921875,P03,D08,0,1,1
1192,-1.32,1644586198.9375,P03,D08,0,1,1
1193,-1.28,1644586198.953125,P03,D08,0,1,1
1194,-1.13,1644586198.96875,P03,D08,0,1,1
1195,-0.94,1644586198.984375,P03,D08,0,1,1
1196,-0.78,1644586199.0,P03,D08,0,1,1
1197,-0.69,1644586199.015625,P03,D08,0,1,1
1198,-0.68,1644586199.03125,P03,D08,0,1,1
1199,-0.7,1644586199.046875,P03,D08,0,1,1
1200,-0.72,1644586199.0625,P03,D08,0,1,1
1201,-0.72,1644586199.078125,P03,D08,0,1,1
1202,-0.7,1644586199.09375,P03,D08,0,1,1
1203,-0.69,1644586199.109375,P03,D08,0,1,1
1204,-0.72,1644586199.125,P03,D08,0,1,1
1205,-0.81,1644586199.140625,P03,D08,0,1,1
1206,-0.93,1644586199.15625,P03,D08,0,1,1
1207,-1.08,1644586199.171875,P03,D08,0,1,1
1208,-1.2,1644586199.1875,P03,D08,0,1,1
1209,-1.23,1644586199.203125,P03,D08,0,1,1
1210,-1.12,1644586199.21875,P03,D08,0,1,1
1211,-0.83,1644586199.234375,P03,D08,0,1,1
1212,-0.38,1644586199.25,P03,D08,0,1,1
1213,0.16,1644586199.265625,P03,D08,0,1,1
1214,0.67,1644586199.28125,P03,D08,0,1,1
1215,1.02,1644586199.296875,P03,D08,0,1,1
1216,1.18,1644586199.3125,P03,D08,0,1,1
1217,1.14,1644586199.328125,P03,D08,0,1,1
1218,0.97,1644586199.34375,P03,D08,0,1,1
1219,0.75,1644586199.359375,P03,D08,0,1,1
1220,0.53,1644586199.375,P03,D08,0,1,1
1221,0.36,1644586199.390625,P03,D08,0,1,1
1222,0.27,1644586199.40625,P03,D08,0,1,1
1223,0.26,1644586199.421875,P03,D08,0,1,1
1224,0.32,1644586199.4375,P03,D08,0,1,1
1225,0.41,1644586199.453125,P03,D08,0,1,1
1226,0.49,1644586199.46875,P03,D08,0,1,1
1227,0.54,1644586199.484375,P03,D08,0,1,1
1228,0.56,1644586199.5,P03,D08,0,1,1
1229,0.58,1644586199.515625,P03,D08,0,1,1
1230,0.61,1644586199.53125,P03,D08,0,1,1
1231,0.67,1644586199.546875,P03,D08,0,1,1
1232,0.71,1644586199.5625,P03,D08,0,1,1
1233,0.67,1644586199.578125,P03,D08,0,1,1
1234,0.53,1644586199.59375,P03,D08,0,1,1
1235,0.27,1644586199.609375,P03,D08,0,1,1
1236,-0.06,1644586199.625,P03,D08,0,1,1
1237,-0.36,1644586199.640625,P03,D08,0,1,1
1238,-0.55,1644586199.65625,P03,D08,0,1,1
1239,-0.56,1644586199.671875,P03,D08,0,1,1
1240,-0.39,1644586199.6875,P03,D08,0,1,1
1241,-0.09,1644586199.703125,P03,D08,0,1,1
1242,0.29,1644586199.71875,P03,D08,0,1,1
1243,0.64,1644586199.734375,P03,D08,0,1,1
1244,0.88,1644586199.75,P03,D08,0,1,1
1245,0.96,1644586199.765625,P03,D08,0,1,1
1246,0.84,1644586199.78125,P03,D08,0,1,1
1247,0.58,1644586199.796875,P03,D08,0,1,1
1248,0.25,1644586199.8125,P03,D08,0,1,1
1249,-0.0,1644586199.828125,P03,D08,0,1,1
1250,-0.1,1644586199.84375,P03,D08,0,1,1
1251,-0.02,1644586199.859375,P03,D08,0,1,1
1252,0.15,1644586199.875,P03,D08,0,1,1
1253,0.29,1644586199.890625,P03,D08,0,1,1
1254,0.32,1644586199.90625,P03,D08,0,1,1
1255,0.2,1644586199.921875,P03,D08,0,1,1
1256,0.06,1644586199.9375,P03,D08,0,1,1
1257,0.0,1644586199.953125,P03,D08,0,1,1
1258,0.07,1644586199.96875,P03,D08,0,1,1
1259,0.23,1644586199.984375,P03,D08,0,1,1
1260,0.34,1644586200.0,P03,D08,0,1,1
1261,0.32,1644586200.015625,P03,D08,0,1,1
1262,0.17,1644586200.03125,P03,D08,0,1,1
1263,-0.01,1644586200.046875,P03,D08,0,1,1
1264,-0.1,1644586200.0625,P03,D08,0,1,1
1265,-0.07,1644586200.078125,P03,D08,0,1,1
1266,0.04,1644586200.09375,P03,D08,0,1,1
1267,0.11,1644586200.109375,P03,D08,0,1,1
1268,0.07,1644586200.125,P03,D08,0,1,1
1269,-0.06,1644586200.140625,P03,D08,0,1,1
1270,-0.16,1644586200.15625,P03,D08,0,1,1
1271,-0.12,1644586200.171875,P03,D08,0,1,1
1272,0.09,1644586200.1875,P03,D08,0,1,1
1273,0.4,1644586200.203125,P03,D08,0,1,1
1274,0.66,1644586200.21875,P03,D08,0,1,1
1275,0.71,1644586200.234375,P03,D08,0,1,1
1276,0.54,1644586200.25,P03,D08,0,1,1
1277,0.2,1644586200.265625,P03,D08,0,1,1
1278,-0.15,1644586200.28125,P03,D08,0,1,1
1279,-0.38,1644586200.296875,P03,D08,0,1,1
1280,-0.43,1644586200.3125,P03,D08,0,1,1
1281,-0.35,1644586200.328125,P03,D08,0,1,1
1282,-0.25,1644586200.34375,P03,D08,0,1,1
1283,-0.25,1644586200.359375,P03,D08,0,1,1
1284,-0.36,1644586200.375,P03,D08,0,1,1
1285,-0.52,1644586200.390625,P03,D08,0,1,1
1286,-0.63,1644586200.40625,P03,D08,0,1,1
1287,-0.61,1644586200.421875,P03,D08,0,1,1
1288,-0.43,1644586200.4375,P03,D08,0,1,1
1289,-0.15,1644586200.453125,P03,D08,0,1,1
1290,0.14,1644586200.46875,P03,D08,0,1,1
1291,0.38,1644586200.484375,P03,D08,0,1,1
1292,0.49,1644586200.5,P03,D08,0,1,1
1293,0.46,1644586200.515625,P03,D08,0,1,1
1294,0.32,1644586200.53125,P03,D08,0,1,1
1295,0.11,1644586200.546875,P03,D08,0,1,1
1296,-0.09,1644586200.5625,P03,D08,0,1,1
1297,-0.24,1644586200.578125,P03,D08,0,1,1
1298,-0.31,1644586200.59375,P03,D08,0,1,1
1299,-0.33,1644586200.609375,P03,D08,0,1,1
1300,-0.35,1644586200.625,P03,D08,0,1,1
1301,-0.4,1644586200.640625,P03,D08,0,1,1
1302,-0.46,1644586200.65625,P03,D08,0,1,1
1303,-0.46,1644586200.671875,P03,D08,0,1,1
1304,-0.37,1644586200.6875,P03,D08,0,1,1
1305,-0.2,1644586200.703125,P03,D08,0,1,1
1306,-0.01,1644586200.71875,P03,D08,0,1,1
1307,0.1,1644586200.734375,P03,D08,0,1,1
1308,0.08,1644586200.75,P03,D08,0,1,1
1309,-0.04,1644586200.765625,P03,D08,0,1,1
1310,-0.2,1644586200.78125,P03,D08,0,1,1
1311,-0.33,1644586200.796875,P03,D08,0,1,1
1312,-0.45,1644586200.8125,P03,D08,0,1,1
1313,-0.56,1644586200.828125,P03,D08,0,1,1
1314,-0.7,1644586200.84375,P03,D08,0,1,1
1315,-0.83,1644586200.859375,P03,D08,0,1,1
1316,-0.88,1644586200.875,P03,D08,0,1,1
1317,-0.78,1644586200.890625,P03,D08,0,1,1
1318,-0.51,1644586200.90625,P03,D08,0,1,1
1319,-0.15,1644586200.921875,P03,D08,0,1,1
1320,0.22,1644586200.9375,P03,D08,0,1,1
1321,0.48,1644586200.953125,P03,D08,0,1,1
1322,0.6,1644586200.96875,P03,D08,0,1,1
1323,0.59,1644586200.984375,P03,D08,0,1,1
1324,0.5,1644586201.0,P03,D08,0,1,1
1325,0.38,1644586201.015625,P03,D08,0,1,1
1326,0.26,1644586201.03125,P03,D08,0,1,1
1327,0.16,1644586201.046875,P03,D08,0,1,1
1328,0.08,1644586201.0625,P03,D08,0,1,1
1329,0.01,1644586201.078125,P03,D08,0,1,1
1330,-0.04,1644586201.09375,P03,D08,0,1,1
1331,-0.04,1644586201.109375,P03,D08,0,1,1
1332,0.05,1644586201.125,P03,D08,0,1,1
1333,0.21,1644586201.140625,P03,D08,0,1,1
1334,0.42,1644586201.15625,P03,D08,0,1,1
1335,0.59,1644586201.171875,P03,D08,0,1,1
1336,0.63,1644586201.1875,P03,D08,0,1,1
1337,0.53,1644586201.203125,P03,D08,0,1,1
1338,0.34,1644586201.21875,P03,D08,0,1,1
1339,0.15,1644586201.234375,P03,D08,0,1,1
1340,0.07,1644586201.25,P03,D08,0,1,1
1341,0.13,1644586201.265625,P03,D08,0,1,1
1342,0.3,1644586201.28125,P03,D08,0,1,1
1343,0.5,1644586201.296875,P03,D08,0,1,1
1344,0.65,1644586201.3125,P03,D08,0,1,1
1345,0.71,1644586201.328125,P03,D08,0,1,1
1346,0.65,1644586201.34375,P03,D08,0,1,1
1347,0.48,1644586201.359375,P03,D08,0,1,1
1348,0.21,1644586201.375,P03,D08,0,1,1
1349,-0.14,1644586201.390625,P03,D08,0,1,1
1350,-0.53,1644586201.40625,P03,D08,0,1,1
1351,-0.89,1644586201.421875,P03,D08,0,1,1
1352,-1.14,1644586201.4375,P03,D08,0,1,1
1353,-1.23,1644586201.453125,P03,D08,0,1,1
1354,-1.17,1644586201.46875,P03,D08,0,1,1
1355,-0.97,1644586201.484375,P03,D08,0,1,1
1356,-0.69,1644586201.5,P03,D08,0,1,1
1357,-0.4,1644586201.515625,P03,D08,0,1,1
1358,-0.16,1644586201.53125,P03,D08,0,1,1
1359,-0.01,1644586201.546875,P03,D08,0,1,1
1360,0.05,1644586201.5625,P03,D08,0,1,1
1361,0.03,1644586201.578125,P03,D08,0,1,1
1362,-0.0,1644586201.59375,P03,D08,0,1,1
1363,-0.03,1644586201.609375,P03,D08,0,1,1
1364,-0.01,1644586201.625,P03,D08,0,1,1
1365,0.03,1644586201.640625,P03,D08,0,1,1
1366,0.06,1644586201.65625,P03,D08,0,1,1
1367,0.09,1644586201.671875,P03,D08,0,1,1
1368,0.13,1644586201.6875,P03,D08,0,1,1
1369,0.2,1644586201.703125,P03,D08,0,1,1
1370,0.33,1644586201.71875,P03,D08,0,1,1
1371,0.49,1644586201.734375,P03,D08,0,1,1
1372,0.64,1644586201.75,P03,D08,0,1,1
1373,0.73,1644586201.765625,P03,D08,0,1,1
1374,0.71,1644586201.78125,P03,D08,0,1,1
1375,0.59,1644586201.796875,P03,D08,0,1,1
1376,0.4,1644586201.8125,P03,D08,0,1,1
1377,0.19,1644586201.828125,P03,D08,0,1,1
1378,0.01,1644586201.84375,P03,D08,0,1,1
1379,-0.1,1644586201.859375,P03,D08,0,1,1
1380,-0.13,1644586201.875,P03,D08,0,1,1
1381,-0.06,1644586201.890625,P03,D08,0,1,1
1382,0.06,1644586201.90625,P03,D08,0,1,1
1383,0.2,1644586201.921875,P03,D08,0,1,1
1384,0.25,1644586201.9375,P03,D08,0,1,1
1385,0.16,1644586201.953125,P03,D08,0,1,1
1386,-0.13,1644586201.96875,P03,D08,0,1,1
1387,-0.55,1644586201.984375,P03,D08,0,1,1
1388,-1.0,1644586202.0,P03,D08,0,1,1
1389,-1.29,1644586202.015625,P03,D08,0,1,1
1390,-1.31,1644586202.03125,P03,D08,0,1,1
1391,-1.01,1644586202.046875,P03,D08,0,1,1
1392,-0.45,1644586202.0625,P03,D08,0,1,1
1393,0.19,1644586202.078125,P03,D08,0,1,1
1394,0.72,1644586202.09375,P03,D08,0,1,1
1395,1.02,1644586202.109375,P03,D08,0,1,1
1396,1.05,1644586202.125,P03,D08,0,1,1
1397,0.88,1644586202.140625,P03,D08,0,1,1
1398,0.6,1644586202.15625,P03,D08,0,1,1
1399,0.29,1644586202.171875,P03,D08,0,1,1
1400,0.02,1644586202.1875,P03,D08,0,1,1
1401,-0.18,1644586202.203125,P03,D08,0,1,1
1402,-0.23,1644586202.21875,P03,D08,0,1,1
1403,-0.09,1644586202.234375,P03,D08,0,1,1
1404,0.24,1644586202.25,P03,D08,0,1,1
1405,0.65,1644586202.265625,P03,D08,0,1,1
1406,1.01,1644586202.28125,P03,D08,0,1,1
1407,1.18,1644586202.296875,P03,D08,0,1,1
1408,1.08,1644586202.3125,P03,D08,0,1,1
1409,0.74,1644586202.328125,P03,D08,0,1,1
1410,0.3,1644586202.34375,P03,D08,0,1,1
1411,-0.08,1644586202.359375,P03,D08,0,1,1
1412,-0.24,1644586202.375,P03,D08,0,1,1
1413,-0.13,1644586202.390625,P03,D08,0,1,1
1414,0.2,1644586202.40625,P03,D08,0,1,1
1415,0.57,1644586202.421875,P03,D08,0,1,1
1416,0.82,1644586202.4375,P03,D08,0,1,1
1417,0.79,1644586202.453125,P03,D08,0,1,1
1418,0.45,1644586202.46875,P03,D08,0,1,1
1419,-0.13,1644586202.484375,P03,D08,0,1,1
1420,-0.76,1644586202.5,P03,D08,0,1,1
1421,-1.24,1644586202.515625,P03,D08,0,1,1
1422,-1.44,1644586202.53125,P03,D08,0,1,1
1423,-1.39,1644586202.546875,P03,D08,0,1,1
1424,-1.17,1644586202.5625,P03,D08,0,1,1
1425,-0.95,1644586202.578125,P03,D08,0,1,1
1426,-0.79,1644586202.59375,P03,D08,0,1,1
1427,-0.72,1644586202.609375,P03,D08,0,1,1
1428,-0.7,1644586202.625,P03,D08,0,1,1
1429,-0.69,1644586202.640625,P03,D08,0,1,1
1430,-0.72,1644586202.65625,P03,D08,0,1,1
1431,-0.82,1644586202.671875,P03,D08,0,1,1
1432,-0.99,1644586202.6875,P03,D08,0,1,1
1433,-1.16,1644586202.703125,P03,D08,0,1,1
1434,-1.24,1644586202.71875,P03,D08,0,1,1
1435,-1.12,1644586202.734375,P03,D08,0,1,1
1436,-0.81,1644586202.75,P03,D08,0,1,1
1437,-0.41,1644586202.765625,P03,D08,0,1,1
1438,-0.06,1644586202.78125,P03,D08,0,1,1
1439,0.14,1644586202.796875,P03,D08,0,1,1
1440,0.17,1644586202.8125,P03,D08,0,1,1
1441,0.12,1644586202.828125,P03,D08,0,1,1
1442,0.11,1644586202.84375,P03,D08,0,1,1
1443,0.26,1644586202.859375,P03,D08,0,1,1
1444,0.57,1644586202.875,P03,D08,0,1,1
1445,0.99,1644586202.890625,P03,D08,0,1,1
1446,1.36,1644586202.90625,P03,D08,0,1,1
1447,1.58,1644586202.921875,P03,D08,0,1,1
1448,1.58,1644586202.9375,P03,D08,0,1,1
1449,1.41,1644586202.953125,P03,D08,0,1,1
1450,1.17,1644586202.96875,P03,D08,0,1,1
1451,0.98,1644586202.984375,P03,D08,0,1,1
1452,0.93,1644586203.0,P03,D08,0,1,1
1453,0.97,1644586203.015625,P03,D08,0,1,1
1454,1.0,1644586203.03125,P03,D08,0,1,1
1455,0.89,1644586203.046875,P03,D08,0,1,1
1456,0.54,1644586203.0625,P03,D08,0,1,1
1457,-0.04,1644586203.078125,P03,D08,0,1,1
1458,-0.7,1644586203.09375,P03,D08,0,1,1
1459,-1.25,1644586203.109375,P03,D08,0,1,1
1460,-1.53,1644586203.125,P03,D08,0,1,1
1461,-1.47,1644586203.140625,P03,D08,0,1,1
1462,-1.13,1644586203.15625,P03,D08,0,1,1
1463,-0.66,1644586203.171875,P03,D08,0,1,1
1464,-0.23,1644586203.1875,P03,D08,0,1,1
1465,0.07,1644586203.203125,P03,D08,0,1,1
1466,0.23,1644586203.21875,P03,D08,0,1,1
1467,0.31,1644586203.234375,P03,D08,0,1,1
1468,0.41,1644586203.25,P03,D08,0,1,1
1469,0.56,1644586203.265625,P03,D08,0,1,1
1470,0.73,1644586203.28125,P03,D08,0,1,1
1471,0.84,1644586203.296875,P03,D08,0,1,1
1472,0.79,1644586203.3125,P03,D08,0,1,1
1473,0.52,1644586203.328125,P03,D08,0,1,1
1474,0.1,1644586203.34375,P03,D08,0,1,1
1475,-0.32,1644586203.359375,P03,D08,0,1,1
1476,-0.59,1644586203.375,P03,D08,0,1,1
1477,-0.59,1644586203.390625,P03,D08,0,1,1
1478,-0.32,1644586203.40625,P03,D08,0,1,1
1479,0.08,1644586203.421875,P03,D08,0,1,1
1480,0.48,1644586203.4375,P03,D08,0,1,1
1481,0.74,1644586203.453125,P03,D08,0,1,1
1482,0.8,1644586203.46875,P03,D08,0,1,1
1483,0.69,1644586203.484375,P03,D08,0,1,1
1484,0.47,1644586203.5,P03,D08,0,1,1
1485,0.17,1644586203.515625,P03,D08,0,1,1
1486,-0.15,1644586203.53125,P03,D08,0,1,1
1487,-0.45,1644586203.546875,P03,D08,0,1,1
1488,-0.66,1644586203.5625,P03,D08,0,1,1
1489,-0.73,1644586203.578125,P03,D08,0,1,1
1490,-0.64,1644586203.59375,P03,D08,0,1,1
1491,-0.43,1644586203.609375,P03,D08,0,1,1
1492,-0.19,1644586203.625,P03,D08,0,1,1
1493,-0.03,1644586203.640625,P03,D08,0,1,1
1494,-0.0,1644586203.65625,P03,D08,0,1,1
1495,-0.12,1644586203.671875,P03,D08,0,1,1
1496,-0.34,1644586203.6875,P03,D08,0,1,1
1497,-0.59,1644586203.703125,P03,D08,0,1,1
1498,-0.81,1644586203.71875,P03,D08,0,1,1
1499,-0.93,1644586203.734375,P03,D08,0,1,1
1500,-0.93,1644586203.75,P03,D08,0,1,1
1501,-0.78,1644586203.765625,P03,D08,0,1,1
1502,-0.51,1644586203.78125,P03,D08,0,1,1
1503,-0.19,1644586203.796875,P03,D08,0,1,1
1504,0.11,1644586203.8125,P03,D08,0,1,1
1505,0.3,1644586203.828125,P03,D08,0,1,1
1506,0.35,1644586203.84375,P03,D08,0,1,1
1507,0.27,1644586203.859375,P03,D08,0,1,1
1508,0.11,1644586203.875,P03,D08,0,1,1
1509,-0.08,1644586203.890625,P03,D08,0,1,1
1510,-0.28,1644586203.90625,P03,D08,0,1,1
1511,-0.45,1644586203.921875,P03,D08,0,1,1
1512,-0.57,1644586203.9375,P03,D08,0,1,1
1513,-0.58,1644586203.953125,P03,D08,0,1,1
1514,-0.47,1644586203.96875,P03,D08,0,1,1
1515,-0.27,1644586203.984375,P03,D08,0,1,1
1516,-0.06,1644586204.0,P03,D08,0,1,1
1517,0.07,1644586204.015625,P03,D08,0,1,1
1518,0.08,1644586204.03125,P03,D08,0,1,1
1519,-0.02,1644586204.046875,P03,D08,0,1,1
1520,-0.12,1644586204.0625,P03,D08,0,1,1
1521,-0.1,1644586204.078125,P03,D08,0,1,1
1522,0.1,1644586204.09375,P03,D08,0,1,1
1523,0.44,1644586204.109375,P03,D08,0,1,1
1524,0.83,1644586204.125,P03,D08,0,1,1
1525,1.16,1644586204.140625,P03,D08,0,1,1
1526,1.36,1644586204.15625,P03,D08,0,1,1
1527,1.39,1644586204.171875,P03,D08,0,1,1
1528,1.25,1644586204.1875,P03,D08,0,1,1
1529,0.97,1644586204.203125,P03,D08,0,1,1
1530,0.56,1644586204.21875,P03,D08,0,1,1
1531,0.07,1644586204.234375,P03,D08,0,1,1
1532,-0.45,1644586204.25,P03,D08,0,1,1
1533,-0.89,1644586204.265625,P03,D08,0,1,1
1534,-1.17,1644586204.28125,P03,D08,0,1,1
1535,-1.21,1644586204.296875,P03,D08,0,1,1
1536,-1.05,1644586204.3125,P03,D08,0,1,1
1537,-0.77,1644586204.328125,P03,D08,0,1,1
1538,-0.51,1644586204.34375,P03,D08,0,1,1
1539,-0.39,1644586204.359375,P03,D08,0,1,1
1540,-0.42,1644586204.375,P03,D08,0,1,1
1541,-0.54,1644586204.390625,P03,D08,0,1,1
1542,-0.61,1644586204.40625,P03,D08,0,1,1
1543,-0.54,1644586204.421875,P03,D08,0,1,1
1544,-0.31,1644586204.4375,P03,D08,0,1,1
1545,-0.01,1644586204.453125,P03,D08,0,1,1
1546,0.24,1644586204.46875,P03,D08,0,1,1
1547,0.38,1644586204.484375,P03,D08,0,1,1
1548,0.4,1644586204.5,P03,D08,0,1,1
1549,0.39,1644586204.515625,P03,D08,0,1,1
1550,0.45,1644586204.53125,P03,D08,0,1,1
1551,0.6,1644586204.546875,P03,D08,0,1,1
1552,0.79,1644586204.5625,P03,D08,0,1,1
1553,0.91,1644586204.578125,P03,D08,0,1,1
1554,0.89,1644586204.59375,P03,D08,0,1,1
1555,0.73,1644586204.609375,P03,D08,0,1,1
1556,0.52,1644586204.625,P03,D08,0,1,1
1557,0.38,1644586204.640625,P03,D08,0,1,1
1558,0.42,1644586204.65625,P03,D08,0,1,1
1559,0.63,1644586204.671875,P03,D08,0,1,1
1560,0.93,1644586204.6875,P03,D08,0,1,1
1561,1.17,1644586204.703125,P03,D08,0,1,1
1562,1.25,1644586204.71875,P03,D08,0,1,1
1563,1.12,1644586204.734375,P03,D08,0,1,1
1564,0.81,1644586204.75,P03,D08,0,1,1
1565,0.43,1644586204.765625,P03,D08,0,1,1
1566,0.07,1644586204.78125,P03,D08,0,1,1
1567,-0.22,1644586204.796875,P03,D08,0,1,1
1568,-0.45,1644586204.8125,P03,D08,0,1,1
1569,-0.67,1644586204.828125,P03,D08,0,1,1
1570,-0.87,1644586204.84375,P03,D08,0,1,1
1571,-1.01,1644586204.859375,P03,D08,0,1,1
1572,-1.03,1644586204.875,P03,D08,0,1,1
1573,-0.9,1644586204.890625,P03,D08,0,1,1
1574,-0.65,1644586204.90625,P03,D08,0,1,1
1575,-0.41,1644586204.921875,P03,D08,0,1,1
1576,-0.29,1644586204.9375,P03,D08,0,1,1
1577,-0.32,1644586204.953125,P03,D08,0,1,1
1578,-0.45,1644586204.96875,P03,D08,0,1,1
1579,-0.56,1644586204.984375,P03,D08,0,1,1
1580,-0.53,1644586205.0,P03,D08,0,1,1
1581,-0.37,1644586205.015625,P03,D08,0,1,1
1582,-0.14,1644586205.03125,P03,D08,0,1,1
1583,0.04,1644586205.046875,P03,D08,0,1,1
1584,0.12,1644586205.0625,P03,D08,0,1,1
1585,0.09,1644586205.078125,P03,D08,0,1,1
1586,0.05,1644586205.09375,P03,D08,0,1,1
1587,0.08,1644586205.109375,P03,D08,0,1,1
1588,0.19,1644586205.125,P03,D08,0,1,1
1589,0.29,1644586205.140625,P03,D08,0,1,1
1590,0.31,1644586205.15625,P03,D08,0,1,1
1591,0.18,1644586205.171875,P03,D08,0,1,1
1592,-0.07,1644586205.1875,P03,D08,0,1,1
1593,-0.33,1644586205.203125,P03,D08,0,1,1
1594,-0.48,1644586205.21875,P03,D08,0,1,1
1595,-0.47,1644586205.234375,P03,D08,0,1,1
1596,-0.35,1644586205.25,P03,D08,0,1,1
1597,-0.2,1644586205.265625,P03,D08,0,1,1
1598,-0.11,1644586205.28125,P03,D08,0,1,1
1599,-0.11,1644586205.296875,P03,D08,0,1,1
1600,-0.15,1644586205.3125,P03,D08,0,1,1
1601,-0.19,1644586205.328125,P03,D08,0,1,1
1602,-0.19,1644586205.34375,P03,D08,0,1,1
1603,-0.16,1644586205.359375,P03,D08,0,1,1
1604,-0.13,1644586205.375,P03,D08,0,1,1
1605,-0.12,1644586205.390625,P03,D08,0,1,1
1606,-0.12,1644586205.40625,P03,D08,0,1,1
1607,-0.11,1644586205.421875,P03,D08,0,1,1
1608,-0.08,1644586205.4375,P03,D08,0,1,1
1609,-0.02,1644586205.453125,P03,D08,0,1,1
1610,0.07,1644586205.46875,P03,D08,0,1,1
1611,0.17,1644586205.484375,P03,D08,0,1,1
1612,0.27,1644586205.5,P03,D08,0,1,1
1613,0.37,1644586205.515625,P03,D08,0,1,1
1614,0.46,1644586205.53125,P03,D08,0,1,1
1615,0.48,1644586205.546875,P03,D08,0,1,1
1616,0.42,1644586205.5625,P03,D08,0,1,1
1617,0.24,1644586205.578125,P03,D08,0,1,1
1618,-0.0,1644586205.59375,P03,D08,0,1,1
1619,-0.24,1644586205.609375,P03,D08,0,1,1
1620,-0.37,1644586205.625,P03,D08,0,1,1
1621,-0.34,1644586205.640625,P03,D08,0,1,1
1622,-0.14,1644586205.65625,P03,D08,0,1,1
1623,0.19,1644586205.671875,P03,D08,0,1,1
1624,0.52,1644586205.6875,P03,D08,0,1,1
1625,0.77,1644586205.703125,P03,D08,0,1,1
1626,0.84,1644586205.71875,P03,D08,0,1,1
1627,0.71,1644586205.734375,P03,D08,0,1,1
1628,0.43,1644586205.75,P03,D08,0,1,1
1629,0.11,1644586205.765625,P03,D08,0,1,1
1630,-0.12,1644586205.78125,P03,D08,0,1,1
1631,-0.17,1644586205.796875,P03,D08,0,1,1
1632,-0.02,1644586205.8125,P03,D08,0,1,1
1633,0.21,1644586205.828125,P03,D08,0,1,1
1634,0.38,1644586205.84375,P03,D08,0,1,1
1635,0.37,1644586205.859375,P03,D08,0,1,1
1636,0.16,1644586205.875,P03,D08,0,1,1
1637,-0.14,1644586205.890625,P03,D08,0,1,1
1638,-0.35,1644586205.90625,P03,D08,0,1,1
1639,-0.36,1644586205.921875,P03,D08,0,1,1
1640,-0.15,1644586205.9375,P03,D08,0,1,1
1641,0.18,1644586205.953125,P03,D08,0,1,1
1642,0.49,1644586205.96875,P03,D08,0,1,1
1643,0.66,1644586205.984375,P03,D08,0,1,1
1644,0.67,1644586206.0,P03,D08,0,1,1
1645,0.56,1644586206.015625,P03,D08,0,1,1
1646,0.39,1644586206.03125,P03,D08,0,1,1
1647,0.19,1644586206.046875,P03,D08,0,1,1
1648,-0.03,1644586206.0625,P03,D08,0,1,1
1649,-0.31,1644586206.078125,P03,D08,0,1,1
1650,-0.62,1644586206.09375,P03,D08,0,1,1
1651,-0.9,1644586206.109375,P03,D08,0,1,1
1652,-1.06,1644586206.125,P03,D08,0,1,1
1653,-1.01,1644586206.140625,P03,D08,0,1,1
1654,-0.72,1644586206.15625,P03,D08,0,1,1
1655,-0.25,1644586206.171875,P03,D08,0,1,1
1656,0.28,1644586206.1875,P03,D08,0,1,1
1657,0.72,1644586206.203125,P03,D08,0,1,1
1658,0.98,1644586206.21875,P03,D08,0,1,1
1659,1.0,1644586206.234375,P03,D08,0,1,1
1660,0.85,1644586206.25,P03,D08,0,1,1
1661,0.62,1644586206.265625,P03,D08,0,1,1
1662,0.41,1644586206.28125,P03,D08,0,1,1
1663,0.26,1644586206.296875,P03,D08,0,1,1
1664,0.17,1644586206.3125,P03,D08,0,1,1
1665,0.1,1644586206.328125,P03,D08,0,1,1
1666,0.0,1644586206.34375,P03,D08,0,1,1
1667,-0.12,1644586206.359375,P03,D08,0,1,1
1668,-0.28,1644586206.375,P03,D08,0,1,1
1669,-0.46,1644586206.390625,P03,D08,0,1,1
1670,-0.65,1644586206.40625,P03,D08,0,1,1
1671,-0.8,1644586206.421875,P03,D08,0,1,1
1672,-0.9,1644586206.4375,P03,D08,0,1,1
1673,-0.91,1644586206.453125,P03,D08,0,1,1
1674,-0.83,1644586206.46875,P03,D08,0,1,1
1675,-0.71,1644586206.484375,P03,D08,0,1,1
1676,-0.59,1644586206.5,P03,D08,0,1,1
1677,-0.48,1644586206.515625,P03,D08,0,1,1
1678,-0.34,1644586206.53125,P03,D08,0,1,1
1679,-0.14,1644586206.546875,P03,D08,0,1,1
1680,0.11,1644586206.5625,P03,D08,0,1,1
1681,0.35,1644586206.578125,P03,D08,0,1,1
1682,0.49,1644586206.59375,P03,D08,0,1,1
1683,0.42,1644586206.609375,P03,D08,0,1,1
1684,0.17,1644586206.625,P03,D08,0,1,1
1685,-0.14,1644586206.640625,P03,D08,0,1,1
1686,-0.35,1644586206.65625,P03,D08,0,1,1
1687,-0.33,1644586206.671875,P03,D08,0,1,1
1688,-0.08,1644586206.6875,P03,D08,0,1,1
1689,0.3,1644586206.703125,P03,D08,0,1,1
1690,0.66,1644586206.71875,P03,D08,0,1,1
1691,0.85,1644586206.734375,P03,D08,0,1,1
1692,0.8,1644586206.75,P03,D08,0,1,1
1693,0.52,1644586206.765625,P03,D08,0,1,1
1694,0.12,1644586206.78125,P03,D08,0,1,1
1695,-0.33,1644586206.796875,P03,D08,0,1,1
1696,-0.72,1644586206.8125,P03,D08,0,1,1
1697,-0.96,1644586206.828125,P03,D08,0,1,1
1698,-1.01,1644586206.84375,P03,D08,0,1,1
1699,-0.83,1644586206.859375,P03,D08,0,1,1
1700,-0.44,1644586206.875,P03,D08,0,1,1
1701,0.09,1644586206.890625,P03,D08,0,1,1
1702,0.62,1644586206.90625,P03,D08,0,1,1
1703,0.98,1644586206.921875,P03,D08,0,1,1
1704,1.04,1644586206.9375,P03,D08,0,1,1
1705,0.77,1644586206.953125,P03,D08,0,1,1
1706,0.27,1644586206.96875,P03,D08,0,1,1
1707,-0.26,1644586206.984375,P03,D08,0,1,1
1708,-0.61,1644586207.0,P03,D08,0,1,1
1709,-0.64,1644586207.015625,P03,D08,0,1,1
1710,-0.33,1644586207.03125,P03,D08,0,1,1
1711,0.18,1644586207.046875,P03,D08,0,1,1
1712,0.68,1644586207.0625,P03,D08,0,1,1
1713,1.01,1644586207.078125,P03,D08,0,1,1
1714,1.09,1644586207.09375,P03,D08,0,1,1
1715,0.95,1644586207.109375,P03,D08,0,1,1
1716,0.7,1644586207.125,P03,D08,0,1,1
1717,0.41,1644586207.140625,P03,D08,0,1,1
1718,0.09,1644586207.15625,P03,D08,0,1,1
1719,-0.28,1644586207.171875,P03,D08,0,1,1
1720,-0.68,1644586207.1875,P03,D08,0,1,1
1721,-1.04,1644586207.203125,P03,D08,0,1,1
1722,-1.22,1644586207.21875,P03,D08,0,1,1
1723,-1.12,1644586207.234375,P03,D08,0,1,1
1724,-0.76,1644586207.25,P03,D08,0,1,1
1725,-0.26,1644586207.265625,P03,D08,0,1,1
1726,0.18,1644586207.28125,P03,D08,0,1,1
1727,0.4,1644586207.296875,P03,D08,0,1,1
1728,0.34,1644586207.3125,P03,D08,0,1,1
1729,0.1,1644586207.328125,P03,D08,0,1,1
1730,-0.19,1644586207.34375,P03,D08,0,1,1
1731,-0.41,1644586207.359375,P03,D08,0,1,1
1732,-0.49,1644586207.375,P03,D08,0,1,1
1733,-0.47,1644586207.390625,P03,D08,0,1,1
1734,-0.37,1644586207.40625,P03,D08,0,1,1
1735,-0.27,1644586207.421875,P03,D08,0,1,1
1736,-0.18,1644586207.4375,P03,D08,0,1,1
1737,-0.14,1644586207.453125,P03,D08,0,1,1
1738,-0.16,1644586207.46875,P03,D08,0,1,1
1739,-0.24,1644586207.484375,P03,D08,0,1,1
1740,-0.34,1644586207.5,P03,D08,0,1,1
1741,-0.38,1644586207.515625,P03,D08,0,1,1
1742,-0.29,1644586207.53125,P03,D08,0,1,1
1743,-0.03,1644586207.546875,P03,D08,0,1,1
1744,0.36,1644586207.5625,P03,D08,0,1,1
1745,0.8,1644586207.578125,P03,D08,0,1,1
1746,1.16,1644586207.59375,P03,D08,0,1,1
1747,1.32,1644586207.609375,P03,D08,0,1,1
1748,1.23,1644586207.625,P03,D08,0,1,1
1749,0.9,1644586207.640625,P03,D08,0,1,1
1750,0.41,1644586207.65625,P03,D08,0,1,1
1751,-0.12,1644586207.671875,P03,D08,0,1,1
1752,-0.56,1644586207.6875,P03,D08,0,1,1
1753,-0.81,1644586207.703125,P03,D08,0,1,1
1754,-0.84,1644586207.71875,P03,D08,0,1,1
1755,-0.68,1644586207.734375,P03,D08,0,1,1
1756,-0.43,1644586207.75,P03,D08,0,1,1
1757,-0.19,1644586207.765625,P03,D08,0,1,1
1758,-0.01,1644586207.78125,P03,D08,0,1,1
1759,0.09,1644586207.796875,P03,D08,0,1,1
1760,0.13,1644586207.8125,P03,D08,0,1,1
1761,0.18,1644586207.828125,P03,D08,0,1,1
1762,0.25,1644586207.84375,P03,D08,0,1,1
1763,0.31,1644586207.859375,P03,D08,0,1,1
1764,0.34,1644586207.875,P03,D08,0,1,1
1765,0.34,1644586207.890625,P03,D08,0,1,1
1766,0.36,1644586207.90625,P03,D08,0,1,1
1767,0.45,1644586207.921875,P03,D08,0,1,1
1768,0.64,1644586207.9375,P03,D08,0,1,1
1769,0.91,1644586207.953125,P03,D08,0,1,1
1770,1.17,1644586207.96875,P03,D08,0,1,1
1771,1.31,1644586207.984375,P03,D08,0,1,1
1772,1.29,1644586208.0,P03,D08,0,1,1
1773,1.12,1644586208.015625,P03,D08,0,1,1
1774,0.84,1644586208.03125,P03,D08,0,1,1
1775,0.51,1644586208.046875,P03,D08,0,1,1
1776,0.19,1644586208.0625,P03,D08,0,1,1
1777,-0.09,1644586208.078125,P03,D08,0,1,1
1778,-0.28,1644586208.09375,P03,D08,0,1,1
1779,-0.35,1644586208.109375,P03,D08,0,1,1
1780,-0.29,1644586208.125,P03,D08,0,1,1
1781,-0.12,1644586208.140625,P03,D08,0,1,1
1782,0.08,1644586208.15625,P03,D08,0,1,1
1783,0.26,1644586208.171875,P03,D08,0,1,1
1784,0.39,1644586208.1875,P03,D08,0,1,1
1785,0.45,1644586208.203125,P03,D08,0,1,1
1786,0.49,1644586208.21875,P03,D08,0,1,1
1787,0.53,1644586208.234375,P03,D08,0,1,1
1788,0.57,1644586208.25,P03,D08,0,1,1
1789,0.55,1644586208.265625,P03,D08,0,1,1
1790,0.45,1644586208.28125,P03,D08,0,1,1
1791,0.27,1644586208.296875,P03,D08,0,1,1
1792,0.05,1644586208.3125,P03,D08,0,1,1
1793,-0.13,1644586208.328125,P03,D08,0,1,1
1794,-0.23,1644586208.34375,P03,D08,0,1,1
1795,-0.26,1644586208.359375,P03,D08,0,1,1
1796,-0.29,1644586208.375,P03,D08,0,1,1
1797,-0.39,1644586208.390625,P03,D08,0,1,1
1798,-0.59,1644586208.40625,P03,D08,0,1,1
1799,-0.86,1644586208.421875,P03,D08,0,1,1
1800,-1.13,1644586208.4375,P03,D08,0,1,1
1801,-1.31,1644586208.453125,P03,D08,0,1,1
1802,-1.37,1644586208.46875,P03,D08,0,1,1
1803,-1.37,1644586208.484375,P03,D08,0,1,1
1804,-1.35,1644586208.5,P03,D08,0,1,1
1805,-1.4,1644586208.515625,P03,D08,0,1,1
1806,-1.49,1644586208.53125,P03,D08,0,1,1
1807,-1.55,1644586208.546875,P03,D08,0,1,1
1808,-1.47,1644586208.5625,P03,D08,0,1,1
1809,-1.2,1644586208.578125,P03,D08,0,1,1
1810,-0.75,1644586208.59375,P03,D08,0,1,1
1811,-0.25,1644586208.609375,P03,D08,0,1,1
1812,0.19,1644586208.625,P03,D08,0,1,1
1813,0.46,1644586208.640625,P03,D08,0,1,1
1814,0.55,1644586208.65625,P03,D08,0,1,1
1815,0.54,1644586208.671875,P03,D08,0,1,1
1816,0.53,1644586208.6875,P03,D08,0,1,1
1817,0.57,1644586208.703125,P03,D08,0,1,1
1818,0.66,1644586208.71875,P03,D08,0,1,1
1819,0.73,1644586208.734375,P03,D08,0,1,1
1820,0.73,1644586208.75,P03,D08,0,1,1
1821,0.62,1644586208.765625,P03,D08,0,1,1
1822,0.43,1644586208.78125,P03,D08,0,1,1
1823,0.22,1644586208.796875,P03,D08,0,1,1
1824,0.07,1644586208.8125,P03,D08,0,1,1
1825,-0.02,1644586208.828125,P03,D08,0,1,1
1826,-0.06,1644586208.84375,P03,D08,0,1,1
1827,-0.09,1644586208.859375,P03,D08,0,1,1
1828,-0.15,1644586208.875,P03,D08,0,1,1
1829,-0.23,1644586208.890625,P03,D08,0,1,1
1830,-0.32,1644586208.90625,P03,D08,0,1,1
1831,-0.38,1644586208.921875,P03,D08,0,1,1
1832,-0.45,1644586208.9375,P03,D08,0,1,1
1833,-0.52,1644586208.953125,P03,D08,0,1,1
1834,-0.62,1644586208.96875,P03,D08,0,1,1
1835,-0.71,1644586208.984375,P03,D08,0,1,1
1836,-0.72,1644586209.0,P03,D08,0,1,1
1837,-0.6,1644586209.015625,P03,D08,0,1,1
1838,-0.33,1644586209.03125,P03,D08,0,1,1
1839,0.06,1644586209.046875,P03,D08,0,1,1
1840,0.46,1644586209.0625,P03,D08,0,1,1
1841,0.8,1644586209.078125,P03,D08,0,1,1
1842,1.03,1644586209.09375,P03,D08,0,1,1
1843,1.14,1644586209.109375,P03,D08,0,1,1
1844,1.15,1644586209.125,P03,D08,0,1,1
1845,1.07,1644586209.140625,P03,D08,0,1,1
1846,0.88,1644586209.15625,P03,D08,0,1,1
1847,0.59,1644586209.171875,P03,D08,0,1,1
1848,0.23,1644586209.1875,P03,D08,0,1,1
1849,-0.12,1644586209.203125,P03,D08,0,1,1
1850,-0.36,1644586209.21875,P03,D08,0,1,1
1851,-0.41,1644586209.234375,P03,D08,0,1,1
1852,-0.27,1644586209.25,P03,D08,0,1,1
1853,-0.03,1644586209.265625,P03,D08,0,1,1
1854,0.18,1644586209.28125,P03,D08,0,1,1
1855,0.23,1644586209.296875,P03,D08,0,1,1
1856,0.08,1644586209.3125,P03,D08,0,1,1
1857,-0.23,1644586209.328125,P03,D08,0,1,1
1858,-0.58,1644586209.34375,P03,D08,0,1,1
1859,-0.84,1644586209.359375,P03,D08,0,1,1
1860,-0.94,1644586209.375,P03,D08,0,1,1
1861,-0.9,1644586209.390625,P03,D08,0,1,1
1862,-0.81,1644586209.40625,P03,D08,0,1,1
1863,-0.73,1644586209.421875,P03,D08,0,1,1
1864,-0.69,1644586209.4375,P03,D08,0,1,1
1865,-0.66,1644586209.453125,P03,D08,0,1,1
1866,-0.56,1644586209.46875,P03,D08,0,1,1
1867,-0.37,1644586209.484375,P03,D08,0,1,1
1868,-0.14,1644586209.5,P03,D08,0,1,1
1869,0.02,1644586209.515625,P03,D08,0,1,1
1870,0.02,1644586209.53125,P03,D08,0,1,1
1871,-0.17,1644586209.546875,P03,D08,0,1,1
1872,-0.44,1644586209.5625,P03,D08,0,1,1
1873,-0.63,1644586209.578125,P03,D08,0,1,1
1874,-0.6,1644586209.59375,P03,D08,0,1,1
1875,-0.29,1644586209.609375,P03,D08,0,1,1
1876,0.22,1644586209.625,P03,D08,0,1,1
1877,0.74,1644586209.640625,P03,D08,0,1,1
1878,1.12,1644586209.65625,P03,D08,0,1,1
1879,1.26,1644586209.671875,P03,D08,0,1,1
1880,1.18,1644586209.6875,P03,D08,0,1,1
1881,0.95,1644586209.703125,P03,D08,0,1,1
1882,0.67,1644586209.71875,P03,D08,0,1,1
1883,0.4,1644586209.734375,P03,D08,0,1,1
1884,0.18,1644586209.75,P03,D08,0,1,1
1885,0.02,1644586209.765625,P03,D08,0,1,1
1886,-0.07,1644586209.78125,P03,D08,0,1,1
1887,-0.08,1644586209.796875,P03,D08,0,1,1
1888,0.0,1644586209.8125,P03,D08,0,1,1
1889,0.17,1644586209.828125,P03,D08,0,1,1
1890,0.39,1644586209.84375,P03,D08,0,1,1
1891,0.61,1644586209.859375,P03,D08,0,1,1
1892,0.8,1644586209.875,P03,D08,0,1,1
1893,0.96,1644586209.890625,P03,D08,0,1,1
1894,1.09,1644586209.90625,P03,D08,0,1,1
1895,1.16,1644586209.921875,P03,D08,0,1,1
1896,1.14,1644586209.9375,P03,D08,0,1,1
1897,0.99,1644586209.953125,P03,D08,0,1,1
1898,0.7,1644586209.96875,P03,D08,0,1,1
1899,0.32,1644586209.984375,P03,D08,0,1,1
1900,-0.03,1644586210.0,P03,D08,0,1,1
1901,-0.25,1644586210.015625,P03,D08,0,1,1
1902,-0.33,1644586210.03125,P03,D08,0,1,1
1903,-0.32,1644586210.046875,P03,D08,0,1,1
1904,-0.34,1644586210.0625,P03,D08,0,1,1
1905,-0.5,1644586210.078125,P03,D08,0,1,1
1906,-0.81,1644586210.09375,P03,D08,0,1,1
1907,-1.23,1644586210.109375,P03,D08,0,1,1
1908,-1.61,1644586210.125,P03,D08,0,1,1
1909,-1.8,1644586210.140625,P03,D08,0,1,1
1910,-1.73,1644586210.15625,P03,D08,0,1,1
1911,-1.4,1644586210.171875,P03,D08,0,1,1
1912,-0.94,1644586210.1875,P03,D08,0,1,1
1913,-0.49,1644586210.203125,P03,D08,0,1,1
1914,-0.19,1644586210.21875,P03,D08,0,1,1
1915,-0.08,1644586210.234375,P03,D08,0,1,1
1916,-0.13,1644586210.25,P03,D08,0,1,1
1917,-0.23,1644586210.265625,P03,D08,0,1,1
1918,-0.29,1644586210.28125,P03,D08,0,1,1
1919,-0.23,1644586210.296875,P03,D08,0,1,1
1920,-0.05,1644586210.3125,P03,D08,0,1,1
1921,0.22,1644586210.328125,P03,D08,0,1,1
1922,0.52,1644586210.34375,P03,D08,0,1,1
1923,0.78,1644586210.359375,P03,D08,0,1,1
1924,0.97,1644586210.375,P03,D08,0,1,1
1925,1.02,1644586210.390625,P03,D08,0,1,1
1926,0.92,1644586210.40625,P03,D08,0,1,1
1927,0.68,1644586210.421875,P03,D08,0,1,1
1928,0.33,1644586210.4375,P03,D08,0,1,1
1929,-0.05,1644586210.453125,P03,D08,0,1,1
1930,-0.37,1644586210.46875,P03,D08,0,1,1
1931,-0.58,1644586210.484375,P03,D08,0,1,1
1932,-0.66,1644586210.5,P03,D08,0,1,1
1933,-0.64,1644586210.515625,P03,D08,0,1,1
1934,-0.55,1644586210.53125,P03,D08,0,1,1
1935,-0.41,1644586210.546875,P03,D08,0,1,1
1936,-0.25,1644586210.5625,P03,D08,0,1,1
1937,-0.08,1644586210.578125,P03,D08,0,1,1
1938,0.08,1644586210.59375,P03,D08,0,1,1
1939,0.2,1644586210.609375,P03,D08,0,1,1
1940,0.28,1644586210.625,P03,D08,0,1,1
1941,0.32,1644586210.640625,P03,D08,0,1,1
1942,0.33,1644586210.65625,P03,D08,0,1,1
1943,0.32,1644586210.671875,P03,D08,0,1,1
1944,0.29,1644586210.6875,P03,D08,0,1,1
1945,0.23,1644586210.703125,P03,D08,0,1,1
1946,0.13,1644586210.71875,P03,D08,0,1,1
1947,0.01,1644586210.734375,P03,D08,0,1,1
1948,-0.1,1644586210.75,P03,D08,0,1,1
1949,-0.14,1644586210.765625,P03,D08,0,1,1
1950,-0.07,1644586210.78125,P03,D08,0,1,1
1951,0.13,1644586210.796875,P03,D08,0,1,1
1952,0.4,1644586210.8125,P03,D08,0,1,1
1953,0.65,1644586210.828125,P03,D08,0,1,1
1954,0.74,1644586210.84375,P03,D08,0,1,1
1955,0.63,1644586210.859375,P03,D08,0,1,1
1956,0.35,1644586210.875,P03,D08,0,1,1
1957,0.03,1644586210.890625,P03,D08,0,1,1
1958,-0.2,1644586210.90625,P03,D08,0,1,1
1959,-0.24,1644586210.921875,P03,D08,0,1,1
1960,-0.08,1644586210.9375,P03,D08,0,1,1
1961,0.18,1644586210.953125,P03,D08,0,1,1
1962,0.43,1644586210.96875,P03,D08,0,1,1
1963,0.61,1644586210.984375,P03,D08,0,1,1
1964,0.71,1644586211.0,P03,D08,0,1,1
1965,0.8,1644586211.015625,P03,D08,0,1,1
1966,0.89,1644586211.03125,P03,D08,0,1,1
1967,0.99,1644586211.046875,P03,D08,0,1,1
1968,1.02,1644586211.0625,P03,D08,0,1,1
1969,0.94,1644586211.078125,P03,D08,0,1,1
1970,0.73,1644586211.09375,P03,D08,0,1,1
1971,0.41,1644586211.109375,P03,D08,0,1,1
1972,0.04,1644586211.125,P03,D08,0,1,1
1973,-0.32,1644586211.140625,P03,D08,0,1,1
1974,-0.63,1644586211.15625,P03,D08,0,1,1
1975,-0.83,1644586211.171875,P03,D08,0,1,1
1976,-0.89,1644586211.1875,P03,D08,0,1,1
1977,-0.81,1644586211.203125,P03,D08,0,1,1
1978,-0.6,1644586211.21875,P03,D08,0,1,1
1979,-0.36,1644586211.234375,P03,D08,0,1,1
1980,-0.15,1644586211.25,P03,D08,0,1,1
1981,-0.06,1644586211.265625,P03,D08,0,1,1
1982,-0.13,1644586211.28125,P03,D08,0,1,1
1983,-0.34,1644586211.296875,P03,D08,0,1,1
1984,-0.62,1644586211.3125,P03,D08,0,1,1
1985,-0.89,1644586211.328125,P03,D08,0,1,1
1986,-1.09,1644586211.34375,P03,D08,0,1,1
1987,-1.18,1644586211.359375,P03,D08,0,1,1
1988,-1.16,1644586211.375,P03,D08,0,1,1
1989,-1.01,1644586211.390625,P03,D08,0,1,1
1990,-0.77,1644586211.40625,P03,D08,0,1,1
1991,-0.47,1644586211.421875,P03,D08,0,1,1
1992,-0.17,1644586211.4375,P03,D08,0,1,1
1993,0.08,1644586211.453125,P03,D08,0,1,1
1994,0.25,1644586211.46875,P03,D08,0,1,1
1995,0.33,1644586211.484375,P03,D08,0,1,1
1996,0.33,1644586211.5,P03,D08,0,1,1
1997,0.31,1644586211.515625,P03,D08,0,1,1
1998,0.29,1644586211.53125,P03,D08,0,1,1
1999,0.28,1644586211.546875,P03,D08,0,1,1
2000,0.27,1644586211.5625,P03,D08,0,1,1
2001,0.23,1644586211.578125,P03,D08,0,1,1
2002,0.15,1644586211.59375,P03,D08,0,1,1
2003,0.05,1644586211.609375,P03,D08,0,1,1
2004,-0.03,1644586211.625,P03,D08,0,1,1
2005,-0.08,1644586211.640625,P03,D08,0,1,1
2006,-0.11,1644586211.65625,P03,D08,0,1,1
2007,-0.18,1644586211.671875,P03,D08,0,1,1
2008,-0.34,1644586211.6875,P03,D08,0,1,1
2009,-0.55,1644586211.703125,P03,D08,0,1,1
2010,-0.75,1644586211.71875,P03,D08,0,1,1
2011,-0.81,1644586211.734375,P03,D08,0,1,1
2012,-0.67,1644586211.75,P03,D08,0,1,1
2013,-0.36,1644586211.765625,P03,D08,0,1,1
2014,0.04,1644586211.78125,P03,D08,0,1,1
2015,0.41,1644586211.796875,P03,D08,0,1,1
2016,0.67,1644586211.8125,P03,D08,0,1,1
2017,0.78,1644586211.828125,P03,D08,0,1,1
2018,0.76,1644586211.84375,P03,D08,0,1,1
2019,0.65,1644586211.859375,P03,D08,0,1,1
2020,0.47,1644586211.875,P03,D08,0,1,1
2021,0.24,1644586211.890625,P03,D08,0,1,1
2022,0.02,1644586211.90625,P03,D08,0,1,1
2023,-0.13,1644586211.921875,P03,D08,0,1,1
2024,-0.19,1644586211.9375,P03,D08,0,1,1
2025,-0.14,1644586211.953125,P03,D08,0,1,1
2026,-0.03,1644586211.96875,P03,D08,0,1,1
2027,0.11,1644586211.984375,P03,D08,0,1,1
2028,0.24,1644586212.0,P03,D08,0,1,1
2029,0.4,1644586212.015625,P03,D08,0,1,1
2030,0.61,1644586212.03125,P03,D08,0,1,1
2031,0.86,1644586212.046875,P03,D08,0,1,1
2032,1.07,1644586212.0625,P03,D08,0,1,1
2033,1.17,1644586212.078125,P03,D08,0,1,1
2034,1.07,1644586212.09375,P03,D08,0,1,1
2035,0.77,1644586212.109375,P03,D08,0,1,1
2036,0.36,1644586212.125,P03,D08,0,1,1
2037,-0.07,1644586212.140625,P03,D08,0,1,1
2038,-0.44,1644586212.15625,P03,D08,0,1,1
2039,-0.7,1644586212.171875,P03,D08,0,1,1
2040,-0.87,1644586212.1875,P03,D08,0,1,1
2041,-0.94,1644586212.203125,P03,D08,0,1,1
2042,-0.89,1644586212.21875,P03,D08,0,1,1
2043,-0.72,1644586212.234375,P03,D08,0,1,1
2044,-0.45,1644586212.25,P03,D08,0,1,1
2045,-0.18,1644586212.265625,P03,D08,0,1,1
2046,-0.04,1644586212.28125,P03,D08,0,1,1
2047,-0.11,1644586212.296875,P03,D08,0,1,1
2048,-0.34,1644586212.3125,P03,D08,0,1,1
2049,-0.63,1644586212.328125,P03,D08,0,1,1
2050,-0.78,1644586212.34375,P03,D08,0,1,1
2051,-0.71,1644586212.359375,P03,D08,0,1,1
2052,-0.4,1644586212.375,P03,D08,0,1,1
2053,0.02,1644586212.390625,P03,D08,0,1,1
2054,0.42,1644586212.40625,P03,D08,0,1,1
2055,0.73,1644586212.421875,P03,D08,0,1,1
2056,0.91,1644586212.4375,P03,D08,0,1,1
2057,1.02,1644586212.453125,P03,D08,0,1,1
2058,1.09,1644586212.46875,P03,D08,0,1,1
2059,1.11,1644586212.484375,P03,D08,0,1,1
2060,1.06,1644586212.5,P03,D08,0,1,1
2061,0.94,1644586212.515625,P03,D08,0,1,1
2062,0.76,1644586212.53125,P03,D08,0,1,1
2063,0.59,1644586212.546875,P03,D08,0,1,1
2064,0.48,1644586212.5625,P03,D08,0,1,1
2065,0.44,1644586212.578125,P03,D08,0,1,1
2066,0.47,1644586212.59375,P03,D08,0,1,1
2067,0.52,1644586212.609375,P03,D08,0,1,1
2068,0.55,1644586212.625,P03,D08,0,1,1
2069,0.51,1644586212.640625,P03,D08,0,1,1
2070,0.38,1644586212.65625,P03,D08,0,1,1
2071,0.13,1644586212.671875,P03,D08,0,1,1
2072,-0.25,1644586212.6875,P03,D08,0,1,1
2073,-0.71,1644586212.703125,P03,D08,0,1,1
2074,-1.16,1644586212.71875,P03,D08,0,1,1
2075,-1.47,1644586212.734375,P03,D08,0,1,1
2076,-1.55,1644586212.75,P03,D08,0,1,1
2077,-1.37,1644586212.765625,P03,D08,0,1,1
2078,-1.01,1644586212.78125,P03,D08,0,1,1
2079,-0.56,1644586212.796875,P03,D08,0,1,1
2080,-0.14,1644586212.8125,P03,D08,0,1,1
2081,0.18,1644586212.828125,P03,D08,0,1,1
2082,0.37,1644586212.84375,P03,D08,0,1,1
2083,0.46,1644586212.859375,P03,D08,0,1,1
2084,0.44,1644586212.875,P03,D08,0,1,1
2085,0.34,1644586212.890625,P03,D08,0,1,1
2086,0.19,1644586212.90625,P03,D08,0,1,1
2087,0.04,1644586212.921875,P03,D08,0,1,1
2088,-0.04,1644586212.9375,P03,D08,0,1,1
2089,-0.04,1644586212.953125,P03,D08,0,1,1
2090,0.05,1644586212.96875,P03,D08,0,1,1
2091,0.17,1644586212.984375,P03,D08,0,1,1
2092,0.25,1644586213.0,P03,D08,0,1,1
2093,0.25,1644586213.015625,P03,D08,0,1,1
2094,0.17,1644586213.03125,P03,D08,0,1,1
2095,0.05,1644586213.046875,P03,D08,0,1,1
2096,-0.06,1644586213.0625,P03,D08,0,1,1
2097,-0.1,1644586213.078125,P03,D08,0,1,1
2098,-0.08,1644586213.09375,P03,D08,0,1,1
2099,-0.01,1644586213.109375,P03,D08,0,1,1
2100,0.05,1644586213.125,P03,D08,0,1,1
2101,0.03,1644586213.140625,P03,D08,0,1,1
2102,-0.12,1644586213.15625,P03,D08,0,1,1
2103,-0.4,1644586213.171875,P03,D08,0,1,1
2104,-0.76,1644586213.1875,P03,D08,0,1,1
2105,-1.09,1644586213.203125,P03,D08,0,1,1
2106,-1.29,1644586213.21875,P03,D08,0,1,1
2107,-1.3,1644586213.234375,P03,D08,0,1,1
2108,-1.15,1644586213.25,P03,D08,0,1,1
2109,-0.88,1644586213.265625,P03,D08,0,1,1
2110,-0.59,1644586213.28125,P03,D08,0,1,1
2111,-0.33,1644586213.296875,P03,D08,0,1,1
2112,-0.1,1644586213.3125,P03,D08,0,1,1
2113,0.11,1644586213.328125,P03,D08,0,1,1
2114,0.32,1644586213.34375,P03,D08,0,1,1
2115,0.52,1644586213.359375,P03,D08,0,1,1
2116,0.66,1644586213.375,P03,D08,0,1,1
2117,0.68,1644586213.390625,P03,D08,0,1,1
2118,0.55,1644586213.40625,P03,D08,0,1,1
2119,0.32,1644586213.421875,P03,D08,0,1,1
2120,0.08,1644586213.4375,P03,D08,0,1,1
2121,-0.08,1644586213.453125,P03,D08,0,1,1
2122,-0.08,1644586213.46875,P03,D08,0,1,1
2123,0.07,1644586213.484375,P03,D08,0,1,1
2124,0.31,1644586213.5,P03,D08,0,1,1
2125,0.53,1644586213.515625,P03,D08,0,1,1
2126,0.66,1644586213.53125,P03,D08,0,1,1
2127,0.64,1644586213.546875,P03,D08,0,1,1
2128,0.49,1644586213.5625,P03,D08,0,1,1
2129,0.27,1644586213.578125,P03,D08,0,1,1
2130,0.05,1644586213.59375,P03,D08,0,1,1
2131,-0.09,1644586213.609375,P03,D08,0,1,1
2132,-0.15,1644586213.625,P03,D08,0,1,1
2133,-0.15,1644586213.640625,P03,D08,0,1,1
2134,-0.13,1644586213.65625,P03,D08,0,1,1
2135,-0.13,1644586213.671875,P03,D08,0,1,1
2136,-0.15,1644586213.6875,P03,D08,0,1,1
2137,-0.15,1644586213.703125,P03,D08,0,1,1
2138,-0.04,1644586213.71875,P03,D08,0,1,1
2139,0.23,1644586213.734375,P03,D08,0,1,1
2140,0.65,1644586213.75,P03,D08,0,1,1
2141,1.11,1644586213.765625,P03,D08,0,1,1
2142,1.45,1644586213.78125,P03,D08,0,1,1
2143,1.52,1644586213.796875,P03,D08,0,1,1
2144,1.26,1644586213.8125,P03,D08,0,1,1
2145,0.76,1644586213.828125,P03,D08,0,1,1
2146,0.21,1644586213.84375,P03,D08,0,1,1
2147,-0.18,1644586213.859375,P03,D08,0,1,1
2148,-0.29,1644586213.875,P03,D08,0,1,1
2149,-0.13,1644586213.890625,P03,D08,0,1,1
2150,0.18,1644586213.90625,P03,D08,0,1,1
2151,0.43,1644586213.921875,P03,D08,0,1,1
2152,0.46,1644586213.9375,P03,D08,0,1,1
2153,0.19,1644586213.953125,P03,D08,0,1,1
2154,-0.29,1644586213.96875,P03,D08,0,1,1
2155,-0.81,1644586213.984375,P03,D08,0,1,1
2156,-1.22,1644586214.0,P03,D08,0,1,1
2157,-1.41,1644586214.015625,P03,D08,0,1,1
2158,-1.42,1644586214.03125,P03,D08,0,1,1
2159,-1.32,1644586214.046875,P03,D08,0,1,1
2160,-1.19,1644586214.0625,P03,D08,0,1,1
2161,-1.06,1644586214.078125,P03,D08,0,1,1
2162,-0.89,1644586214.09375,P03,D08,0,1,1
2163,-0.64,1644586214.109375,P03,D08,0,1,1
2164,-0.29,1644586214.125,P03,D08,0,1,1
2165,0.06,1644586214.140625,P03,D08,0,1,1
2166,0.33,1644586214.15625,P03,D08,0,1,1
2167,0.39,1644586214.171875,P03,D08,0,1,1
2168,0.23,1644586214.1875,P03,D08,0,1,1
2169,-0.07,1644586214.203125,P03,D08,0,1,1
2170,-0.38,1644586214.21875,P03,D08,0,1,1
2171,-0.58,1644586214.234375,P03,D08,0,1,1
2172,-0.61,1644586214.25,P03,D08,0,1,1
2173,-0.53,1644586214.265625,P03,D08,0,1,1
2174,-0.42,1644586214.28125,P03,D08,0,1,1
2175,-0.37,1644586214.296875,P03,D08,0,1,1
2176,-0.44,1644586214.3125,P03,D08,0,1,1
2177,-0.57,1644586214.328125,P03,D08,0,1,1
2178,-0.71,1644586214.34375,P03,D08,0,1,1
2179,-0.77,1644586214.359375,P03,D08,0,1,1
2180,-0.72,1644586214.375,P03,D08,0,1,1
2181,-0.56,1644586214.390625,P03,D08,0,1,1
2182,-0.35,1644586214.40625,P03,D08,0,1,1
2183,-0.13,1644586214.421875,P03,D08,0,1,1
2184,0.06,1644586214.4375,P03,D08,0,1,1
2185,0.21,1644586214.453125,P03,D08,0,1,1
2186,0.34,1644586214.46875,P03,D08,0,1,1
2187,0.48,1644586214.484375,P03,D08,0,1,1
2188,0.62,1644586214.5,P03,D08,0,1,1
2189,0.78,1644586214.515625,P03,D08,0,1,1
2190,0.97,1644586214.53125,P03,D08,0,1,1
2191,1.18,1644586214.546875,P03,D08,0,1,1
2192,1.42,1644586214.5625,P03,D08,0,1,1
2193,1.64,1644586214.578125,P03,D08,0,1,1
2194,1.8,1644586214.59375,P03,D08,0,1,1
2195,1.81,1644586214.609375,P03,D08,0,1,1
2196,1.63,1644586214.625,P03,D08,0,1,1
2197,1.27,1644586214.640625,P03,D08,0,1,1
2198,0.79,1644586214.65625,P03,D08,0,1,1
2199,0.31,1644586214.671875,P03,D08,0,1,1
2200,-0.06,1644586214.6875,P03,D08,0,1,1
2201,-0.27,1644586214.703125,P03,D08,0,1,1
2202,-0.35,1644586214.71875,P03,D08,0,1,1
2203,-0.33,1644586214.734375,P03,D08,0,1,1
2204,-0.26,1644586214.75,P03,D08,0,1,1
2205,-0.14,1644586214.765625,P03,D08,0,1,1
2206,0.06,1644586214.78125,P03,D08,0,1,1
2207,0.3,1644586214.796875,P03,D08,0,1,1
2208,0.53,1644586214.8125,P03,D08,0,1,1
2209,0.61,1644586214.828125,P03,D08,0,1,1
2210,0.46,1644586214.84375,P03,D08,0,1,1
2211,0.08,1644586214.859375,P03,D08,0,1,1
2212,-0.42,1644586214.875,P03,D08,0,1,1
2213,-0.85,1644586214.890625,P03,D08,0,1,1
2214,-1.04,1644586214.90625,P03,D08,0,1,1
2215,-0.93,1644586214.921875,P03,D08,0,1,1
2216,-0.59,1644586214.9375,P03,D08,0,1,1
2217,-0.15,1644586214.953125,P03,D08,0,1,1
2218,0.23,1644586214.96875,P03,D08,0,1,1
2219,0.44,1644586214.984375,P03,D08,0,1,1
2220,0.47,1644586215.0,P03,D08,0,1,1
2221,0.37,1644586215.015625,P03,D08,0,1,1
2222,0.22,1644586215.03125,P03,D08,0,1,1
2223,0.11,1644586215.046875,P03,D08,0,1,1
2224,0.04,1644586215.0625,P03,D08,0,1,1
2225,0.0,1644586215.078125,P03,D08,0,1,1
2226,-0.05,1644586215.09375,P03,D08,0,1,1
2227,-0.17,1644586215.109375,P03,D08,0,1,1
2228,-0.36,1644586215.125,P03,D08,0,1,1
2229,-0.59,1644586215.140625,P03,D08,0,1,1
2230,-0.78,1644586215.15625,P03,D08,0,1,1
2231,-0.85,1644586215.171875,P03,D08,0,1,1
2232,-0.76,1644586215.1875,P03,D08,0,1,1
2233,-0.49,1644586215.203125,P03,D08,0,1,1
2234,-0.12,1644586215.21875,P03,D08,0,1,1
2235,0.28,1644586215.234375,P03,D08,0,1,1
2236,0.6,1644586215.25,P03,D08,0,1,1
2237,0.75,1644586215.265625,P03,D08,0,1,1
2238,0.7,1644586215.28125,P03,D08,0,1,1
2239,0.47,1644586215.296875,P03,D08,0,1,1
2240,0.11,1644586215.3125,P03,D08,0,1,1
2241,-0.28,1644586215.328125,P03,D08,0,1,1
2242,-0.64,1644586215.34375,P03,D08,0,1,1
2243,-0.92,1644586215.359375,P03,D08,0,1,1
2244,-1.11,1644586215.375,P03,D08,0,1,1
2245,-1.22,1644586215.390625,P03,D08,0,1,1
2246,-1.22,1644586215.40625,P03,D08,0,1,1
2247,-1.14,1644586215.421875,P03,D08,0,1,1
2248,-0.97,1644586215.4375,P03,D08,0,1,1
2249,-0.77,1644586215.453125,P03,D08,0,1,1
2250,-0.58,1644586215.46875,P03,D08,0,1,1
2251,-0.44,1644586215.484375,P03,D08,0,1,1
2252,-0.38,1644586215.5,P03,D08,0,1,1
2253,-0.33,1644586215.515625,P03,D08,0,1,1
2254,-0.26,1644586215.53125,P03,D08,0,1,1
2255,-0.1,1644586215.546875,P03,D08,0,1,1
2256,0.12,1644586215.5625,P03,D08,0,1,1
2257,0.37,1644586215.578125,P03,D08,0,1,1
2258,0.57,1644586215.59375,P03,D08,0,1,1
2259,0.68,1644586215.609375,P03,D08,0,1,1
2260,0.71,1644586215.625,P03,D08,0,1,1
2261,0.71,1644586215.640625,P03,D08,0,1,1
2262,0.72,1644586215.65625,P03,D08,0,1,1
2263,0.73,1644586215.671875,P03,D08,0,1,1
2264,0.67,1644586215.6875,P03,D08,0,1,1
2265,0.49,1644586215.703125,P03,D08,0,1,1
2266,0.16,1644586215.71875,P03,D08,0,1,1
2267,-0.23,1644586215.734375,P03,D08,0,1,1
2268,-0.57,1644586215.75,P03,D08,0,1,1
2269,-0.76,1644586215.765625,P03,D08,0,1,1
2270,-0.79,1644586215.78125,P03,D08,0,1,1
2271,-0.7,1644586215.796875,P03,D08,0,1,1
2272,-0.56,1644586215.8125,P03,D08,0,1,1
2273,-0.42,1644586215.828125,P03,D08,0,1,1
2274,-0.25,1644586215.84375,P03,D08,0,1,1
2275,-0.01,1644586215.859375,P03,D08,0,1,1
2276,0.3,1644586215.875,P03,D08,0,1,1
2277,0.62,1644586215.890625,P03,D08,0,1,1
2278,0.85,1644586215.90625,P03,D08,0,1,1
2279,0.93,1644586215.921875,P03,D08,0,1,1
2280,0.9,1644586215.9375,P03,D08,0,1,1
2281,0.88,1644586215.953125,P03,D08,0,1,1
2282,0.95,1644586215.96875,P03,D08,0,1,1
2283,1.1,1644586215.984375,P03,D08,0,1,1
2284,1.22,1644586216.0,P03,D08,0,1,1
2285,1.15,1644586216.015625,P03,D08,0,1,1
2286,0.78,1644586216.03125,P03,D08,0,1,1
2287,0.18,1644586216.046875,P03,D08,0,1,1
2288,-0.47,1644586216.0625,P03,D08,0,1,1
2289,-0.98,1644586216.078125,P03,D08,0,1,1
2290,-1.2,1644586216.09375,P03,D08,0,1,1
2291,-1.12,1644586216.109375,P03,D08,0,1,1
2292,-0.84,1644586216.125,P03,D08,0,1,1
2293,-0.47,1644586216.140625,P03,D08,0,1,1
2294,-0.12,1644586216.15625,P03,D08,0,1,1
2295,0.17,1644586216.171875,P03,D08,0,1,1
2296,0.38,1644586216.1875,P03,D08,0,1,1
2297,0.47,1644586216.203125,P03,D08,0,1,1
2298,0.42,1644586216.21875,P03,D08,0,1,1
2299,0.25,1644586216.234375,P03,D08,0,1,1
2300,0.05,1644586216.25,P03,D08,0,1,1
2301,-0.07,1644586216.265625,P03,D08,0,1,1
2302,0.01,1644586216.28125,P03,D08,0,1,1
2303,0.28,1644586216.296875,P03,D08,0,1,1
2304,0.64,1644586216.3125,P03,D08,0,1,1
2305,0.92,1644586216.328125,P03,D08,0,1,1
2306,0.99,1644586216.34375,P03,D08,0,1,1
2307,0.83,1644586216.359375,P03,D08,0,1,1
2308,0.56,1644586216.375,P03,D08,0,1,1
2309,0.32,1644586216.390625,P03,D08,0,1,1
2310,0.23,1644586216.40625,P03,D08,0,1,1
2311,0.29,1644586216.421875,P03,D08,0,1,1
2312,0.38,1644586216.4375,P03,D08,0,1,1
2313,0.41,1644586216.453125,P03,D08,0,1,1
2314,0.34,1644586216.46875,P03,D08,0,1,1
2315,0.24,1644586216.484375,P03,D08,0,1,1
2316,0.21,1644586216.5,P03,D08,0,1,1
2317,0.31,1644586216.515625,P03,D08,0,1,1
2318,0.48,1644586216.53125,P03,D08,0,1,1
2319,0.59,1644586216.546875,P03,D08,0,1,1
2320,0.52,1644586216.5625,P03,D08,0,1,1
2321,0.22,1644586216.578125,P03,D08,0,1,1
2322,-0.22,1644586216.59375,P03,D08,0,1,1
2323,-0.62,1644586216.609375,P03,D08,0,1,1
2324,-0.87,1644586216.625,P03,D08,0,1,1
2325,-0.91,1644586216.640625,P03,D08,0,1,1
2326,-0.82,1644586216.65625,P03,D08,0,1,1
2327,-0.67,1644586216.671875,P03,D08,0,1,1
2328,-0.54,1644586216.6875,P03,D08,0,1,1
2329,-0.45,1644586216.703125,P03,D08,0,1,1
2330,-0.39,1644586216.71875,P03,D08,0,1,1
2331,-0.35,1644586216.734375,P03,D08,0,1,1
2332,-0.34,1644586216.75,P03,D08,0,1,1
2333,-0.39,1644586216.765625,P03,D08,0,1,1
2334,-0.51,1644586216.78125,P03,D08,0,1,1
2335,-0.66,1644586216.796875,P03,D08,0,1,1
2336,-0.78,1644586216.8125,P03,D08,0,1,1
2337,-0.8,1644586216.828125,P03,D08,0,1,1
2338,-0.68,1644586216.84375,P03,D08,0,1,1
2339,-0.43,1644586216.859375,P03,D08,0,1,1
2340,-0.12,1644586216.875,P03,D08,0,1,1
2341,0.16,1644586216.890625,P03,D08,0,1,1
2342,0.33,1644586216.90625,P03,D08,0,1,1
2343,0.37,1644586216.921875,P03,D08,0,1,1
2344,0.35,1644586216.9375,P03,D08,0,1,1
2345,0.33,1644586216.953125,P03,D08,0,1,1
2346,0.38,1644586216.96875,P03,D08,0,1,1
2347,0.5,1644586216.984375,P03,D08,0,1,1
2348,0.64,1644586217.0,P03,D08,0,1,1
2349,0.72,1644586217.015625,P03,D08,0,1,1
2350,0.69,1644586217.03125,P03,D08,0,1,1
2351,0.54,1644586217.046875,P03,D08,0,1,1
2352,0.3,1644586217.0625,P03,D08,0,1,1
2353,0.01,1644586217.078125,P03,D08,0,1,1
2354,-0.3,1644586217.09375,P03,D08,0,1,1
2355,-0.59,1644586217.109375,P03,D08,0,1,1
2356,-0.86,1644586217.125,P03,D08,0,1,1
2357,-1.07,1644586217.140625,P03,D08,0,1,1
2358,-1.22,1644586217.15625,P03,D08,0,1,1
2359,-1.29,1644586217.171875,P03,D08,0,1,1
2360,-1.29,1644586217.1875,P03,D08,0,1,1
2361,-1.2,1644586217.203125,P03,D08,0,1,1
2362,-1.02,1644586217.21875,P03,D08,0,1,1
2363,-0.73,1644586217.234375,P03,D08,0,1,1
2364,-0.37,1644586217.25,P03,D08,0,1,1
2365,-0.02,1644586217.265625,P03,D08,0,1,1
2366,0.23,1644586217.28125,P03,D08,0,1,1
2367,0.3,1644586217.296875,P03,D08,0,1,1
2368,0.2,1644586217.3125,P03,D08,0,1,1
2369,-0.01,1644586217.328125,P03,D08,0,1,1
2370,-0.19,1644586217.34375,P03,D08,0,1,1
2371,-0.24,1644586217.359375,P03,D08,0,1,1
2372,-0.15,1644586217.375,P03,D08,0,1,1
2373,0.05,1644586217.390625,P03,D08,0,1,1
2374,0.25,1644586217.40625,P03,D08,0,1,1
2375,0.41,1644586217.421875,P03,D08,0,1,1
2376,0.51,1644586217.4375,P03,D08,0,1,1
2377,0.6,1644586217.453125,P03,D08,0,1,1
2378,0.74,1644586217.46875,P03,D08,0,1,1
2379,0.95,1644586217.484375,P03,D08,0,1,1
2380,1.19,1644586217.5,P03,D08,0,1,1
2381,1.35,1644586217.515625,P03,D08,0,1,1
2382,1.33,1644586217.53125,P03,D08,0,1,1
2383,1.08,1644586217.546875,P03,D08,0,1,1
2384,0.65,1644586217.5625,P03,D08,0,1,1
2385,0.17,1644586217.578125,P03,D08,0,1,1
2386,-0.2,1644586217.59375,P03,D08,0,1,1
2387,-0.39,1644586217.609375,P03,D08,0,1,1
2388,-0.38,1644586217.625,P03,D08,0,1,1
2389,-0.25,1644586217.640625,P03,D08,0,1,1
2390,-0.1,1644586217.65625,P03,D08,0,1,1
2391,0.01,1644586217.671875,P03,D08,0,1,1
2392,0.07,1644586217.6875,P03,D08,0,1,1
2393,0.12,1644586217.703125,P03,D08,0,1,1
2394,0.17,1644586217.71875,P03,D08,0,1,1
2395,0.23,1644586217.734375,P03,D08,0,1,1
2396,0.25,1644586217.75,P03,D08,0,1,1
2397,0.2,1644586217.765625,P03,D08,0,1,1
2398,0.13,1644586217.78125,P03,D08,0,1,1
2399,0.09,1644586217.796875,P03,D08,0,1,1
2400,0.16,1644586217.8125,P03,D08,0,1,1
2401,0.31,1644586217.828125,P03,D08,0,1,1
2402,0.45,1644586217.84375,P03,D08,0,1,1
2403,0.47,1644586217.859375,P03,D08,0,1,1
2404,0.3,1644586217.875,P03,D08,0,1,1
2405,-0.03,1644586217.890625,P03,D08,0,1,1
2406,-0.39,1644586217.90625,P03,D08,0,1,1
2407,-0.64,1644586217.921875,P03,D08,0,1,1
2408,-0.63,1644586217.9375,P03,D08,0,1,1
2409,-0.37,1644586217.953125,P03,D08,0,1,1
2410,0.06,1644586217.96875,P03,D08,0,1,1
2411,0.51,1644586217.984375,P03,D08,0,1,1
2412,0.81,1644586218.0,P03,D08,0,1,1
2413,0.85,1644586218.015625,P03,D08,0,1,1
2414,0.6,1644586218.03125,P03,D08,0,1,1
2415,0.1,1644586218.046875,P03,D08,0,1,1
2416,-0.53,1644586218.0625,P03,D08,0,1,1
2417,-1.17,1644586218.078125,P03,D08,0,1,1
2418,-1.7,1644586218.09375,P03,D08,0,1,1
2419,-2.08,1644586218.109375,P03,D08,0,1,1
2420,-2.26,1644586218.125,P03,D08,0,1,1
2421,-2.25,1644586218.140625,P03,D08,0,1,1
2422,-2.06,1644586218.15625,P03,D08,0,1,1
2423,-1.72,1644586218.171875,P03,D08,0,1,1
2424,-1.25,1644586218.1875,P03,D08,0,1,1
2425,-0.71,1644586218.203125,P03,D08,0,1,1
2426,-0.18,1644586218.21875,P03,D08,0,1,1
2427,0.25,1644586218.234375,P03,D08,0,1,1
2428,0.49,1644586218.25,P03,D08,0,1,1
2429,0.52,1644586218.265625,P03,D08,0,1,1
2430,0.33,1644586218.28125,P03,D08,0,1,1
2431,0.03,1644586218.296875,P03,D08,0,1,1
2432,-0.25,1644586218.3125,P03,D08,0,1,1
2433,-0.37,1644586218.328125,P03,D08,0,1,1
2434,-0.24,1644586218.34375,P03,D08,0,1,1
2435,0.1,1644586218.359375,P03,D08,0,1,1
2436,0.53,1644586218.375,P03,D08,0,1,1
2437,0.89,1644586218.390625,P03,D08,0,1,1
2438,1.04,1644586218.40625,P03,D08,0,1,1
2439,0.95,1644586218.421875,P03,D08,0,1,1
2440,0.75,1644586218.4375,P03,D08,0,1,1
2441,0.58,1644586218.453125,P03,D08,0,1,1
2442,0.55,1644586218.46875,P03,D08,0,1,1
2443,0.67,1644586218.484375,P03,D08,0,1,1
2444,0.81,1644586218.5,P03,D08,0,1,1
2445,0.84,1644586218.515625,P03,D08,0,1,1
2446,0.71,1644586218.53125,P03,D08,0,1,1
2447,0.47,1644586218.546875,P03,D08,0,1,1
2448,0.26,1644586218.5625,P03,D08,0,1,1
2449,0.17,1644586218.578125,P03,D08,0,1,1
2450,0.22,1644586218.59375,P03,D08,0,1,1
2451,0.32,1644586218.609375,P03,D08,0,1,1
2452,0.34,1644586218.625,P03,D08,0,1,1
2453,0.24,1644586218.640625,P03,D08,0,1,1
2454,0.05,1644586218.65625,P03,D08,0,1,1
2455,-0.09,1644586218.671875,P03,D08,0,1,1
2456,-0.11,1644586218.6875,P03,D08,0,1,1
2457,0.01,1644586218.703125,P03,D08,0,1,1
2458,0.18,1644586218.71875,P03,D08,0,1,1
2459,0.28,1644586218.734375,P03,D08,0,1,1
2460,0.24,1644586218.75,P03,D08,0,1,1
2461,0.11,1644586218.765625,P03,D08,0,1,1
2462,-0.02,1644586218.78125,P03,D08,0,1,1
2463,-0.04,1644586218.796875,P03,D08,0,1,1
2464,0.06,1644586218.8125,P03,D08,0,1,1
2465,0.22,1644586218.828125,P03,D08,0,1,1
2466,0.33,1644586218.84375,P03,D08,0,1,1
2467,0.33,1644586218.859375,P03,D08,0,1,1
2468,0.24,1644586218.875,P03,D08,0,1,1
2469,0.12,1644586218.890625,P03,D08,0,1,1
2470,0.07,1644586218.90625,P03,D08,0,1,1
2471,0.11,1644586218.921875,P03,D08,0,1,1
2472,0.22,1644586218.9375,P03,D08,0,1,1
2473,0.32,1644586218.953125,P03,D08,0,1,1
2474,0.34,1644586218.96875,P03,D08,0,1,1
2475,0.24,1644586218.984375,P03,D08,0,1,1
2476,0.07,1644586219.0,P03,D08,0,1,1
2477,-0.12,1644586219.015625,P03,D08,0,1,1
2478,-0.25,1644586219.03125,P03,D08,0,1,1
2479,-0.31,1644586219.046875,P03,D08,0,1,1
2480,-0.33,1644586219.0625,P03,D08,0,1,1
2481,-0.37,1644586219.078125,P03,D08,0,1,1
2482,-0.44,1644586219.09375,P03,D08,0,1,1
2483,-0.52,1644586219.109375,P03,D08,0,1,1
2484,-0.55,1644586219.125,P03,D08,0,1,1
2485,-0.46,1644586219.140625,P03,D08,0,1,1
2486,-0.25,1644586219.15625,P03,D08,0,1,1
2487,0.02,1644586219.171875,P03,D08,0,1,1
2488,0.24,1644586219.1875,P03,D08,0,1,1
2489,0.31,1644586219.203125,P03,D08,0,1,1
2490,0.22,1644586219.21875,P03,D08,0,1,1
2491,-0.0,1644586219.234375,P03,D08,0,1,1
2492,-0.23,1644586219.25,P03,D08,0,1,1
2493,-0.35,1644586219.265625,P03,D08,0,1,1
2494,-0.33,1644586219.28125,P03,D08,0,1,1
2495,-0.2,1644586219.296875,P03,D08,0,1,1
2496,-0.09,1644586219.3125,P03,D08,0,1,1
2497,-0.09,1644586219.328125,P03,D08,0,1,1
2498,-0.24,1644586219.34375,P03,D08,0,1,1
2499,-0.46,1644586219.359375,P03,D08,0,1,1
2500,-0.64,1644586219.375,P03,D08,0,1,1
2501,-0.64,1644586219.390625,P03,D08,0,1,1
2502,-0.43,1644586219.40625,P03,D08,0,1,1
2503,-0.08,1644586219.421875,P03,D08,0,1,1
2504,0.3,1644586219.4375,P03,D08,0,1,1
2505,0.57,1644586219.453125,P03,D08,0,1,1
2506,0.69,1644586219.46875,P03,D08,0,1,1
2507,0.63,1644586219.484375,P03,D08,0,1,1
2508,0.45,1644586219.5,P03,D08,0,1,1
2509,0.19,1644586219.515625,P03,D08,0,1,1
2510,-0.09,1644586219.53125,P03,D08,0,1,1
2511,-0.35,1644586219.546875,P03,D08,0,1,1
2512,-0.53,1644586219.5625,P03,D08,0,1,1
2513,-0.58,1644586219.578125,P03,D08,0,1,1
2514,-0.43,1644586219.59375,P03,D08,0,1,1
2515,-0.09,1644586219.609375,P03,D08,0,1,1
2516,0.4,1644586219.625,P03,D08,0,1,1
2517,0.92,1644586219.640625,P03,D08,0,1,1
2518,1.37,1644586219.65625,P03,D08,0,1,1
2519,1.62,1644586219.671875,P03,D08,0,1,1
2520,1.63,1644586219.6875,P03,D08,0,1,1
2521,1.4,1644586219.703125,P03,D08,0,1,1
2522,1.01,1644586219.71875,P03,D08,0,1,1
2523,0.57,1644586219.734375,P03,D08,0,1,1
2524,0.23,1644586219.75,P03,D08,0,1,1
2525,0.06,1644586219.765625,P03,D08,0,1,1
2526,0.05,1644586219.78125,P03,D08,0,1,1
2527,0.11,1644586219.796875,P03,D08,0,1,1
2528,0.11,1644586219.8125,P03,D08,0,1,1
2529,-0.04,1644586219.828125,P03,D08,0,1,1
2530,-0.32,1644586219.84375,P03,D08,0,1,1
2531,-0.66,1644586219.859375,P03,D08,0,1,1
2532,-0.94,1644586219.875,P03,D08,0,1,1
2533,-1.07,1644586219.890625,P03,D08,0,1,1
2534,-1.03,1644586219.90625,P03,D08,0,1,1
2535,-0.88,1644586219.921875,P03,D08,0,1,1
2536,-0.71,1644586219.9375,P03,D08,0,1,1
2537,-0.57,1644586219.953125,P03,D08,0,1,1
2538,-0.49,1644586219.96875,P03,D08,0,1,1
2539,-0.44,1644586219.984375,P03,D08,0,1,1
2540,-0.37,1644586220.0,P03,D08,0,1,1
2541,-0.27,1644586220.015625,P03,D08,0,1,1
2542,-0.16,1644586220.03125,P03,D08,0,1,1
2543,-0.08,1644586220.046875,P03,D08,0,1,1
2544,-0.04,1644586220.0625,P03,D08,0,1,1
2545,-0.0,1644586220.078125,P03,D08,0,1,1
2546,0.09,1644586220.09375,P03,D08,0,1,1
2547,0.27,1644586220.109375,P03,D08,0,1,1
2548,0.54,1644586220.125,P03,D08,0,1,1
2549,0.83,1644586220.140625,P03,D08,0,1,1
2550,1.01,1644586220.15625,P03,D08,0,1,1
2551,1.01,1644586220.171875,P03,D08,0,1,1
2552,0.79,1644586220.1875,P03,D08,0,1,1
2553,0.45,1644586220.203125,P03,D08,0,1,1
2554,0.09,1644586220.21875,P03,D08,0,1,1
2555,-0.18,1644586220.234375,P03,D08,0,1,1
2556,-0.33,1644586220.25,P03,D08,0,1,1
2557,-0.42,1644586220.265625,P03,D08,0,1,1
2558,-0.5,1644586220.28125,P03,D08,0,1,1
2559,-0.63,1644586220.296875,P03,D08,0,1,1
2560,-0.79,1644586220.3125,P03,D08,0,1,1
2561,-0.92,1644586220.328125,P03,D08,0,1,1
2562,-0.96,1644586220.34375,P03,D08,0,1,1
2563,-0.88,1644586220.359375,P03,D08,0,1,1
2564,-0.71,1644586220.375,P03,D08,0,1,1
2565,-0.47,1644586220.390625,P03,D08,0,1,1
2566,-0.2,1644586220.40625,P03,D08,0,1,1
2567,0.05,1644586220.421875,P03,D08,0,1,1
2568,0.25,1644586220.4375,P03,D08,0,1,1
2569,0.37,1644586220.453125,P03,D08,0,1,1
2570,0.43,1644586220.46875,P03,D08,0,1,1
2571,0.42,1644586220.484375,P03,D08,0,1,1
2572,0.4,1644586220.5,P03,D08,0,1,1
2573,0.39,1644586220.515625,P03,D08,0,1,1
2574,0.38,1644586220.53125,P03,D08,0,1,1
2575,0.36,1644586220.546875,P03,D08,0,1,1
2576,0.27,1644586220.5625,P03,D08,0,1,1
2577,0.13,1644586220.578125,P03,D08,0,1,1
2578,-0.05,1644586220.59375,P03,D08,0,1,1
2579,-0.2,1644586220.609375,P03,D08,0,1,1
2580,-0.24,1644586220.625,P03,D08,0,1,1
2581,-0.13,1644586220.640625,P03,D08,0,1,1
2582,0.1,1644586220.65625,P03,D08,0,1,1
2583,0.38,1644586220.671875,P03,D08,0,1,1
2584,0.63,1644586220.6875,P03,D08,0,1,1
2585,0.78,1644586220.703125,P03,D08,0,1,1
2586,0.8,1644586220.71875,P03,D08,0,1,1
2587,0.66,1644586220.734375,P03,D08,0,1,1
2588,0.4,1644586220.75,P03,D08,0,1,1
2589,0.03,1644586220.765625,P03,D08,0,1,1
2590,-0.4,1644586220.78125,P03,D08,0,1,1
2591,-0.83,1644586220.796875,P03,D08,0,1,1
2592,-1.2,1644586220.8125,P03,D08,0,1,1
2593,-1.45,1644586220.828125,P03,D08,0,1,1
2594,-1.52,1644586220.84375,P03,D08,0,1,1
2595,-1.4,1644586220.859375,P03,D08,0,1,1
2596,-1.13,1644586220.875,P03,D08,0,1,1
2597,-0.8,1644586220.890625,P03,D08,0,1,1
2598,-0.5,1644586220.90625,P03,D08,0,1,1
2599,-0.33,1644586220.921875,P03,D08,0,1,1
2600,-0.31,1644586220.9375,P03,D08,0,1,1
2601,-0.4,1644586220.953125,P03,D08,0,1,1
2602,-0.52,1644586220.96875,P03,D08,0,1,1
2603,-0.59,1644586220.984375,P03,D08,0,1,1
2604,-0.58,1644586221.0,P03,D08,0,1,1
2605,-0.51,1644586221.015625,P03,D08,0,1,1
2606,-0.46,1644586221.03125,P03,D08,0,1,1
2607,-0.46,1644586221.046875,P03,D08,0,1,1
2608,-0.5,1644586221.0625,P03,D08,0,1,1
2609,-0.54,1644586221.078125,P03,D08,0,1,1
2610,-0.46,1644586221.09375,P03,D08,0,1,1
2611,-0.21,1644586221.109375,P03,D08,0,1,1
2612,0.19,1644586221.125,P03,D08,0,1,1
2613,0.67,1644586221.140625,P03,D08,0,1,1
2614,1.11,1644586221.15625,P03,D08,0,1,1
2615,1.42,1644586221.171875,P03,D08,0,1,1
2616,1.54,1644586221.1875,P03,D08,0,1,1
2617,1.52,1644586221.203125,P03,D08,0,1,1
2618,1.41,1644586221.21875,P03,D08,0,1,1
2619,1.32,1644586221.234375,P03,D08,0,1,1
2620,1.29,1644586221.25,P03,D08,0,1,1
2621,1.32,1644586221.265625,P03,D08,0,1,1
2622,1.35,1644586221.28125,P03,D08,0,1,1
2623,1.29,1644586221.296875,P03,D08,0,1,1
2624,1.07,1644586221.3125,P03,D08,0,1,1
2625,0.68,1644586221.328125,P03,D08,0,1,1
2626,0.22,1644586221.34375,P03,D08,0,1,1
2627,-0.2,1644586221.359375,P03,D08,0,1,1
2628,-0.45,1644586221.375,P03,D08,0,1,1
2629,-0.5,1644586221.390625,P03,D08,0,1,1
2630,-0.38,1644586221.40625,P03,D08,0,1,1
2631,-0.21,1644586221.421875,P03,D08,0,1,1
2632,-0.09,1644586221.4375,P03,D08,0,1,1
2633,-0.09,1644586221.453125,P03,D08,0,1,1
2634,-0.2,1644586221.46875,P03,D08,0,1,1
2635,-0.36,1644586221.484375,P03,D08,0,1,1
2636,-0.5,1644586221.5,P03,D08,0,1,1
2637,-0.56,1644586221.515625,P03,D08,0,1,1
2638,-0.56,1644586221.53125,P03,D08,0,1,1
2639,-0.51,1644586221.546875,P03,D08,0,1,1
2640,-0.42,1644586221.5625,P03,D08,0,1,1
2641,-0.27,1644586221.578125,P03,D08,0,1,1
2642,-0.07,1644586221.59375,P03,D08,0,1,1
2643,0.16,1644586221.609375,P03,D08,0,1,1
2644,0.38,1644586221.625,P03,D08,0,1,1
2645,0.53,1644586221.640625,P03,D08,0,1,1
2646,0.56,1644586221.65625,P03,D08,0,1,1
2647,0.46,1644586221.671875,P03,D08,0,1,1
2648,0.24,1644586221.6875,P03,D08,0,1,1
2649,-0.05,1644586221.703125,P03,D08,0,1,1
2650,-0.38,1644586221.71875,P03,D08,0,1,1
2651,-0.68,1644586221.734375,P03,D08,0,1,1
2652,-0.94,1644586221.75,P03,D08,0,1,1
2653,-1.1,1644586221.765625,P03,D08,0,1,1
2654,-1.14,1644586221.78125,P03,D08,0,1,1
2655,-1.04,1644586221.796875,P03,D08,0,1,1
2656,-0.82,1644586221.8125,P03,D08,0,1,1
2657,-0.54,1644586221.828125,P03,D08,0,1,1
2658,-0.27,1644586221.84375,P03,D08,0,1,1
2659,-0.07,1644586221.859375,P03,D08,0,1,1
2660,-0.0,1644586221.875,P03,D08,0,1,1
2661,-0.05,1644586221.890625,P03,D08,0,1,1
2662,-0.17,1644586221.90625,P03,D08,0,1,1
2663,-0.31,1644586221.921875,P03,D08,0,1,1
2664,-0.41,1644586221.9375,P03,D08,0,1,1
2665,-0.43,1644586221.953125,P03,D08,0,1,1
2666,-0.38,1644586221.96875,P03,D08,0,1,1
2667,-0.29,1644586221.984375,P03,D08,0,1,1
2668,-0.17,1644586222.0,P03,D08,0,1,1
2669,-0.05,1644586222.015625,P03,D08,0,1,1
2670,0.1,1644586222.03125,P03,D08,0,1,1
2671,0.28,1644586222.046875,P03,D08,0,1,1
2672,0.51,1644586222.0625,P03,D08,0,1,1
2673,0.77,1644586222.078125,P03,D08,0,1,1
2674,1.0,1644586222.09375,P03,D08,0,1,1
2675,1.13,1644586222.109375,P03,D08,0,1,1
2676,1.12,1644586222.125,P03,D08,0,1,1
2677,0.97,1644586222.140625,P03,D08,0,1,1
2678,0.7,1644586222.15625,P03,D08,0,1,1
2679,0.38,1644586222.171875,P03,D08,0,1,1
2680,0.07,1644586222.1875,P03,D08,0,1,1
2681,-0.14,1644586222.203125,P03,D08,0,1,1
2682,-0.19,1644586222.21875,P03,D08,0,1,1
2683,-0.05,1644586222.234375,P03,D08,0,1,1
2684,0.26,1644586222.25,P03,D08,0,1,1
2685,0.66,1644586222.265625,P03,D08,0,1,1
2686,1.05,1644586222.28125,P03,D08,0,1,1
2687,1.27,1644586222.296875,P03,D08,0,1,1
2688,1.24,1644586222.3125,P03,D08,0,1,1
2689,0.9,1644586222.328125,P03,D08,0,1,1
2690,0.3,1644586222.34375,P03,D08,0,1,1
2691,-0.41,1644586222.359375,P03,D08,0,1,1
2692,-1.06,1644586222.375,P03,D08,0,1,1
2693,-1.5,1644586222.390625,P03,D08,0,1,1
2694,-1.65,1644586222.40625,P03,D08,0,1,1
2695,-1.54,1644586222.421875,P03,D08,0,1,1
2696,-1.29,1644586222.4375,P03,D08,0,1,1
2697,-1.04,1644586222.453125,P03,D08,0,1,1
2698,-0.89,1644586222.46875,P03,D08,0,1,1
2699,-0.84,1644586222.484375,P03,D08,0,1,1
2700,-0.81,1644586222.5,P03,D08,0,1,1
2701,-0.68,1644586222.515625,P03,D08,0,1,1
2702,-0.4,1644586222.53125,P03,D08,0,1,1
2703,0.03,1644586222.546875,P03,D08,0,1,1
2704,0.5,1644586222.5625,P03,D08,0,1,1
2705,0.89,1644586222.578125,P03,D08,0,1,1
2706,1.12,1644586222.59375,P03,D08,0,1,1
2707,1.19,1644586222.609375,P03,D08,0,1,1
2708,1.09,1644586222.625,P03,D08,0,1,1
2709,0.87,1644586222.640625,P03,D08,0,1,1
2710,0.58,1644586222.65625,P03,D08,0,1,1
2711,0.25,1644586222.671875,P03,D08,0,1,1
2712,-0.07,1644586222.6875,P03,D08,0,1,1
2713,-0.26,1644586222.703125,P03,D08,0,1,1
2714,-0.28,1644586222.71875,P03,D08,0,1,1
2715,-0.08,1644586222.734375,P03,D08,0,1,1
2716,0.29,1644586222.75,P03,D08,0,1,1
2717,0.69,1644586222.765625,P03,D08,0,1,1
2718,1.0,1644586222.78125,P03,D08,0,1,1
2719,1.1,1644586222.796875,P03,D08,0,1,1
2720,0.98,1644586222.8125,P03,D08,0,1,1
2721,0.68,1644586222.828125,P03,D08,0,1,1
2722,0.33,1644586222.84375,P03,D08,0,1,1
2723,0.02,1644586222.859375,P03,D08,0,1,1
2724,-0.17,1644586222.875,P03,D08,0,1,1
2725,-0.2,1644586222.890625,P03,D08,0,1,1
2726,-0.1,1644586222.90625,P03,D08,0,1,1
2727,0.07,1644586222.921875,P03,D08,0,1,1
2728,0.26,1644586222.9375,P03,D08,0,1,1
2729,0.41,1644586222.953125,P03,D08,0,1,1
2730,0.49,1644586222.96875,P03,D08,0,1,1
2731,0.51,1644586222.984375,P03,D08,0,1,1
2732,0.46,1644586223.0,P03,D08,0,1,1
2733,0.35,1644586223.015625,P03,D08,0,1,1
2734,0.19,1644586223.03125,P03,D08,0,1,1
2735,-0.01,1644586223.046875,P03,D08,0,1,1
2736,-0.22,1644586223.0625,P03,D08,0,1,1
2737,-0.38,1644586223.078125,P03,D08,0,1,1
2738,-0.45,1644586223.09375,P03,D08,0,1,1
2739,-0.4,1644586223.109375,P03,D08,0,1,1
2740,-0.26,1644586223.125,P03,D08,0,1,1
2741,-0.07,1644586223.140625,P03,D08,0,1,1
2742,0.1,1644586223.15625,P03,D08,0,1,1
2743,0.23,1644586223.171875,P03,D08,0,1,1
2744,0.31,1644586223.1875,P03,D08,0,1,1
2745,0.33,1644586223.203125,P03,D08,0,1,1
2746,0.3,1644586223.21875,P03,D08,0,1,1
2747,0.19,1644586223.234375,P03,D08,0,1,1
2748,0.01,1644586223.25,P03,D08,0,1,1
2749,-0.24,1644586223.265625,P03,D08,0,1,1
2750,-0.51,1644586223.28125,P03,D08,0,1,1
2751,-0.74,1644586223.296875,P03,D08,0,1,1
2752,-0.87,1644586223.3125,P03,D08,0,1,1
2753,-0.86,1644586223.328125,P03,D08,0,1,1
2754,-0.71,1644586223.34375,P03,D08,0,1,1
2755,-0.47,1644586223.359375,P03,D08,0,1,1
2756,-0.2,1644586223.375,P03,D08,0,1,1
2757,0.05,1644586223.390625,P03,D08,0,1,1
2758,0.23,1644586223.40625,P03,D08,0,1,1
2759,0.36,1644586223.421875,P03,D08,0,1,1
2760,0.43,1644586223.4375,P03,D08,0,1,1
2761,0.45,1644586223.453125,P03,D08,0,1,1
2762,0.42,1644586223.46875,P03,D08,0,1,1
2763,0.31,1644586223.484375,P03,D08,0,1,1
2764,0.11,1644586223.5,P03,D08,0,1,1
2765,-0.12,1644586223.515625,P03,D08,0,1,1
2766,-0.31,1644586223.53125,P03,D08,0,1,1
2767,-0.38,1644586223.546875,P03,D08,0,1,1
2768,-0.27,1644586223.5625,P03,D08,0,1,1
2769,-0.05,1644586223.578125,P03,D08,0,1,1
2770,0.19,1644586223.59375,P03,D08,0,1,1
2771,0.33,1644586223.609375,P03,D08,0,1,1
2772,0.33,1644586223.625,P03,D08,0,1,1
2773,0.19,1644586223.640625,P03,D08,0,1,1
2774,-0.03,1644586223.65625,P03,D08,0,1,1
2775,-0.26,1644586223.671875,P03,D08,0,1,1
2776,-0.48,1644586223.6875,P03,D08,0,1,1
2777,-0.68,1644586223.703125,P03,D08,0,1,1
2778,-0.86,1644586223.71875,P03,D08,0,1,1
2779,-1.0,1644586223.734375,P03,D08,0,1,1
2780,-1.07,1644586223.75,P03,D08,0,1,1
2781,-1.06,1644586223.765625,P03,D08,0,1,1
2782,-0.98,1644586223.78125,P03,D08,0,1,1
2783,-0.86,1644586223.796875,P03,D08,0,1,1
2784,-0.75,1644586223.8125,P03,D08,0,1,1
2785,-0.68,1644586223.828125,P03,D08,0,1,1
2786,-0.64,1644586223.84375,P03,D08,0,1,1
2787,-0.63,1644586223.859375,P03,D08,0,1,1
2788,-0.61,1644586223.875,P03,D08,0,1,1
2789,-0.55,1644586223.890625,P03,D08,0,1,1
2790,-0.43,1644586223.90625,P03,D08,0,1,1
2791,-0.25,1644586223.921875,P03,D08,0,1,1
2792,-0.02,1644586223.9375,P03,D08,0,1,1
2793,0.23,1644586223.953125,P03,D08,0,1,1
2794,0.45,1644586223.96875,P03,D08,0,1,1
2795,0.61,1644586223.984375,P03,D08,0,1,1
2796,0.67,1644586224.0,P03,D08,0,1,1
2797,0.65,1644586224.015625,P03,D08,0,1,1
2798,0.56,1644586224.03125,P03,D08,0,1,1
2799,0.44,1644586224.046875,P03,D08,0,1,1
2800,0.3,1644586224.0625,P03,D08,0,1,1
2801,0.18,1644586224.078125,P03,D08,0,1,1
2802,0.11,1644586224.09375,P03,D08,0,1,1
2803,0.13,1644586224.109375,P03,D08,0,1,1
2804,0.29,1644586224.125,P03,D08,0,1,1
2805,0.57,1644586224.140625,P03,D08,0,1,1
2806,0.92,1644586224.15625,P03,D08,0,1,1
2807,1.23,1644586224.171875,P03,D08,0,1,1
2808,1.39,1644586224.1875,P03,D08,0,1,1
2809,1.35,1644586224.203125,P03,D08,0,1,1
2810,1.11,1644586224.21875,P03,D08,0,1,1
2811,0.77,1644586224.234375,P03,D08,0,1,1
2812,0.44,1644586224.25,P03,D08,0,1,1
2813,0.23,1644586224.265625,P03,D08,0,1,1
2814,0.18,1644586224.28125,P03,D08,0,1,1
2815,0.22,1644586224.296875,P03,D08,0,1,1
2816,0.28,1644586224.3125,P03,D08,0,1,1
2817,0.25,1644586224.328125,P03,D08,0,1,1
2818,0.13,1644586224.34375,P03,D08,0,1,1
2819,-0.05,1644586224.359375,P03,D08,0,1,1
2820,-0.17,1644586224.375,P03,D08,0,1,1
2821,-0.14,1644586224.390625,P03,D08,0,1,1
2822,0.03,1644586224.40625,P03,D08,0,1,1
2823,0.25,1644586224.421875,P03,D08,0,1,1
2824,0.4,1644586224.4375,P03,D08,0,1,1
2825,0.37,1644586224.453125,P03,D08,0,1,1
2826,0.12,1644586224.46875,P03,D08,0,1,1
2827,-0.29,1644586224.484375,P03,D08,0,1,1
2828,-0.78,1644586224.5,P03,D08,0,1,1
2829,-1.27,1644586224.515625,P03,D08,0,1,1
2830,-1.73,1644586224.53125,P03,D08,0,1,1
2831,-2.13,1644586224.546875,P03,D08,0,1,1
2832,-2.43,1644586224.5625,P03,D08,0,1,1
2833,-2.56,1644586224.578125,P03,D08,0,1,1
2834,-2.45,1644586224.59375,P03,D08,0,1,1
2835,-2.14,1644586224.609375,P03,D08,0,1,1
2836,-1.74,1644586224.625,P03,D08,0,1,1
2837,-1.42,1644586224.640625,P03,D08,0,1,1
2838,-1.34,1644586224.65625,P03,D08,0,1,1
2839,-1.51,1644586224.671875,P03,D08,0,1,1
2840,-1.84,1644586224.6875,P03,D08,0,1,1
2841,-2.17,1644586224.703125,P03,D08,0,1,1
2842,-2.4,1644586224.71875,P03,D08,0,1,1
2843,-2.52,1644586224.734375,P03,D08,0,1,1
2844,-2.65,1644586224.75,P03,D08,0,1,1
2845,-2.91,1644586224.765625,P03,D08,0,1,1
2846,-3.36,1644586224.78125,P03,D08,0,1,1
2847,-3.97,1644586224.796875,P03,D08,0,1,1
2848,-4.63,1644586224.8125,P03,D08,0,1,1
2849,-5.25,1644586224.828125,P03,D08,0,1,1
2850,-5.73,1644586224.84375,P03,D08,0,1,1
2851,-5.98,1644586224.859375,P03,D08,0,1,1
2852,-5.92,1644586224.875,P03,D08,0,1,1
2853,-5.46,1644586224.890625,P03,D08,0,1,1
2854,-4.52,1644586224.90625,P03,D08,0,1,1
2855,-3.09,1644586224.921875,P03,D08,0,1,1
2856,-1.29,1644586224.9375,P03,D08,0,1,1
2857,0.69,1644586224.953125,P03,D08,0,1,1
2858,2.56,1644586224.96875,P03,D08,0,1,1
2859,4.07,1644586224.984375,P03,D08,0,1,1
2860,5.07,1644586225.0,P03,D08,0,1,1
2861,5.56,1644586225.015625,P03,D08,0,1,1
2862,5.67,1644586225.03125,P03,D08,0,1,1
2863,5.64,1644586225.046875,P03,D08,0,1,1
2864,5.63,1644586225.0625,P03,D08,0,1,1
2865,5.72,1644586225.078125,P03,D08,0,1,1
2866,5.85,1644586225.09375,P03,D08,0,1,1
2867,5.89,1644586225.109375,P03,D08,0,1,1
2868,5.74,1644586225.125,P03,D08,0,1,1
2869,5.39,1644586225.140625,P03,D08,0,1,1
2870,4.89,1644586225.15625,P03,D08,0,1,1
2871,4.34,1644586225.171875,P03,D08,0,1,1
2872,3.8,1644586225.1875,P03,D08,0,1,1
2873,3.28,1644586225.203125,P03,D08,0,1,1
2874,2.77,1644586225.21875,P03,D08,0,1,1
2875,2.32,1644586225.234375,P03,D08,0,1,1
2876,1.97,1644586225.25,P03,D08,0,1,1
2877,1.82,1644586225.265625,P03,D08,0,1,1
2878,1.93,1644586225.28125,P03,D08,0,1,1
2879,2.25,1644586225.296875,P03,D08,0,1,1
2880,2.7,1644586225.3125,P03,D08,0,1,1
2881,3.17,1644586225.328125,P03,D08,0,1,1
2882,3.57,1644586225.34375,P03,D08,0,1,1
2883,3.87,1644586225.359375,P03,D08,0,1,1
2884,4.09,1644586225.375,P03,D08,0,1,1
2885,4.24,1644586225.390625,P03,D08,0,1,1
2886,4.25,1644586225.40625,P03,D08,0,1,1
2887,4.04,1644586225.421875,P03,D08,0,1,1
2888,3.53,1644586225.4375,P03,D08,0,1,1
2889,2.74,1644586225.453125,P03,D08,0,1,1
2890,1.81,1644586225.46875,P03,D08,0,1,1
2891,0.97,1644586225.484375,P03,D08,0,1,1
2892,0.46,1644586225.5,P03,D08,0,1,1
2893,0.38,1644586225.515625,P03,D08,0,1,1
2894,0.64,1644586225.53125,P03,D08,0,1,1
2895,0.95,1644586225.546875,P03,D08,0,1,1
2896,1.0,1644586225.5625,P03,D08,0,1,1
2897,0.61,1644586225.578125,P03,D08,0,1,1
2898,-0.2,1644586225.59375,P03,D08,0,1,1
2899,-1.13,1644586225.609375,P03,D08,0,1,1
2900,-1.85,1644586225.625,P03,D08,0,1,1
2901,-2.14,1644586225.640625,P03,D08,0,1,1
2902,-1.98,1644586225.65625,P03,D08,0,1,1
2903,-1.58,1644586225.671875,P03,D08,0,1,1
2904,-1.21,1644586225.6875,P03,D08,0,1,1
2905,-1.09,1644586225.703125,P03,D08,0,1,1
2906,-1.24,1644586225.71875,P03,D08,0,1,1
2907,-1.57,1644586225.734375,P03,D08,0,1,1
2908,-1.92,1644586225.75,P03,D08,0,1,1
2909,-2.19,1644586225.765625,P03,D08,0,1,1
2910,-2.35,1644586225.78125,P03,D08,0,1,1
2911,-2.43,1644586225.796875,P03,D08,0,1,1
2912,-2.5,1644586225.8125,P03,D08,0,1,1
2913,-2.55,1644586225.828125,P03,D08,0,1,1
2914,-2.57,1644586225.84375,P03,D08,0,1,1
2915,-2.5,1644586225.859375,P03,D08,0,1,1
2916,-2.35,1644586225.875,P03,D08,0,1,1
2917,-2.12,1644586225.890625,P03,D08,0,1,1
2918,-1.86,1644586225.90625,P03,D08,0,1,1
2919,-1.6,1644586225.921875,P03,D08,0,1,1
2920,-1.35,1644586225.9375,P03,D08,0,1,1
2921,-1.14,1644586225.953125,P03,D08,0,1,1
