,data,timestamp,participant,document,val,arou,eng
0,2.5,1645175447.625,P13,D06,1,0,0
1,2.14,1645175447.640625,P13,D06,1,0,0
2,1.97,1645175447.65625,P13,D06,1,0,0
3,1.96,1645175447.671875,P13,D06,1,0,0
4,2.06,1645175447.6875,P13,D06,1,0,0
5,2.17,1645175447.703125,P13,D06,1,0,0
6,2.22,1645175447.71875,P13,D06,1,0,0
7,2.17,1645175447.734375,P13,D06,1,0,0
8,2.04,1645175447.75,P13,D06,1,0,0
9,1.88,1645175447.765625,P13,D06,1,0,0
10,1.79,1645175447.78125,P13,D06,1,0,0
11,1.8,1645175447.796875,P13,D06,1,0,0
12,1.92,1645175447.8125,P13,D06,1,0,0
13,2.08,1645175447.828125,P13,D06,1,0,0
14,2.15,1645175447.84375,P13,D06,1,0,0
15,2.04,1645175447.859375,P13,D06,1,0,0
16,1.67,1645175447.875,P13,D06,1,0,0
17,1.09,1645175447.890625,P13,D06,1,0,0
18,0.36,1645175447.90625,P13,D06,1,0,0
19,-0.37,1645175447.921875,P13,D06,1,0,0
20,-0.98,1645175447.9375,P13,D06,1,0,0
21,-1.41,1645175447.953125,P13,D06,1,0,0
22,-1.62,1645175447.96875,P13,D06,1,0,0
23,-1.64,1645175447.984375,P13,D06,1,0,0
24,-1.49,1645175448.0,P13,D06,1,0,0
25,-1.21,1645175448.015625,P13,D06,1,0,0
26,-0.82,1645175448.03125,P13,D06,1,0,0
27,-0.37,1645175448.046875,P13,D06,1,0,0
28,0.06,1645175448.0625,P13,D06,1,0,0
29,0.34,1645175448.078125,P13,D06,1,0,0
30,0.4,1645175448.09375,P13,D06,1,0,0
31,0.22,1645175448.109375,P13,D06,1,0,0
32,-0.1,1645175448.125,P13,D06,1,0,0
33,-0.37,1645175448.140625,P13,D06,1,0,0
34,-0.43,1645175448.15625,P13,D06,1,0,0
35,-0.18,1645175448.171875,P13,D06,1,0,0
36,0.28,1645175448.1875,P13,D06,1,0,0
37,0.79,1645175448.203125,P13,D06,1,0,0
38,1.16,1645175448.21875,P13,D06,1,0,0
39,1.31,1645175448.234375,P13,D06,1,0,0
40,1.26,1645175448.25,P13,D06,1,0,0
41,1.09,1645175448.265625,P13,D06,1,0,0
42,0.89,1645175448.28125,P13,D06,1,0,0
43,0.66,1645175448.296875,P13,D06,1,0,0
44,0.36,1645175448.3125,P13,D06,1,0,0
45,-0.01,1645175448.328125,P13,D06,1,0,0
46,-0.4,1645175448.34375,P13,D06,1,0,0
47,-0.72,1645175448.359375,P13,D06,1,0,0
48,-0.85,1645175448.375,P13,D06,1,0,0
49,-0.79,1645175448.390625,P13,D06,1,0,0
50,-0.6,1645175448.40625,P13,D06,1,0,0
51,-0.38,1645175448.421875,P13,D06,1,0,0
52,-0.22,1645175448.4375,P13,D06,1,0,0
53,-0.14,1645175448.453125,P13,D06,1,0,0
54,-0.1,1645175448.46875,P13,D06,1,0,0
55,-0.07,1645175448.484375,P13,D06,1,0,0
56,-0.03,1645175448.5,P13,D06,1,0,0
57,-0.02,1645175448.515625,P13,D06,1,0,0
58,-0.08,1645175448.53125,P13,D06,1,0,0
59,-0.21,1645175448.546875,P13,D06,1,0,0
60,-0.36,1645175448.5625,P13,D06,1,0,0
61,-0.44,1645175448.578125,P13,D06,1,0,0
62,-0.39,1645175448.59375,P13,D06,1,0,0
63,-0.23,1645175448.609375,P13,D06,1,0,0
64,0.02,1645175448.625,P13,D06,1,0,0
65,0.27,1645175448.640625,P13,D06,1,0,0
66,0.48,1645175448.65625,P13,D06,1,0,0
67,0.63,1645175448.671875,P13,D06,1,0,0
68,0.7,1645175448.6875,P13,D06,1,0,0
69,0.69,1645175448.703125,P13,D06,1,0,0
70,0.59,1645175448.71875,P13,D06,1,0,0
71,0.41,1645175448.734375,P13,D06,1,0,0
72,0.16,1645175448.75,P13,D06,1,0,0
73,-0.09,1645175448.765625,P13,D06,1,0,0
74,-0.32,1645175448.78125,P13,D06,1,0,0
75,-0.49,1645175448.796875,P13,D06,1,0,0
76,-0.59,1645175448.8125,P13,D06,1,0,0
77,-0.62,1645175448.828125,P13,D06,1,0,0
78,-0.57,1645175448.84375,P13,D06,1,0,0
79,-0.46,1645175448.859375,P13,D06,1,0,0
80,-0.29,1645175448.875,P13,D06,1,0,0
81,-0.1,1645175448.890625,P13,D06,1,0,0
82,0.08,1645175448.90625,P13,D06,1,0,0
83,0.23,1645175448.921875,P13,D06,1,0,0
84,0.34,1645175448.9375,P13,D06,1,0,0
85,0.45,1645175448.953125,P13,D06,1,0,0
86,0.58,1645175448.96875,P13,D06,1,0,0
87,0.73,1645175448.984375,P13,D06,1,0,0
88,0.87,1645175449.0,P13,D06,1,0,0
89,0.92,1645175449.015625,P13,D06,1,0,0
90,0.85,1645175449.03125,P13,D06,1,0,0
91,0.62,1645175449.046875,P13,D06,1,0,0
92,0.29,1645175449.0625,P13,D06,1,0,0
93,-0.08,1645175449.078125,P13,D06,1,0,0
94,-0.41,1645175449.09375,P13,D06,1,0,0
95,-0.64,1645175449.109375,P13,D06,1,0,0
96,-0.75,1645175449.125,P13,D06,1,0,0
97,-0.74,1645175449.140625,P13,D06,1,0,0
98,-0.65,1645175449.15625,P13,D06,1,0,0
99,-0.5,1645175449.171875,P13,D06,1,0,0
100,-0.34,1645175449.1875,P13,D06,1,0,0
101,-0.19,1645175449.203125,P13,D06,1,0,0
102,-0.04,1645175449.21875,P13,D06,1,0,0
103,0.09,1645175449.234375,P13,D06,1,0,0
104,0.2,1645175449.25,P13,D06,1,0,0
105,0.3,1645175449.265625,P13,D06,1,0,0
106,0.37,1645175449.28125,P13,D06,1,0,0
107,0.38,1645175449.296875,P13,D06,1,0,0
108,0.33,1645175449.3125,P13,D06,1,0,0
109,0.21,1645175449.328125,P13,D06,1,0,0
110,0.04,1645175449.34375,P13,D06,1,0,0
111,-0.12,1645175449.359375,P13,D06,1,0,0
112,-0.24,1645175449.375,P13,D06,1,0,0
113,-0.29,1645175449.390625,P13,D06,1,0,0
114,-0.28,1645175449.40625,P13,D06,1,0,0
115,-0.24,1645175449.421875,P13,D06,1,0,0
116,-0.23,1645175449.4375,P13,D06,1,0,0
117,-0.3,1645175449.453125,P13,D06,1,0,0
118,-0.43,1645175449.46875,P13,D06,1,0,0
119,-0.59,1645175449.484375,P13,D06,1,0,0
120,-0.71,1645175449.5,P13,D06,1,0,0
121,-0.73,1645175449.515625,P13,D06,1,0,0
122,-0.64,1645175449.53125,P13,D06,1,0,0
123,-0.48,1645175449.546875,P13,D06,1,0,0
124,-0.32,1645175449.5625,P13,D06,1,0,0
125,-0.21,1645175449.578125,P13,D06,1,0,0
126,-0.18,1645175449.59375,P13,D06,1,0,0
127,-0.21,1645175449.609375,P13,D06,1,0,0
128,-0.27,1645175449.625,P13,D06,1,0,0
129,-0.32,1645175449.640625,P13,D06,1,0,0
130,-0.37,1645175449.65625,P13,D06,1,0,0
131,-0.43,1645175449.671875,P13,D06,1,0,0
132,-0.54,1645175449.6875,P13,D06,1,0,0
133,-0.68,1645175449.703125,P13,D06,1,0,0
134,-0.83,1645175449.71875,P13,D06,1,0,0
135,-0.93,1645175449.734375,P13,D06,1,0,0
136,-0.9,1645175449.75,P13,D06,1,0,0
137,-0.7,1645175449.765625,P13,D06,1,0,0
138,-0.35,1645175449.78125,P13,D06,1,0,0
139,0.06,1645175449.796875,P13,D06,1,0,0
140,0.4,1645175449.8125,P13,D06,1,0,0
141,0.52,1645175449.828125,P13,D06,1,0,0
142,0.38,1645175449.84375,P13,D06,1,0,0
143,-0.0,1645175449.859375,P13,D06,1,0,0
144,-0.52,1645175449.875,P13,D06,1,0,0
145,-1.0,1645175449.890625,P13,D06,1,0,0
146,-1.3,1645175449.90625,P13,D06,1,0,0
147,-1.37,1645175449.921875,P13,D06,1,0,0
148,-1.23,1645175449.9375,P13,D06,1,0,0
149,-1.01,1645175449.953125,P13,D06,1,0,0
150,-0.91,1645175449.96875,P13,D06,1,0,0
151,-1.06,1645175449.984375,P13,D06,1,0,0
152,-1.55,1645175450.0,P13,D06,1,0,0
153,-2.28,1645175450.015625,P13,D06,1,0,0
154,-3.07,1645175450.03125,P13,D06,1,0,0
155,-3.67,1645175450.046875,P13,D06,1,0,0
156,-3.93,1645175450.0625,P13,D06,1,0,0
157,-3.92,1645175450.078125,P13,D06,1,0,0
158,-3.89,1645175450.09375,P13,D06,1,0,0
159,-4.15,1645175450.109375,P13,D06,1,0,0
160,-4.97,1645175450.125,P13,D06,1,0,0
161,-6.3,1645175450.140625,P13,D06,1,0,0
162,-7.84,1645175450.15625,P13,D06,1,0,0
163,-9.1,1645175450.171875,P13,D06,1,0,0
164,-9.69,1645175450.1875,P13,D06,1,0,0
165,-9.5,1645175450.203125,P13,D06,1,0,0
166,-8.86,1645175450.21875,P13,D06,1,0,0
167,-8.34,1645175450.234375,P13,D06,1,0,0
168,-8.54,1645175450.25,P13,D06,1,0,0
169,-9.78,1645175450.265625,P13,D06,1,0,0
170,-11.9,1645175450.28125,P13,D06,1,0,0
171,-14.34,1645175450.296875,P13,D06,1,0,0
172,-16.38,1645175450.3125,P13,D06,1,0,0
173,-17.5,1645175450.328125,P13,D06,1,0,0
174,-17.55,1645175450.34375,P13,D06,1,0,0
175,-16.87,1645175450.359375,P13,D06,1,0,0
176,-16.05,1645175450.375,P13,D06,1,0,0
177,-15.69,1645175450.390625,P13,D06,1,0,0
178,-16.23,1645175450.40625,P13,D06,1,0,0
179,-17.97,1645175450.421875,P13,D06,1,0,0
180,-21.07,1645175450.4375,P13,D06,1,0,0
181,-25.44,1645175450.453125,P13,D06,1,0,0
182,-30.4,1645175450.46875,P13,D06,1,0,0
183,-34.35,1645175450.484375,P13,D06,1,0,0
184,-34.94,1645175450.5,P13,D06,1,0,0
185,-29.87,1645175450.515625,P13,D06,1,0,0
186,-18.04,1645175450.53125,P13,D06,1,0,0
187,-0.51,1645175450.546875,P13,D06,1,0,0
188,19.57,1645175450.5625,P13,D06,1,0,0
189,38.08,1645175450.578125,P13,D06,1,0,0
190,51.59,1645175450.59375,P13,D06,1,0,0
191,58.76,1645175450.609375,P13,D06,1,0,0
192,60.45,1645175450.625,P13,D06,1,0,0
193,58.81,1645175450.640625,P13,D06,1,0,0
194,55.71,1645175450.65625,P13,D06,1,0,0
195,51.84,1645175450.671875,P13,D06,1,0,0
196,46.66,1645175450.6875,P13,D06,1,0,0
197,39.37,1645175450.703125,P13,D06,1,0,0
198,29.94,1645175450.71875,P13,D06,1,0,0
199,19.41,1645175450.734375,P13,D06,1,0,0
200,9.49,1645175450.75,P13,D06,1,0,0
201,1.59,1645175450.765625,P13,D06,1,0,0
202,-3.88,1645175450.78125,P13,D06,1,0,0
203,-7.54,1645175450.796875,P13,D06,1,0,0
204,-10.46,1645175450.8125,P13,D06,1,0,0
205,-13.55,1645175450.828125,P13,D06,1,0,0
206,-17.06,1645175450.84375,P13,D06,1,0,0
207,-20.6,1645175450.859375,P13,D06,1,0,0
208,-23.59,1645175450.875,P13,D06,1,0,0
209,-25.65,1645175450.890625,P13,D06,1,0,0
210,-26.85,1645175450.90625,P13,D06,1,0,0
211,-27.64,1645175450.921875,P13,D06,1,0,0
212,-28.6,1645175450.9375,P13,D06,1,0,0
213,-30.08,1645175450.953125,P13,D06,1,0,0
214,-31.99,1645175450.96875,P13,D06,1,0,0
215,-33.77,1645175450.984375,P13,D06,1,0,0
216,-34.57,1645175451.0,P13,D06,1,0,0
217,-33.71,1645175451.015625,P13,D06,1,0,0
218,-31.05,1645175451.03125,P13,D06,1,0,0
219,-27.17,1645175451.046875,P13,D06,1,0,0
220,-23.16,1645175451.0625,P13,D06,1,0,0
221,-20.03,1645175451.078125,P13,D06,1,0,0
222,-18.17,1645175451.09375,P13,D06,1,0,0
223,-16.99,1645175451.109375,P13,D06,1,0,0
224,-15.26,1645175451.125,P13,D06,1,0,0
225,-11.77,1645175451.140625,P13,D06,1,0,0
226,-6.08,1645175451.15625,P13,D06,1,0,0
227,1.21,1645175451.171875,P13,D06,1,0,0
228,8.72,1645175451.1875,P13,D06,1,0,0
229,15.01,1645175451.203125,P13,D06,1,0,0
230,19.3,1645175451.21875,P13,D06,1,0,0
231,21.67,1645175451.234375,P13,D06,1,0,0
232,22.79,1645175451.25,P13,D06,1,0,0
233,23.4,1645175451.265625,P13,D06,1,0,0
234,23.8,1645175451.28125,P13,D06,1,0,0
235,23.86,1645175451.296875,P13,D06,1,0,0
236,23.24,1645175451.3125,P13,D06,1,0,0
237,21.82,1645175451.328125,P13,D06,1,0,0
238,19.85,1645175451.34375,P13,D06,1,0,0
239,17.88,1645175451.359375,P13,D06,1,0,0
240,16.42,1645175451.375,P13,D06,1,0,0
241,15.7,1645175451.390625,P13,D06,1,0,0
242,15.56,1645175451.40625,P13,D06,1,0,0
243,15.59,1645175451.421875,P13,D06,1,0,0
244,15.37,1645175451.4375,P13,D06,1,0,0
245,14.66,1645175451.453125,P13,D06,1,0,0
246,13.45,1645175451.46875,P13,D06,1,0,0
247,11.95,1645175451.484375,P13,D06,1,0,0
248,10.45,1645175451.5,P13,D06,1,0,0
249,9.19,1645175451.515625,P13,D06,1,0,0
250,8.31,1645175451.53125,P13,D06,1,0,0
251,7.79,1645175451.546875,P13,D06,1,0,0
252,7.47,1645175451.5625,P13,D06,1,0,0
253,7.14,1645175451.578125,P13,D06,1,0,0
254,6.58,1645175451.59375,P13,D06,1,0,0
255,5.68,1645175451.609375,P13,D06,1,0,0
256,4.42,1645175451.625,P13,D06,1,0,0
257,2.97,1645175451.640625,P13,D06,1,0,0
258,1.55,1645175451.65625,P13,D06,1,0,0
259,0.4,1645175451.671875,P13,D06,1,0,0
260,-0.28,1645175451.6875,P13,D06,1,0,0
261,-0.42,1645175451.703125,P13,D06,1,0,0
262,-0.04,1645175451.71875,P13,D06,1,0,0
263,0.62,1645175451.734375,P13,D06,1,0,0
264,1.2,1645175451.75,P13,D06,1,0,0
265,1.17,1645175451.765625,P13,D06,1,0,0
266,0.11,1645175451.78125,P13,D06,1,0,0
267,-2.18,1645175451.796875,P13,D06,1,0,0
268,-5.45,1645175451.8125,P13,D06,1,0,0
269,-9.04,1645175451.828125,P13,D06,1,0,0
270,-12.06,1645175451.84375,P13,D06,1,0,0
271,-13.81,1645175451.859375,P13,D06,1,0,0
272,-14.05,1645175451.875,P13,D06,1,0,0
273,-13.2,1645175451.890625,P13,D06,1,0,0
274,-12.15,1645175451.90625,P13,D06,1,0,0
275,-11.93,1645175451.921875,P13,D06,1,0,0
276,-13.26,1645175451.9375,P13,D06,1,0,0
277,-16.24,1645175451.953125,P13,D06,1,0,0
278,-20.36,1645175451.96875,P13,D06,1,0,0
279,-24.68,1645175451.984375,P13,D06,1,0,0
280,-28.23,1645175452.0,P13,D06,1,0,0
281,-30.44,1645175452.015625,P13,D06,1,0,0
282,-31.33,1645175452.03125,P13,D06,1,0,0
283,-31.44,1645175452.046875,P13,D06,1,0,0
284,-31.72,1645175452.0625,P13,D06,1,0,0
285,-33.09,1645175452.078125,P13,D06,1,0,0
286,-36.16,1645175452.09375,P13,D06,1,0,0
287,-40.89,1645175452.109375,P13,D06,1,0,0
288,-46.36,1645175452.125,P13,D06,1,0,0
289,-50.74,1645175452.140625,P13,D06,1,0,0
290,-51.6,1645175452.15625,P13,D06,1,0,0
291,-46.72,1645175452.171875,P13,D06,1,0,0
292,-34.99,1645175452.1875,P13,D06,1,0,0
293,-17.12,1645175452.203125,P13,D06,1,0,0
294,4.35,1645175452.21875,P13,D06,1,0,0
295,25.86,1645175452.234375,P13,D06,1,0,0
296,44.18,1645175452.25,P13,D06,1,0,0
297,57.56,1645175452.265625,P13,D06,1,0,0
298,66.17,1645175452.28125,P13,D06,1,0,0
299,71.55,1645175452.296875,P13,D06,1,0,0
300,75.48,1645175452.3125,P13,D06,1,0,0
301,78.96,1645175452.328125,P13,D06,1,0,0
302,81.89,1645175452.34375,P13,D06,1,0,0
303,83.53,1645175452.359375,P13,D06,1,0,0
304,83.35,1645175452.375,P13,D06,1,0,0
305,81.68,1645175452.390625,P13,D06,1,0,0
306,79.67,1645175452.40625,P13,D06,1,0,0
307,78.74,1645175452.421875,P13,D06,1,0,0
308,79.8,1645175452.4375,P13,D06,1,0,0
309,82.92,1645175452.453125,P13,D06,1,0,0
310,87.33,1645175452.46875,P13,D06,1,0,0
311,91.78,1645175452.484375,P13,D06,1,0,0
312,94.82,1645175452.5,P13,D06,1,0,0
313,94.84,1645175452.515625,P13,D06,1,0,0
314,90.1,1645175452.53125,P13,D06,1,0,0
315,79.08,1645175452.546875,P13,D06,1,0,0
316,61.13,1645175452.5625,P13,D06,1,0,0
317,37.17,1645175452.578125,P13,D06,1,0,0
318,9.97,1645175452.59375,P13,D06,1,0,0
319,-16.38,1645175452.609375,P13,D06,1,0,0
320,-37.84,1645175452.625,P13,D06,1,0,0
321,-51.78,1645175452.640625,P13,D06,1,0,0
322,-57.85,1645175452.65625,P13,D06,1,0,0
323,-57.72,1645175452.671875,P13,D06,1,0,0
324,-54.06,1645175452.6875,P13,D06,1,0,0
325,-49.23,1645175452.703125,P13,D06,1,0,0
326,-44.6,1645175452.71875,P13,D06,1,0,0
327,-40.49,1645175452.734375,P13,D06,1,0,0
328,-36.82,1645175452.75,P13,D06,1,0,0
329,-33.62,1645175452.765625,P13,D06,1,0,0
330,-31.26,1645175452.78125,P13,D06,1,0,0
331,-30.12,1645175452.796875,P13,D06,1,0,0
332,-30.23,1645175452.8125,P13,D06,1,0,0
333,-31.06,1645175452.828125,P13,D06,1,0,0
334,-31.69,1645175452.84375,P13,D06,1,0,0
335,-31.23,1645175452.859375,P13,D06,1,0,0
336,-29.22,1645175452.875,P13,D06,1,0,0
337,-25.84,1645175452.890625,P13,D06,1,0,0
338,-21.88,1645175452.90625,P13,D06,1,0,0
339,-18.34,1645175452.921875,P13,D06,1,0,0
340,-16.04,1645175452.9375,P13,D06,1,0,0
341,-15.27,1645175452.953125,P13,D06,1,0,0
342,-15.71,1645175452.96875,P13,D06,1,0,0
343,-16.55,1645175452.984375,P13,D06,1,0,0
344,-16.92,1645175453.0,P13,D06,1,0,0
345,-16.24,1645175453.015625,P13,D06,1,0,0
346,-14.47,1645175453.03125,P13,D06,1,0,0
347,-12.1,1645175453.046875,P13,D06,1,0,0
348,-9.8,1645175453.0625,P13,D06,1,0,0
349,-8.13,1645175453.078125,P13,D06,1,0,0
350,-7.27,1645175453.09375,P13,D06,1,0,0
351,-6.99,1645175453.109375,P13,D06,1,0,0
352,-6.83,1645175453.125,P13,D06,1,0,0
353,-6.38,1645175453.140625,P13,D06,1,0,0
354,-5.45,1645175453.15625,P13,D06,1,0,0
355,-4.19,1645175453.171875,P13,D06,1,0,0
356,-2.91,1645175453.1875,P13,D06,1,0,0
357,-1.95,1645175453.203125,P13,D06,1,0,0
358,-1.47,1645175453.21875,P13,D06,1,0,0
359,-1.47,1645175453.234375,P13,D06,1,0,0
360,-1.76,1645175453.25,P13,D06,1,0,0
361,-2.1,1645175453.265625,P13,D06,1,0,0
362,-2.28,1645175453.28125,P13,D06,1,0,0
363,-2.21,1645175453.296875,P13,D06,1,0,0
364,-1.92,1645175453.3125,P13,D06,1,0,0
365,-1.5,1645175453.328125,P13,D06,1,0,0
366,-1.11,1645175453.34375,P13,D06,1,0,0
367,-0.82,1645175453.359375,P13,D06,1,0,0
368,-0.68,1645175453.375,P13,D06,1,0,0
369,-0.63,1645175453.390625,P13,D06,1,0,0
370,-0.58,1645175453.40625,P13,D06,1,0,0
371,-0.47,1645175453.421875,P13,D06,1,0,0
372,-0.21,1645175453.4375,P13,D06,1,0,0
373,0.2,1645175453.453125,P13,D06,1,0,0
374,0.72,1645175453.46875,P13,D06,1,0,0
375,1.26,1645175453.484375,P13,D06,1,0,0
376,1.69,1645175453.5,P13,D06,1,0,0
377,1.91,1645175453.515625,P13,D06,1,0,0
378,1.86,1645175453.53125,P13,D06,1,0,0
379,1.59,1645175453.546875,P13,D06,1,0,0
380,1.24,1645175453.5625,P13,D06,1,0,0
381,0.96,1645175453.578125,P13,D06,1,0,0
382,0.87,1645175453.59375,P13,D06,1,0,0
383,0.97,1645175453.609375,P13,D06,1,0,0
384,1.18,1645175453.625,P13,D06,1,0,0
385,1.36,1645175453.640625,P13,D06,1,0,0
386,1.38,1645175453.65625,P13,D06,1,0,0
387,1.25,1645175453.671875,P13,D06,1,0,0
388,1.03,1645175453.6875,P13,D06,1,0,0
389,0.83,1645175453.703125,P13,D06,1,0,0
390,0.73,1645175453.71875,P13,D06,1,0,0
391,0.75,1645175453.734375,P13,D06,1,0,0
392,0.81,1645175453.75,P13,D06,1,0,0
393,0.82,1645175453.765625,P13,D06,1,0,0
394,0.74,1645175453.78125,P13,D06,1,0,0
395,0.56,1645175453.796875,P13,D06,1,0,0
396,0.32,1645175453.8125,P13,D06,1,0,0
397,0.08,1645175453.828125,P13,D06,1,0,0
398,-0.1,1645175453.84375,P13,D06,1,0,0
399,-0.23,1645175453.859375,P13,D06,1,0,0
400,-0.32,1645175453.875,P13,D06,1,0,0
401,-0.41,1645175453.890625,P13,D06,1,0,0
402,-0.52,1645175453.90625,P13,D06,1,0,0
403,-0.64,1645175453.921875,P13,D06,1,0,0
404,-0.77,1645175453.9375,P13,D06,1,0,0
405,-0.88,1645175453.953125,P13,D06,1,0,0
406,-0.98,1645175453.96875,P13,D06,1,0,0
407,-1.09,1645175453.984375,P13,D06,1,0,0
408,-1.24,1645175454.0,P13,D06,1,0,0
409,-1.45,1645175454.015625,P13,D06,1,0,0
410,-1.67,1645175454.03125,P13,D06,1,0,0
411,-1.86,1645175454.046875,P13,D06,1,0,0
412,-1.97,1645175454.0625,P13,D06,1,0,0
413,-1.99,1645175454.078125,P13,D06,1,0,0
414,-1.95,1645175454.09375,P13,D06,1,0,0
415,-1.9,1645175454.109375,P13,D06,1,0,0
416,-1.88,1645175454.125,P13,D06,1,0,0
417,-1.89,1645175454.140625,P13,D06,1,0,0
418,-1.95,1645175454.15625,P13,D06,1,0,0
419,-2.1,1645175454.171875,P13,D06,1,0,0
420,-2.39,1645175454.1875,P13,D06,1,0,0
421,-2.85,1645175454.203125,P13,D06,1,0,0
422,-3.49,1645175454.21875,P13,D06,1,0,0
423,-4.27,1645175454.234375,P13,D06,1,0,0
424,-5.08,1645175454.25,P13,D06,1,0,0
425,-5.83,1645175454.265625,P13,D06,1,0,0
426,-6.43,1645175454.28125,P13,D06,1,0,0
427,-6.84,1645175454.296875,P13,D06,1,0,0
428,-7.11,1645175454.3125,P13,D06,1,0,0
429,-7.29,1645175454.328125,P13,D06,1,0,0
430,-7.46,1645175454.34375,P13,D06,1,0,0
431,-7.65,1645175454.359375,P13,D06,1,0,0
432,-7.9,1645175454.375,P13,D06,1,0,0
433,-8.2,1645175454.390625,P13,D06,1,0,0
434,-8.56,1645175454.40625,P13,D06,1,0,0
435,-8.93,1645175454.421875,P13,D06,1,0,0
436,-9.31,1645175454.4375,P13,D06,1,0,0
437,-9.65,1645175454.453125,P13,D06,1,0,0
438,-9.97,1645175454.46875,P13,D06,1,0,0
439,-10.29,1645175454.484375,P13,D06,1,0,0
440,-10.67,1645175454.5,P13,D06,1,0,0
441,-11.15,1645175454.515625,P13,D06,1,0,0
442,-11.72,1645175454.53125,P13,D06,1,0,0
443,-12.3,1645175454.546875,P13,D06,1,0,0
444,-12.73,1645175454.5625,P13,D06,1,0,0
445,-12.81,1645175454.578125,P13,D06,1,0,0
446,-12.41,1645175454.59375,P13,D06,1,0,0
447,-11.56,1645175454.609375,P13,D06,1,0,0
448,-10.53,1645175454.625,P13,D06,1,0,0
449,-9.68,1645175454.640625,P13,D06,1,0,0
450,-9.38,1645175454.65625,P13,D06,1,0,0
451,-9.75,1645175454.671875,P13,D06,1,0,0
452,-10.53,1645175454.6875,P13,D06,1,0,0
453,-11.13,1645175454.703125,P13,D06,1,0,0
454,-10.84,1645175454.71875,P13,D06,1,0,0
455,-9.03,1645175454.734375,P13,D06,1,0,0
456,-5.24,1645175454.75,P13,D06,1,0,0
457,0.9,1645175454.765625,P13,D06,1,0,0
458,9.76,1645175454.78125,P13,D06,1,0,0
459,21.73,1645175454.796875,P13,D06,1,0,0
460,37.0,1645175454.8125,P13,D06,1,0,0
461,55.22,1645175454.828125,P13,D06,1,0,0
462,75.29,1645175454.84375,P13,D06,1,0,0
463,95.45,1645175454.859375,P13,D06,1,0,0
464,113.68,1645175454.875,P13,D06,1,0,0
465,128.33,1645175454.890625,P13,D06,1,0,0
466,138.71,1645175454.90625,P13,D06,1,0,0
467,145.27,1645175454.921875,P13,D06,1,0,0
468,149.33,1645175454.9375,P13,D06,1,0,0
469,152.59,1645175454.953125,P13,D06,1,0,0
470,156.39,1645175454.96875,P13,D06,1,0,0
471,161.34,1645175454.984375,P13,D06,1,0,0
472,167.25,1645175455.0,P13,D06,1,0,0
473,173.25,1645175455.015625,P13,D06,1,0,0
474,178.08,1645175455.03125,P13,D06,1,0,0
475,180.18,1645175455.046875,P13,D06,1,0,0
476,177.95,1645175455.0625,P13,D06,1,0,0
477,170.22,1645175455.078125,P13,D06,1,0,0
478,156.88,1645175455.09375,P13,D06,1,0,0
479,139.43,1645175455.109375,P13,D06,1,0,0
480,121.01,1645175455.125,P13,D06,1,0,0
481,105.61,1645175455.140625,P13,D06,1,0,0
482,96.4,1645175455.15625,P13,D06,1,0,0
483,94.11,1645175455.171875,P13,D06,1,0,0
484,96.19,1645175455.1875,P13,D06,1,0,0
485,97.36,1645175455.203125,P13,D06,1,0,0
486,91.41,1645175455.21875,P13,D06,1,0,0
487,73.51,1645175455.234375,P13,D06,1,0,0
488,42.0,1645175455.25,P13,D06,1,0,0
489,-1.0,1645175455.265625,P13,D06,1,0,0
490,-50.33,1645175455.28125,P13,D06,1,0,0
491,-99.41,1645175455.296875,P13,D06,1,0,0
492,-142.06,1645175455.3125,P13,D06,1,0,0
493,-173.86,1645175455.328125,P13,D06,1,0,0
494,-192.9,1645175455.34375,P13,D06,1,0,0
495,-199.77,1645175455.359375,P13,D06,1,0,0
496,-196.91,1645175455.375,P13,D06,1,0,0
497,-187.66,1645175455.390625,P13,D06,1,0,0
498,-175.22,1645175455.40625,P13,D06,1,0,0
499,-162.04,1645175455.421875,P13,D06,1,0,0
500,-149.62,1645175455.4375,P13,D06,1,0,0
501,-138.68,1645175455.453125,P13,D06,1,0,0
502,-129.55,1645175455.46875,P13,D06,1,0,0
503,-122.28,1645175455.484375,P13,D06,1,0,0
504,-116.59,1645175455.5,P13,D06,1,0,0
505,-111.79,1645175455.515625,P13,D06,1,0,0
506,-106.81,1645175455.53125,P13,D06,1,0,0
507,-100.61,1645175455.546875,P13,D06,1,0,0
508,-92.69,1645175455.5625,P13,D06,1,0,0
509,-83.35,1645175455.578125,P13,D06,1,0,0
510,-73.64,1645175455.59375,P13,D06,1,0,0
511,-64.94,1645175455.609375,P13,D06,1,0,0
512,-58.32,1645175455.625,P13,D06,1,0,0
513,-54.07,1645175455.640625,P13,D06,1,0,0
514,-51.59,1645175455.65625,P13,D06,1,0,0
515,-49.73,1645175455.671875,P13,D06,1,0,0
516,-47.32,1645175455.6875,P13,D06,1,0,0
517,-43.68,1645175455.703125,P13,D06,1,0,0
518,-38.87,1645175455.71875,P13,D06,1,0,0
519,-33.55,1645175455.734375,P13,D06,1,0,0
520,-28.61,1645175455.75,P13,D06,1,0,0
521,-24.75,1645175455.765625,P13,D06,1,0,0
522,-22.19,1645175455.78125,P13,D06,1,0,0
523,-20.63,1645175455.796875,P13,D06,1,0,0
524,-19.46,1645175455.8125,P13,D06,1,0,0
525,-18.09,1645175455.828125,P13,D06,1,0,0
526,-16.19,1645175455.84375,P13,D06,1,0,0
527,-13.82,1645175455.859375,P13,D06,1,0,0
528,-11.3,1645175455.875,P13,D06,1,0,0
529,-9.04,1645175455.890625,P13,D06,1,0,0
530,-7.33,1645175455.90625,P13,D06,1,0,0
531,-6.21,1645175455.921875,P13,D06,1,0,0
532,-5.51,1645175455.9375,P13,D06,1,0,0
533,-4.96,1645175455.953125,P13,D06,1,0,0
534,-4.35,1645175455.96875,P13,D06,1,0,0
535,-3.62,1645175455.984375,P13,D06,1,0,0
536,-2.89,1645175456.0,P13,D06,1,0,0
537,-2.34,1645175456.015625,P13,D06,1,0,0
538,-2.1,1645175456.03125,P13,D06,1,0,0
539,-2.13,1645175456.046875,P13,D06,1,0,0
540,-2.31,1645175456.0625,P13,D06,1,0,0
541,-2.47,1645175456.078125,P13,D06,1,0,0
542,-2.52,1645175456.09375,P13,D06,1,0,0
543,-2.47,1645175456.109375,P13,D06,1,0,0
544,-2.4,1645175456.125,P13,D06,1,0,0
545,-2.38,1645175456.140625,P13,D06,1,0,0
546,-2.39,1645175456.15625,P13,D06,1,0,0
547,-2.38,1645175456.171875,P13,D06,1,0,0
548,-2.28,1645175456.1875,P13,D06,1,0,0
549,-2.04,1645175456.203125,P13,D06,1,0,0
550,-1.64,1645175456.21875,P13,D06,1,0,0
551,-1.11,1645175456.234375,P13,D06,1,0,0
552,-0.49,1645175456.25,P13,D06,1,0,0
553,0.17,1645175456.265625,P13,D06,1,0,0
554,0.77,1645175456.28125,P13,D06,1,0,0
555,1.21,1645175456.296875,P13,D06,1,0,0
556,1.41,1645175456.3125,P13,D06,1,0,0
557,1.41,1645175456.328125,P13,D06,1,0,0
558,1.35,1645175456.34375,P13,D06,1,0,0
559,1.42,1645175456.359375,P13,D06,1,0,0
560,1.72,1645175456.375,P13,D06,1,0,0
561,2.24,1645175456.390625,P13,D06,1,0,0
562,2.81,1645175456.40625,P13,D06,1,0,0
563,3.24,1645175456.421875,P13,D06,1,0,0
564,3.46,1645175456.4375,P13,D06,1,0,0
565,3.48,1645175456.453125,P13,D06,1,0,0
566,3.45,1645175456.46875,P13,D06,1,0,0
567,3.5,1645175456.484375,P13,D06,1,0,0
568,3.65,1645175456.5,P13,D06,1,0,0
569,3.87,1645175456.515625,P13,D06,1,0,0
570,4.06,1645175456.53125,P13,D06,1,0,0
571,4.17,1645175456.546875,P13,D06,1,0,0
572,4.24,1645175456.5625,P13,D06,1,0,0
573,4.33,1645175456.578125,P13,D06,1,0,0
574,4.47,1645175456.59375,P13,D06,1,0,0
575,4.71,1645175456.609375,P13,D06,1,0,0
576,5.02,1645175456.625,P13,D06,1,0,0
577,5.38,1645175456.640625,P13,D06,1,0,0
578,5.72,1645175456.65625,P13,D06,1,0,0
579,5.94,1645175456.671875,P13,D06,1,0,0
580,5.89,1645175456.6875,P13,D06,1,0,0
581,5.44,1645175456.703125,P13,D06,1,0,0
582,4.49,1645175456.71875,P13,D06,1,0,0
583,3.14,1645175456.734375,P13,D06,1,0,0
584,1.61,1645175456.75,P13,D06,1,0,0
585,0.23,1645175456.765625,P13,D06,1,0,0
586,-0.76,1645175456.78125,P13,D06,1,0,0
587,-1.26,1645175456.796875,P13,D06,1,0,0
588,-1.44,1645175456.8125,P13,D06,1,0,0
589,-1.54,1645175456.828125,P13,D06,1,0,0
590,-1.81,1645175456.84375,P13,D06,1,0,0
591,-2.32,1645175456.859375,P13,D06,1,0,0
592,-2.97,1645175456.875,P13,D06,1,0,0
593,-3.56,1645175456.890625,P13,D06,1,0,0
594,-3.89,1645175456.90625,P13,D06,1,0,0
595,-3.9,1645175456.921875,P13,D06,1,0,0
596,-3.69,1645175456.9375,P13,D06,1,0,0
597,-3.43,1645175456.953125,P13,D06,1,0,0
598,-3.27,1645175456.96875,P13,D06,1,0,0
599,-3.26,1645175456.984375,P13,D06,1,0,0
600,-3.32,1645175457.0,P13,D06,1,0,0
601,-3.34,1645175457.015625,P13,D06,1,0,0
602,-3.21,1645175457.03125,P13,D06,1,0,0
603,-2.93,1645175457.046875,P13,D06,1,0,0
604,-2.52,1645175457.0625,P13,D06,1,0,0
605,-2.06,1645175457.078125,P13,D06,1,0,0
606,-1.62,1645175457.09375,P13,D06,1,0,0
607,-1.24,1645175457.109375,P13,D06,1,0,0
608,-0.94,1645175457.125,P13,D06,1,0,0
609,-0.75,1645175457.140625,P13,D06,1,0,0
610,-0.66,1645175457.15625,P13,D06,1,0,0
611,-0.66,1645175457.171875,P13,D06,1,0,0
612,-0.68,1645175457.1875,P13,D06,1,0,0
613,-0.61,1645175457.203125,P13,D06,1,0,0
614,-0.38,1645175457.21875,P13,D06,1,0,0
615,0.03,1645175457.234375,P13,D06,1,0,0
616,0.54,1645175457.25,P13,D06,1,0,0
617,1.0,1645175457.265625,P13,D06,1,0,0
618,1.28,1645175457.28125,P13,D06,1,0,0
619,1.31,1645175457.296875,P13,D06,1,0,0
620,1.12,1645175457.3125,P13,D06,1,0,0
621,0.79,1645175457.328125,P13,D06,1,0,0
622,0.42,1645175457.34375,P13,D06,1,0,0
623,0.07,1645175457.359375,P13,D06,1,0,0
624,-0.21,1645175457.375,P13,D06,1,0,0
625,-0.4,1645175457.390625,P13,D06,1,0,0
626,-0.46,1645175457.40625,P13,D06,1,0,0
627,-0.37,1645175457.421875,P13,D06,1,0,0
628,-0.11,1645175457.4375,P13,D06,1,0,0
629,0.29,1645175457.453125,P13,D06,1,0,0
630,0.78,1645175457.46875,P13,D06,1,0,0
631,1.3,1645175457.484375,P13,D06,1,0,0
632,1.76,1645175457.5,P13,D06,1,0,0
633,2.11,1645175457.515625,P13,D06,1,0,0
634,2.28,1645175457.53125,P13,D06,1,0,0
635,2.26,1645175457.546875,P13,D06,1,0,0
636,2.07,1645175457.5625,P13,D06,1,0,0
637,1.77,1645175457.578125,P13,D06,1,0,0
638,1.44,1645175457.59375,P13,D06,1,0,0
639,1.14,1645175457.609375,P13,D06,1,0,0
640,0.88,1645175457.625,P13,D06,1,0,0
641,0.66,1645175457.640625,P13,D06,1,0,0
642,0.42,1645175457.65625,P13,D06,1,0,0
643,0.11,1645175457.671875,P13,D06,1,0,0
644,-0.26,1645175457.6875,P13,D06,1,0,0
645,-0.69,1645175457.703125,P13,D06,1,0,0
646,-1.15,1645175457.71875,P13,D06,1,0,0
647,-1.61,1645175457.734375,P13,D06,1,0,0
648,-2.06,1645175457.75,P13,D06,1,0,0
649,-2.52,1645175457.765625,P13,D06,1,0,0
650,-3.02,1645175457.78125,P13,D06,1,0,0
651,-3.57,1645175457.796875,P13,D06,1,0,0
652,-4.16,1645175457.8125,P13,D06,1,0,0
653,-4.75,1645175457.828125,P13,D06,1,0,0
654,-5.25,1645175457.84375,P13,D06,1,0,0
655,-5.63,1645175457.859375,P13,D06,1,0,0
656,-5.86,1645175457.875,P13,D06,1,0,0
657,-5.96,1645175457.890625,P13,D06,1,0,0
658,-5.97,1645175457.90625,P13,D06,1,0,0
659,-5.87,1645175457.921875,P13,D06,1,0,0
660,-5.62,1645175457.9375,P13,D06,1,0,0
661,-5.15,1645175457.953125,P13,D06,1,0,0
662,-4.46,1645175457.96875,P13,D06,1,0,0
663,-3.6,1645175457.984375,P13,D06,1,0,0
664,-2.68,1645175458.0,P13,D06,1,0,0
665,-1.75,1645175458.015625,P13,D06,1,0,0
666,-0.81,1645175458.03125,P13,D06,1,0,0
667,0.22,1645175458.046875,P13,D06,1,0,0
668,1.43,1645175458.0625,P13,D06,1,0,0
669,2.82,1645175458.078125,P13,D06,1,0,0
670,4.29,1645175458.09375,P13,D06,1,0,0
671,5.61,1645175458.109375,P13,D06,1,0,0
672,6.59,1645175458.125,P13,D06,1,0,0
673,7.05,1645175458.140625,P13,D06,1,0,0
674,6.9,1645175458.15625,P13,D06,1,0,0
675,6.12,1645175458.171875,P13,D06,1,0,0
676,4.74,1645175458.1875,P13,D06,1,0,0
677,2.78,1645175458.203125,P13,D06,1,0,0
678,0.32,1645175458.21875,P13,D06,1,0,0
679,-2.49,1645175458.234375,P13,D06,1,0,0
680,-5.38,1645175458.25,P13,D06,1,0,0
681,-8.0,1645175458.265625,P13,D06,1,0,0
682,-9.99,1645175458.28125,P13,D06,1,0,0
683,-11.11,1645175458.296875,P13,D06,1,0,0
684,-11.35,1645175458.3125,P13,D06,1,0,0
685,-10.95,1645175458.328125,P13,D06,1,0,0
686,-10.33,1645175458.34375,P13,D06,1,0,0
687,-9.9,1645175458.359375,P13,D06,1,0,0
688,-9.9,1645175458.375,P13,D06,1,0,0
689,-10.35,1645175458.390625,P13,D06,1,0,0
690,-11.07,1645175458.40625,P13,D06,1,0,0
691,-11.83,1645175458.421875,P13,D06,1,0,0
692,-12.42,1645175458.4375,P13,D06,1,0,0
693,-12.65,1645175458.453125,P13,D06,1,0,0
694,-12.36,1645175458.46875,P13,D06,1,0,0
695,-11.36,1645175458.484375,P13,D06,1,0,0
696,-9.51,1645175458.5,P13,D06,1,0,0
697,-6.78,1645175458.515625,P13,D06,1,0,0
698,-3.33,1645175458.53125,P13,D06,1,0,0
699,0.49,1645175458.546875,P13,D06,1,0,0
700,4.27,1645175458.5625,P13,D06,1,0,0
701,7.66,1645175458.578125,P13,D06,1,0,0
702,10.46,1645175458.59375,P13,D06,1,0,0
703,12.57,1645175458.609375,P13,D06,1,0,0
704,13.98,1645175458.625,P13,D06,1,0,0
705,14.69,1645175458.640625,P13,D06,1,0,0
706,14.7,1645175458.65625,P13,D06,1,0,0
707,14.08,1645175458.671875,P13,D06,1,0,0
708,12.96,1645175458.6875,P13,D06,1,0,0
709,11.52,1645175458.703125,P13,D06,1,0,0
710,9.93,1645175458.71875,P13,D06,1,0,0
711,8.29,1645175458.734375,P13,D06,1,0,0
712,6.61,1645175458.75,P13,D06,1,0,0
713,4.86,1645175458.765625,P13,D06,1,0,0
714,3.01,1645175458.78125,P13,D06,1,0,0
715,1.11,1645175458.796875,P13,D06,1,0,0
716,-0.69,1645175458.8125,P13,D06,1,0,0
717,-2.16,1645175458.828125,P13,D06,1,0,0
718,-3.02,1645175458.84375,P13,D06,1,0,0
719,-3.05,1645175458.859375,P13,D06,1,0,0
720,-2.17,1645175458.875,P13,D06,1,0,0
721,-0.54,1645175458.890625,P13,D06,1,0,0
722,1.45,1645175458.90625,P13,D06,1,0,0
723,3.27,1645175458.921875,P13,D06,1,0,0
724,4.44,1645175458.9375,P13,D06,1,0,0
725,4.71,1645175458.953125,P13,D06,1,0,0
726,4.12,1645175458.96875,P13,D06,1,0,0
727,2.95,1645175458.984375,P13,D06,1,0,0
728,1.63,1645175459.0,P13,D06,1,0,0
729,0.57,1645175459.015625,P13,D06,1,0,0
730,0.01,1645175459.03125,P13,D06,1,0,0
731,-0.02,1645175459.046875,P13,D06,1,0,0
732,0.31,1645175459.0625,P13,D06,1,0,0
733,0.7,1645175459.078125,P13,D06,1,0,0
734,0.87,1645175459.09375,P13,D06,1,0,0
735,0.68,1645175459.109375,P13,D06,1,0,0
736,0.17,1645175459.125,P13,D06,1,0,0
737,-0.39,1645175459.140625,P13,D06,1,0,0
738,-0.73,1645175459.15625,P13,D06,1,0,0
739,-0.66,1645175459.171875,P13,D06,1,0,0
740,-0.23,1645175459.1875,P13,D06,1,0,0
741,0.29,1645175459.203125,P13,D06,1,0,0
742,0.6,1645175459.21875,P13,D06,1,0,0
743,0.53,1645175459.234375,P13,D06,1,0,0
744,0.13,1645175459.25,P13,D06,1,0,0
745,-0.38,1645175459.265625,P13,D06,1,0,0
746,-0.8,1645175459.28125,P13,D06,1,0,0
747,-1.13,1645175459.296875,P13,D06,1,0,0
748,-1.64,1645175459.3125,P13,D06,1,0,0
749,-2.72,1645175459.328125,P13,D06,1,0,0
750,-4.67,1645175459.34375,P13,D06,1,0,0
751,-7.54,1645175459.359375,P13,D06,1,0,0
752,-11.08,1645175459.375,P13,D06,1,0,0
753,-14.93,1645175459.390625,P13,D06,1,0,0
754,-18.77,1645175459.40625,P13,D06,1,0,0
755,-22.57,1645175459.421875,P13,D06,1,0,0
756,-26.59,1645175459.4375,P13,D06,1,0,0
757,-31.2,1645175459.453125,P13,D06,1,0,0
758,-36.64,1645175459.46875,P13,D06,1,0,0
759,-42.83,1645175459.484375,P13,D06,1,0,0
760,-49.29,1645175459.5,P13,D06,1,0,0
761,-55.33,1645175459.515625,P13,D06,1,0,0
762,-60.35,1645175459.53125,P13,D06,1,0,0
763,-64.14,1645175459.546875,P13,D06,1,0,0
764,-67.04,1645175459.5625,P13,D06,1,0,0
765,-69.82,1645175459.578125,P13,D06,1,0,0
766,-73.29,1645175459.59375,P13,D06,1,0,0
767,-77.9,1645175459.609375,P13,D06,1,0,0
768,-83.44,1645175459.625,P13,D06,1,0,0
769,-89.12,1645175459.640625,P13,D06,1,0,0
770,-94.05,1645175459.65625,P13,D06,1,0,0
771,-97.76,1645175459.671875,P13,D06,1,0,0
772,-100.38,1645175459.6875,P13,D06,1,0,0
773,-102.35,1645175459.703125,P13,D06,1,0,0
774,-103.86,1645175459.71875,P13,D06,1,0,0
775,-104.36,1645175459.734375,P13,D06,1,0,0
776,-102.67,1645175459.75,P13,D06,1,0,0
777,-97.8,1645175459.765625,P13,D06,1,0,0
778,-89.68,1645175459.78125,P13,D06,1,0,0
779,-79.57,1645175459.796875,P13,D06,1,0,0
780,-69.4,1645175459.8125,P13,D06,1,0,0
781,-60.55,1645175459.828125,P13,D06,1,0,0
782,-52.96,1645175459.84375,P13,D06,1,0,0
783,-45.39,1645175459.859375,P13,D06,1,0,0
784,-36.6,1645175459.875,P13,D06,1,0,0
785,-26.76,1645175459.890625,P13,D06,1,0,0
786,-17.65,1645175459.90625,P13,D06,1,0,0
787,-11.25,1645175459.921875,P13,D06,1,0,0
788,-7.5,1645175459.9375,P13,D06,1,0,0
789,-2.9,1645175459.953125,P13,D06,1,0,0
790,8.75,1645175459.96875,P13,D06,1,0,0
791,33.31,1645175459.984375,P13,D06,1,0,0
792,72.62,1645175460.0,P13,D06,1,0,0
793,122.6,1645175460.015625,P13,D06,1,0,0
794,174.29,1645175460.03125,P13,D06,1,0,0
795,217.66,1645175460.046875,P13,D06,1,0,0
796,245.94,1645175460.0625,P13,D06,1,0,0
797,258.26,1645175460.078125,P13,D06,1,0,0
798,259.27,1645175460.09375,P13,D06,1,0,0
799,256.1,1645175460.109375,P13,D06,1,0,0
800,254.83,1645175460.125,P13,D06,1,0,0
801,258.27,1645175460.140625,P13,D06,1,0,0
802,265.73,1645175460.15625,P13,D06,1,0,0
803,274.3,1645175460.171875,P13,D06,1,0,0
804,280.47,1645175460.1875,P13,D06,1,0,0
805,281.24,1645175460.203125,P13,D06,1,0,0
806,274.65,1645175460.21875,P13,D06,1,0,0
807,260.0,1645175460.234375,P13,D06,1,0,0
808,238.27,1645175460.25,P13,D06,1,0,0
809,212.24,1645175460.265625,P13,D06,1,0,0
810,186.22,1645175460.28125,P13,D06,1,0,0
811,164.78,1645175460.296875,P13,D06,1,0,0
812,150.88,1645175460.3125,P13,D06,1,0,0
813,144.36,1645175460.328125,P13,D06,1,0,0
814,141.64,1645175460.34375,P13,D06,1,0,0
815,136.84,1645175460.359375,P13,D06,1,0,0
816,123.96,1645175460.375,P13,D06,1,0,0
817,99.12,1645175460.390625,P13,D06,1,0,0
818,62.01,1645175460.40625,P13,D06,1,0,0
819,15.94,1645175460.421875,P13,D06,1,0,0
820,-33.28,1645175460.4375,P13,D06,1,0,0
821,-79.14,1645175460.453125,P13,D06,1,0,0
822,-116.25,1645175460.46875,P13,D06,1,0,0
823,-141.53,1645175460.484375,P13,D06,1,0,0
824,-154.7,1645175460.5,P13,D06,1,0,0
825,-157.96,1645175460.515625,P13,D06,1,0,0
826,-154.96,1645175460.53125,P13,D06,1,0,0
827,-149.55,1645175460.546875,P13,D06,1,0,0
828,-144.76,1645175460.5625,P13,D06,1,0,0
829,-142.15,1645175460.578125,P13,D06,1,0,0
830,-141.82,1645175460.59375,P13,D06,1,0,0
831,-142.8,1645175460.609375,P13,D06,1,0,0
832,-143.68,1645175460.625,P13,D06,1,0,0
833,-143.08,1645175460.640625,P13,D06,1,0,0
834,-139.94,1645175460.65625,P13,D06,1,0,0
835,-133.62,1645175460.671875,P13,D06,1,0,0
836,-124.02,1645175460.6875,P13,D06,1,0,0
837,-111.69,1645175460.703125,P13,D06,1,0,0
838,-97.79,1645175460.71875,P13,D06,1,0,0
839,-83.93,1645175460.734375,P13,D06,1,0,0
840,-71.81,1645175460.75,P13,D06,1,0,0
841,-62.75,1645175460.765625,P13,D06,1,0,0
842,-57.15,1645175460.78125,P13,D06,1,0,0
843,-54.39,1645175460.796875,P13,D06,1,0,0
844,-52.98,1645175460.8125,P13,D06,1,0,0
845,-51.17,1645175460.828125,P13,D06,1,0,0
846,-47.62,1645175460.84375,P13,D06,1,0,0
847,-41.92,1645175460.859375,P13,D06,1,0,0
848,-34.66,1645175460.875,P13,D06,1,0,0
849,-27.14,1645175460.890625,P13,D06,1,0,0
850,-20.72,1645175460.90625,P13,D06,1,0,0
851,-16.33,1645175460.921875,P13,D06,1,0,0
852,-14.08,1645175460.9375,P13,D06,1,0,0
853,-13.37,1645175460.953125,P13,D06,1,0,0
854,-13.2,1645175460.96875,P13,D06,1,0,0
855,-12.62,1645175460.984375,P13,D06,1,0,0
856,-11.1,1645175461.0,P13,D06,1,0,0
857,-8.68,1645175461.015625,P13,D06,1,0,0
858,-5.81,1645175461.03125,P13,D06,1,0,0
859,-3.19,1645175461.046875,P13,D06,1,0,0
860,-1.36,1645175461.0625,P13,D06,1,0,0
861,-0.55,1645175461.078125,P13,D06,1,0,0
862,-0.64,1645175461.09375,P13,D06,1,0,0
863,-1.2,1645175461.109375,P13,D06,1,0,0
864,-1.73,1645175461.125,P13,D06,1,0,0
865,-1.82,1645175461.140625,P13,D06,1,0,0
866,-1.3,1645175461.15625,P13,D06,1,0,0
867,-0.28,1645175461.171875,P13,D06,1,0,0
868,0.9,1645175461.1875,P13,D06,1,0,0
869,1.9,1645175461.203125,P13,D06,1,0,0
870,2.43,1645175461.21875,P13,D06,1,0,0
871,2.42,1645175461.234375,P13,D06,1,0,0
872,1.98,1645175461.25,P13,D06,1,0,0
873,1.29,1645175461.265625,P13,D06,1,0,0
874,0.55,1645175461.28125,P13,D06,1,0,0
875,-0.14,1645175461.296875,P13,D06,1,0,0
876,-0.74,1645175461.3125,P13,D06,1,0,0
877,-1.25,1645175461.328125,P13,D06,1,0,0
878,-1.65,1645175461.34375,P13,D06,1,0,0
879,-1.9,1645175461.359375,P13,D06,1,0,0
880,-1.94,1645175461.375,P13,D06,1,0,0
881,-1.77,1645175461.390625,P13,D06,1,0,0
882,-1.52,1645175461.40625,P13,D06,1,0,0
883,-1.37,1645175461.421875,P13,D06,1,0,0
884,-1.51,1645175461.4375,P13,D06,1,0,0
885,-2.02,1645175461.453125,P13,D06,1,0,0
886,-2.79,1645175461.46875,P13,D06,1,0,0
887,-3.57,1645175461.484375,P13,D06,1,0,0
888,-4.05,1645175461.5,P13,D06,1,0,0
889,-4.03,1645175461.515625,P13,D06,1,0,0
890,-3.48,1645175461.53125,P13,D06,1,0,0
891,-2.55,1645175461.546875,P13,D06,1,0,0
892,-1.48,1645175461.5625,P13,D06,1,0,0
893,-0.49,1645175461.578125,P13,D06,1,0,0
894,0.28,1645175461.59375,P13,D06,1,0,0
895,0.76,1645175461.609375,P13,D06,1,0,0
896,0.95,1645175461.625,P13,D06,1,0,0
897,0.84,1645175461.640625,P13,D06,1,0,0
898,0.45,1645175461.65625,P13,D06,1,0,0
899,-0.2,1645175461.671875,P13,D06,1,0,0
900,-1.0,1645175461.6875,P13,D06,1,0,0
901,-1.77,1645175461.703125,P13,D06,1,0,0
902,-2.34,1645175461.71875,P13,D06,1,0,0
903,-2.57,1645175461.734375,P13,D06,1,0,0
904,-2.46,1645175461.75,P13,D06,1,0,0
905,-2.11,1645175461.765625,P13,D06,1,0,0
906,-1.68,1645175461.78125,P13,D06,1,0,0
907,-1.33,1645175461.796875,P13,D06,1,0,0
908,-1.12,1645175461.8125,P13,D06,1,0,0
909,-1.05,1645175461.828125,P13,D06,1,0,0
910,-1.05,1645175461.84375,P13,D06,1,0,0
911,-1.05,1645175461.859375,P13,D06,1,0,0
912,-1.03,1645175461.875,P13,D06,1,0,0
913,-1.02,1645175461.890625,P13,D06,1,0,0
914,-1.08,1645175461.90625,P13,D06,1,0,0
915,-1.22,1645175461.921875,P13,D06,1,0,0
916,-1.41,1645175461.9375,P13,D06,1,0,0
917,-1.56,1645175461.953125,P13,D06,1,0,0
918,-1.59,1645175461.96875,P13,D06,1,0,0
919,-1.46,1645175461.984375,P13,D06,1,0,0
920,-1.21,1645175462.0,P13,D06,1,0,0
921,-0.93,1645175462.015625,P13,D06,1,0,0
922,-0.73,1645175462.03125,P13,D06,1,0,0
923,-0.7,1645175462.046875,P13,D06,1,0,0
924,-0.83,1645175462.0625,P13,D06,1,0,0
925,-1.06,1645175462.078125,P13,D06,1,0,0
926,-1.27,1645175462.09375,P13,D06,1,0,0
927,-1.36,1645175462.109375,P13,D06,1,0,0
928,-1.28,1645175462.125,P13,D06,1,0,0
929,-1.06,1645175462.140625,P13,D06,1,0,0
930,-0.75,1645175462.15625,P13,D06,1,0,0
931,-0.46,1645175462.171875,P13,D06,1,0,0
932,-0.23,1645175462.1875,P13,D06,1,0,0
933,-0.1,1645175462.203125,P13,D06,1,0,0
934,-0.07,1645175462.21875,P13,D06,1,0,0
935,-0.12,1645175462.234375,P13,D06,1,0,0
936,-0.28,1645175462.25,P13,D06,1,0,0
937,-0.52,1645175462.265625,P13,D06,1,0,0
938,-0.79,1645175462.28125,P13,D06,1,0,0
939,-1.0,1645175462.296875,P13,D06,1,0,0
940,-1.05,1645175462.3125,P13,D06,1,0,0
941,-0.9,1645175462.328125,P13,D06,1,0,0
942,-0.57,1645175462.34375,P13,D06,1,0,0
943,-0.17,1645175462.359375,P13,D06,1,0,0
944,0.15,1645175462.375,P13,D06,1,0,0
945,0.3,1645175462.390625,P13,D06,1,0,0
946,0.25,1645175462.40625,P13,D06,1,0,0
947,0.04,1645175462.421875,P13,D06,1,0,0
948,-0.22,1645175462.4375,P13,D06,1,0,0
949,-0.49,1645175462.453125,P13,D06,1,0,0
950,-0.75,1645175462.46875,P13,D06,1,0,0
951,-0.99,1645175462.484375,P13,D06,1,0,0
952,-1.2,1645175462.5,P13,D06,1,0,0
953,-1.35,1645175462.515625,P13,D06,1,0,0
954,-1.38,1645175462.53125,P13,D06,1,0,0
955,-1.26,1645175462.546875,P13,D06,1,0,0
956,-1.0,1645175462.5625,P13,D06,1,0,0
957,-0.66,1645175462.578125,P13,D06,1,0,0
958,-0.32,1645175462.59375,P13,D06,1,0,0
959,-0.06,1645175462.609375,P13,D06,1,0,0
960,0.05,1645175462.625,P13,D06,1,0,0
961,-0.05,1645175462.640625,P13,D06,1,0,0
962,-0.37,1645175462.65625,P13,D06,1,0,0
963,-0.86,1645175462.671875,P13,D06,1,0,0
964,-1.44,1645175462.6875,P13,D06,1,0,0
965,-1.98,1645175462.703125,P13,D06,1,0,0
966,-2.35,1645175462.71875,P13,D06,1,0,0
967,-2.5,1645175462.734375,P13,D06,1,0,0
968,-2.41,1645175462.75,P13,D06,1,0,0
969,-2.12,1645175462.765625,P13,D06,1,0,0
970,-1.75,1645175462.78125,P13,D06,1,0,0
971,-1.4,1645175462.796875,P13,D06,1,0,0
972,-1.19,1645175462.8125,P13,D06,1,0,0
973,-1.18,1645175462.828125,P13,D06,1,0,0
974,-1.39,1645175462.84375,P13,D06,1,0,0
975,-1.75,1645175462.859375,P13,D06,1,0,0
976,-2.13,1645175462.875,P13,D06,1,0,0
977,-2.42,1645175462.890625,P13,D06,1,0,0
978,-2.54,1645175462.90625,P13,D06,1,0,0
979,-2.54,1645175462.921875,P13,D06,1,0,0
980,-2.52,1645175462.9375,P13,D06,1,0,0
981,-2.63,1645175462.953125,P13,D06,1,0,0
982,-2.95,1645175462.96875,P13,D06,1,0,0
983,-3.5,1645175462.984375,P13,D06,1,0,0
984,-4.18,1645175463.0,P13,D06,1,0,0
985,-4.86,1645175463.015625,P13,D06,1,0,0
986,-5.37,1645175463.03125,P13,D06,1,0,0
987,-5.45,1645175463.046875,P13,D06,1,0,0
988,-4.86,1645175463.0625,P13,D06,1,0,0
989,-3.39,1645175463.078125,P13,D06,1,0,0
990,-1.04,1645175463.09375,P13,D06,1,0,0
991,1.97,1645175463.109375,P13,D06,1,0,0
992,5.19,1645175463.125,P13,D06,1,0,0
993,8.08,1645175463.140625,P13,D06,1,0,0
994,10.23,1645175463.15625,P13,D06,1,0,0
995,11.47,1645175463.171875,P13,D06,1,0,0
996,11.89,1645175463.1875,P13,D06,1,0,0
997,11.71,1645175463.203125,P13,D06,1,0,0
998,11.14,1645175463.21875,P13,D06,1,0,0
999,10.33,1645175463.234375,P13,D06,1,0,0
1000,9.33,1645175463.25,P13,D06,1,0,0
1001,8.15,1645175463.265625,P13,D06,1,0,0
1002,6.88,1645175463.28125,P13,D06,1,0,0
1003,5.64,1645175463.296875,P13,D06,1,0,0
1004,4.54,1645175463.3125,P13,D06,1,0,0
1005,3.68,1645175463.328125,P13,D06,1,0,0
1006,3.05,1645175463.34375,P13,D06,1,0,0
1007,2.62,1645175463.359375,P13,D06,1,0,0
1008,2.31,1645175463.375,P13,D06,1,0,0
1009,2.09,1645175463.390625,P13,D06,1,0,0
1010,1.95,1645175463.40625,P13,D06,1,0,0
1011,1.89,1645175463.421875,P13,D06,1,0,0
1012,1.94,1645175463.4375,P13,D06,1,0,0
1013,2.1,1645175463.453125,P13,D06,1,0,0
1014,2.37,1645175463.46875,P13,D06,1,0,0
1015,2.71,1645175463.484375,P13,D06,1,0,0
1016,3.03,1645175463.5,P13,D06,1,0,0
1017,3.2,1645175463.515625,P13,D06,1,0,0
1018,3.13,1645175463.53125,P13,D06,1,0,0
1019,2.75,1645175463.546875,P13,D06,1,0,0
1020,2.11,1645175463.5625,P13,D06,1,0,0
1021,1.33,1645175463.578125,P13,D06,1,0,0
1022,0.56,1645175463.59375,P13,D06,1,0,0
1023,-0.05,1645175463.609375,P13,D06,1,0,0
1024,-0.45,1645175463.625,P13,D06,1,0,0
1025,-0.66,1645175463.640625,P13,D06,1,0,0
1026,-0.73,1645175463.65625,P13,D06,1,0,0
1027,-0.72,1645175463.671875,P13,D06,1,0,0
1028,-0.68,1645175463.6875,P13,D06,1,0,0
1029,-0.65,1645175463.703125,P13,D06,1,0,0
1030,-0.69,1645175463.71875,P13,D06,1,0,0
1031,-0.86,1645175463.734375,P13,D06,1,0,0
1032,-1.19,1645175463.75,P13,D06,1,0,0
1033,-1.64,1645175463.765625,P13,D06,1,0,0
1034,-2.07,1645175463.78125,P13,D06,1,0,0
1035,-2.36,1645175463.796875,P13,D06,1,0,0
1036,-2.41,1645175463.8125,P13,D06,1,0,0
1037,-2.22,1645175463.828125,P13,D06,1,0,0
1038,-1.88,1645175463.84375,P13,D06,1,0,0
1039,-1.54,1645175463.859375,P13,D06,1,0,0
1040,-1.33,1645175463.875,P13,D06,1,0,0
1041,-1.3,1645175463.890625,P13,D06,1,0,0
1042,-1.42,1645175463.90625,P13,D06,1,0,0
1043,-1.63,1645175463.921875,P13,D06,1,0,0
1044,-1.91,1645175463.9375,P13,D06,1,0,0
1045,-2.24,1645175463.953125,P13,D06,1,0,0
1046,-2.6,1645175463.96875,P13,D06,1,0,0
1047,-2.96,1645175463.984375,P13,D06,1,0,0
1048,-3.25,1645175464.0,P13,D06,1,0,0
1049,-3.36,1645175464.015625,P13,D06,1,0,0
1050,-3.22,1645175464.03125,P13,D06,1,0,0
1051,-2.8,1645175464.046875,P13,D06,1,0,0
1052,-2.14,1645175464.0625,P13,D06,1,0,0
1053,-1.36,1645175464.078125,P13,D06,1,0,0
1054,-0.57,1645175464.09375,P13,D06,1,0,0
1055,0.11,1645175464.109375,P13,D06,1,0,0
1056,0.61,1645175464.125,P13,D06,1,0,0
1057,0.91,1645175464.140625,P13,D06,1,0,0
1058,1.04,1645175464.15625,P13,D06,1,0,0
1059,1.05,1645175464.171875,P13,D06,1,0,0
1060,0.97,1645175464.1875,P13,D06,1,0,0
1061,0.82,1645175464.203125,P13,D06,1,0,0
1062,0.63,1645175464.21875,P13,D06,1,0,0
1063,0.42,1645175464.234375,P13,D06,1,0,0
1064,0.23,1645175464.25,P13,D06,1,0,0
1065,0.12,1645175464.265625,P13,D06,1,0,0
1066,0.14,1645175464.28125,P13,D06,1,0,0
1067,0.27,1645175464.296875,P13,D06,1,0,0
1068,0.48,1645175464.3125,P13,D06,1,0,0
1069,0.66,1645175464.328125,P13,D06,1,0,0
1070,0.76,1645175464.34375,P13,D06,1,0,0
1071,0.76,1645175464.359375,P13,D06,1,0,0
1072,0.71,1645175464.375,P13,D06,1,0,0
1073,0.69,1645175464.390625,P13,D06,1,0,0
1074,0.7,1645175464.40625,P13,D06,1,0,0
1075,0.71,1645175464.421875,P13,D06,1,0,0
1076,0.63,1645175464.4375,P13,D06,1,0,0
1077,0.38,1645175464.453125,P13,D06,1,0,0
1078,-0.03,1645175464.46875,P13,D06,1,0,0
1079,-0.49,1645175464.484375,P13,D06,1,0,0
1080,-0.85,1645175464.5,P13,D06,1,0,0
1081,-1.03,1645175464.515625,P13,D06,1,0,0
1082,-1.02,1645175464.53125,P13,D06,1,0,0
1083,-0.92,1645175464.546875,P13,D06,1,0,0
1084,-0.81,1645175464.5625,P13,D06,1,0,0
1085,-0.75,1645175464.578125,P13,D06,1,0,0
1086,-0.7,1645175464.59375,P13,D06,1,0,0
1087,-0.55,1645175464.609375,P13,D06,1,0,0
1088,-0.28,1645175464.625,P13,D06,1,0,0
1089,0.07,1645175464.640625,P13,D06,1,0,0
1090,0.36,1645175464.65625,P13,D06,1,0,0
1091,0.45,1645175464.671875,P13,D06,1,0,0
1092,0.28,1645175464.6875,P13,D06,1,0,0
1093,-0.06,1645175464.703125,P13,D06,1,0,0
1094,-0.37,1645175464.71875,P13,D06,1,0,0
1095,-0.47,1645175464.734375,P13,D06,1,0,0
1096,-0.23,1645175464.75,P13,D06,1,0,0
1097,0.28,1645175464.765625,P13,D06,1,0,0
1098,0.91,1645175464.78125,P13,D06,1,0,0
1099,1.47,1645175464.796875,P13,D06,1,0,0
1100,1.84,1645175464.8125,P13,D06,1,0,0
1101,1.98,1645175464.828125,P13,D06,1,0,0
1102,1.98,1645175464.84375,P13,D06,1,0,0
1103,1.93,1645175464.859375,P13,D06,1,0,0
1104,1.87,1645175464.875,P13,D06,1,0,0
1105,1.8,1645175464.890625,P13,D06,1,0,0
1106,1.67,1645175464.90625,P13,D06,1,0,0
1107,1.45,1645175464.921875,P13,D06,1,0,0
1108,1.18,1645175464.9375,P13,D06,1,0,0
1109,0.92,1645175464.953125,P13,D06,1,0,0
1110,0.73,1645175464.96875,P13,D06,1,0,0
1111,0.59,1645175464.984375,P13,D06,1,0,0
1112,0.46,1645175465.0,P13,D06,1,0,0
1113,0.28,1645175465.015625,P13,D06,1,0,0
1114,0.02,1645175465.03125,P13,D06,1,0,0
1115,-0.28,1645175465.046875,P13,D06,1,0,0
1116,-0.53,1645175465.0625,P13,D06,1,0,0
1117,-0.67,1645175465.078125,P13,D06,1,0,0
1118,-0.68,1645175465.09375,P13,D06,1,0,0
1119,-0.59,1645175465.109375,P13,D06,1,0,0
1120,-0.47,1645175465.125,P13,D06,1,0,0
1121,-0.37,1645175465.140625,P13,D06,1,0,0
1122,-0.29,1645175465.15625,P13,D06,1,0,0
1123,-0.24,1645175465.171875,P13,D06,1,0,0
1124,-0.2,1645175465.1875,P13,D06,1,0,0
1125,-0.19,1645175465.203125,P13,D06,1,0,0
1126,-0.21,1645175465.21875,P13,D06,1,0,0
1127,-0.29,1645175465.234375,P13,D06,1,0,0
1128,-0.44,1645175465.25,P13,D06,1,0,0
1129,-0.64,1645175465.265625,P13,D06,1,0,0
1130,-0.88,1645175465.28125,P13,D06,1,0,0
1131,-1.1,1645175465.296875,P13,D06,1,0,0
1132,-1.24,1645175465.3125,P13,D06,1,0,0
1133,-1.23,1645175465.328125,P13,D06,1,0,0
1134,-1.08,1645175465.34375,P13,D06,1,0,0
1135,-0.83,1645175465.359375,P13,D06,1,0,0
1136,-0.59,1645175465.375,P13,D06,1,0,0
1137,-0.45,1645175465.390625,P13,D06,1,0,0
1138,-0.42,1645175465.40625,P13,D06,1,0,0
1139,-0.48,1645175465.421875,P13,D06,1,0,0
1140,-0.53,1645175465.4375,P13,D06,1,0,0
1141,-0.52,1645175465.453125,P13,D06,1,0,0
1142,-0.47,1645175465.46875,P13,D06,1,0,0
1143,-0.42,1645175465.484375,P13,D06,1,0,0
1144,-0.42,1645175465.5,P13,D06,1,0,0
1145,-0.48,1645175465.515625,P13,D06,1,0,0
1146,-0.55,1645175465.53125,P13,D06,1,0,0
1147,-0.59,1645175465.546875,P13,D06,1,0,0
1148,-0.57,1645175465.5625,P13,D06,1,0,0
1149,-0.53,1645175465.578125,P13,D06,1,0,0
1150,-0.52,1645175465.59375,P13,D06,1,0,0
1151,-0.58,1645175465.609375,P13,D06,1,0,0
1152,-0.66,1645175465.625,P13,D06,1,0,0
1153,-0.71,1645175465.640625,P13,D06,1,0,0
1154,-0.67,1645175465.65625,P13,D06,1,0,0
1155,-0.52,1645175465.671875,P13,D06,1,0,0
1156,-0.31,1645175465.6875,P13,D06,1,0,0
1157,-0.1,1645175465.703125,P13,D06,1,0,0
1158,0.08,1645175465.71875,P13,D06,1,0,0
1159,0.23,1645175465.734375,P13,D06,1,0,0
1160,0.36,1645175465.75,P13,D06,1,0,0
1161,0.52,1645175465.765625,P13,D06,1,0,0
1162,0.71,1645175465.78125,P13,D06,1,0,0
1163,0.88,1645175465.796875,P13,D06,1,0,0
1164,0.99,1645175465.8125,P13,D06,1,0,0
1165,1.01,1645175465.828125,P13,D06,1,0,0
1166,0.96,1645175465.84375,P13,D06,1,0,0
1167,0.89,1645175465.859375,P13,D06,1,0,0
1168,0.84,1645175465.875,P13,D06,1,0,0
1169,0.84,1645175465.890625,P13,D06,1,0,0
1170,0.85,1645175465.90625,P13,D06,1,0,0
1171,0.82,1645175465.921875,P13,D06,1,0,0
1172,0.74,1645175465.9375,P13,D06,1,0,0
1173,0.62,1645175465.953125,P13,D06,1,0,0
1174,0.51,1645175465.96875,P13,D06,1,0,0
1175,0.47,1645175465.984375,P13,D06,1,0,0
1176,0.51,1645175466.0,P13,D06,1,0,0
1177,0.59,1645175466.015625,P13,D06,1,0,0
1178,0.67,1645175466.03125,P13,D06,1,0,0
1179,0.68,1645175466.046875,P13,D06,1,0,0
1180,0.6,1645175466.0625,P13,D06,1,0,0
1181,0.43,1645175466.078125,P13,D06,1,0,0
1182,0.21,1645175466.09375,P13,D06,1,0,0
1183,-0.05,1645175466.109375,P13,D06,1,0,0
1184,-0.3,1645175466.125,P13,D06,1,0,0
1185,-0.49,1645175466.140625,P13,D06,1,0,0
1186,-0.59,1645175466.15625,P13,D06,1,0,0
1187,-0.56,1645175466.171875,P13,D06,1,0,0
1188,-0.44,1645175466.1875,P13,D06,1,0,0
1189,-0.29,1645175466.203125,P13,D06,1,0,0
1190,-0.18,1645175466.21875,P13,D06,1,0,0
1191,-0.18,1645175466.234375,P13,D06,1,0,0
1192,-0.3,1645175466.25,P13,D06,1,0,0
1193,-0.47,1645175466.265625,P13,D06,1,0,0
1194,-0.64,1645175466.28125,P13,D06,1,0,0
1195,-0.76,1645175466.296875,P13,D06,1,0,0
1196,-0.8,1645175466.3125,P13,D06,1,0,0
1197,-0.81,1645175466.328125,P13,D06,1,0,0
1198,-0.79,1645175466.34375,P13,D06,1,0,0
1199,-0.75,1645175466.359375,P13,D06,1,0,0
1200,-0.68,1645175466.375,P13,D06,1,0,0
1201,-0.55,1645175466.390625,P13,D06,1,0,0
1202,-0.38,1645175466.40625,P13,D06,1,0,0
1203,-0.18,1645175466.421875,P13,D06,1,0,0
1204,-0.01,1645175466.4375,P13,D06,1,0,0
1205,0.1,1645175466.453125,P13,D06,1,0,0
1206,0.13,1645175466.46875,P13,D06,1,0,0
1207,0.07,1645175466.484375,P13,D06,1,0,0
1208,-0.07,1645175466.5,P13,D06,1,0,0
1209,-0.26,1645175466.515625,P13,D06,1,0,0
1210,-0.44,1645175466.53125,P13,D06,1,0,0
1211,-0.56,1645175466.546875,P13,D06,1,0,0
1212,-0.54,1645175466.5625,P13,D06,1,0,0
1213,-0.34,1645175466.578125,P13,D06,1,0,0
1214,-0.01,1645175466.59375,P13,D06,1,0,0
1215,0.37,1645175466.609375,P13,D06,1,0,0
1216,0.69,1645175466.625,P13,D06,1,0,0
1217,0.84,1645175466.640625,P13,D06,1,0,0
1218,0.8,1645175466.65625,P13,D06,1,0,0
1219,0.62,1645175466.671875,P13,D06,1,0,0
1220,0.39,1645175466.6875,P13,D06,1,0,0
1221,0.22,1645175466.703125,P13,D06,1,0,0
1222,0.16,1645175466.71875,P13,D06,1,0,0
1223,0.24,1645175466.734375,P13,D06,1,0,0
1224,0.43,1645175466.75,P13,D06,1,0,0
1225,0.68,1645175466.765625,P13,D06,1,0,0
1226,0.95,1645175466.78125,P13,D06,1,0,0
1227,1.17,1645175466.796875,P13,D06,1,0,0
1228,1.27,1645175466.8125,P13,D06,1,0,0
1229,1.24,1645175466.828125,P13,D06,1,0,0
1230,1.05,1645175466.84375,P13,D06,1,0,0
1231,0.77,1645175466.859375,P13,D06,1,0,0
1232,0.48,1645175466.875,P13,D06,1,0,0
1233,0.27,1645175466.890625,P13,D06,1,0,0
1234,0.22,1645175466.90625,P13,D06,1,0,0
1235,0.34,1645175466.921875,P13,D06,1,0,0
1236,0.59,1645175466.9375,P13,D06,1,0,0
1237,0.88,1645175466.953125,P13,D06,1,0,0
1238,1.11,1645175466.96875,P13,D06,1,0,0
1239,1.18,1645175466.984375,P13,D06,1,0,0
1240,1.06,1645175467.0,P13,D06,1,0,0
1241,0.79,1645175467.015625,P13,D06,1,0,0
1242,0.42,1645175467.03125,P13,D06,1,0,0
1243,0.07,1645175467.046875,P13,D06,1,0,0
1244,-0.17,1645175467.0625,P13,D06,1,0,0
1245,-0.25,1645175467.078125,P13,D06,1,0,0
1246,-0.18,1645175467.09375,P13,D06,1,0,0
1247,0.01,1645175467.109375,P13,D06,1,0,0
1248,0.2,1645175467.125,P13,D06,1,0,0
1249,0.29,1645175467.140625,P13,D06,1,0,0
1250,0.26,1645175467.15625,P13,D06,1,0,0
1251,0.08,1645175467.171875,P13,D06,1,0,0
1252,-0.18,1645175467.1875,P13,D06,1,0,0
1253,-0.44,1645175467.203125,P13,D06,1,0,0
1254,-0.61,1645175467.21875,P13,D06,1,0,0
1255,-0.69,1645175467.234375,P13,D06,1,0,0
1256,-0.69,1645175467.25,P13,D06,1,0,0
1257,-0.69,1645175467.265625,P13,D06,1,0,0
1258,-0.76,1645175467.28125,P13,D06,1,0,0
1259,-0.93,1645175467.296875,P13,D06,1,0,0
1260,-1.18,1645175467.3125,P13,D06,1,0,0
1261,-1.42,1645175467.328125,P13,D06,1,0,0
1262,-1.55,1645175467.34375,P13,D06,1,0,0
1263,-1.5,1645175467.359375,P13,D06,1,0,0
1264,-1.27,1645175467.375,P13,D06,1,0,0
1265,-0.96,1645175467.390625,P13,D06,1,0,0
1266,-0.68,1645175467.40625,P13,D06,1,0,0
1267,-0.54,1645175467.421875,P13,D06,1,0,0
1268,-0.59,1645175467.4375,P13,D06,1,0,0
1269,-0.8,1645175467.453125,P13,D06,1,0,0
1270,-1.09,1645175467.46875,P13,D06,1,0,0
1271,-1.38,1645175467.484375,P13,D06,1,0,0
1272,-1.61,1645175467.5,P13,D06,1,0,0
1273,-1.76,1645175467.515625,P13,D06,1,0,0
1274,-1.8,1645175467.53125,P13,D06,1,0,0
1275,-1.71,1645175467.546875,P13,D06,1,0,0
1276,-1.45,1645175467.5625,P13,D06,1,0,0
1277,-1.06,1645175467.578125,P13,D06,1,0,0
1278,-0.63,1645175467.59375,P13,D06,1,0,0
1279,-0.28,1645175467.609375,P13,D06,1,0,0
1280,-0.15,1645175467.625,P13,D06,1,0,0
1281,-0.3,1645175467.640625,P13,D06,1,0,0
1282,-0.66,1645175467.65625,P13,D06,1,0,0
1283,-1.08,1645175467.671875,P13,D06,1,0,0
1284,-1.38,1645175467.6875,P13,D06,1,0,0
1285,-1.45,1645175467.703125,P13,D06,1,0,0
1286,-1.27,1645175467.71875,P13,D06,1,0,0
1287,-0.97,1645175467.734375,P13,D06,1,0,0
1288,-0.68,1645175467.75,P13,D06,1,0,0
1289,-0.51,1645175467.765625,P13,D06,1,0,0
1290,-0.43,1645175467.78125,P13,D06,1,0,0
1291,-0.34,1645175467.796875,P13,D06,1,0,0
1292,-0.1,1645175467.8125,P13,D06,1,0,0
1293,0.33,1645175467.828125,P13,D06,1,0,0
1294,0.91,1645175467.84375,P13,D06,1,0,0
1295,1.54,1645175467.859375,P13,D06,1,0,0
1296,2.1,1645175467.875,P13,D06,1,0,0
1297,2.54,1645175467.890625,P13,D06,1,0,0
1298,2.88,1645175467.90625,P13,D06,1,0,0
1299,3.18,1645175467.921875,P13,D06,1,0,0
1300,3.45,1645175467.9375,P13,D06,1,0,0
1301,3.63,1645175467.953125,P13,D06,1,0,0
1302,3.66,1645175467.96875,P13,D06,1,0,0
1303,3.47,1645175467.984375,P13,D06,1,0,0
1304,3.1,1645175468.0,P13,D06,1,0,0
1305,2.65,1645175468.015625,P13,D06,1,0,0
1306,2.24,1645175468.03125,P13,D06,1,0,0
1307,1.98,1645175468.046875,P13,D06,1,0,0
1308,1.88,1645175468.0625,P13,D06,1,0,0
1309,1.89,1645175468.078125,P13,D06,1,0,0
1310,1.95,1645175468.09375,P13,D06,1,0,0
1311,2.01,1645175468.109375,P13,D06,1,0,0
1312,2.03,1645175468.125,P13,D06,1,0,0
1313,2.02,1645175468.140625,P13,D06,1,0,0
1314,1.97,1645175468.15625,P13,D06,1,0,0
1315,1.86,1645175468.171875,P13,D06,1,0,0
1316,1.69,1645175468.1875,P13,D06,1,0,0
1317,1.47,1645175468.203125,P13,D06,1,0,0
1318,1.22,1645175468.21875,P13,D06,1,0,0
1319,0.98,1645175468.234375,P13,D06,1,0,0
1320,0.76,1645175468.25,P13,D06,1,0,0
1321,0.55,1645175468.265625,P13,D06,1,0,0
1322,0.33,1645175468.28125,P13,D06,1,0,0
1323,0.09,1645175468.296875,P13,D06,1,0,0
1324,-0.16,1645175468.3125,P13,D06,1,0,0
1325,-0.4,1645175468.328125,P13,D06,1,0,0
1326,-0.6,1645175468.34375,P13,D06,1,0,0
1327,-0.75,1645175468.359375,P13,D06,1,0,0
1328,-0.84,1645175468.375,P13,D06,1,0,0
1329,-0.84,1645175468.390625,P13,D06,1,0,0
1330,-0.76,1645175468.40625,P13,D06,1,0,0
1331,-0.59,1645175468.421875,P13,D06,1,0,0
1332,-0.37,1645175468.4375,P13,D06,1,0,0
1333,-0.14,1645175468.453125,P13,D06,1,0,0
1334,0.06,1645175468.46875,P13,D06,1,0,0
1335,0.22,1645175468.484375,P13,D06,1,0,0
1336,0.34,1645175468.5,P13,D06,1,0,0
1337,0.41,1645175468.515625,P13,D06,1,0,0
1338,0.42,1645175468.53125,P13,D06,1,0,0
1339,0.29,1645175468.546875,P13,D06,1,0,0
1340,-0.01,1645175468.5625,P13,D06,1,0,0
1341,-0.45,1645175468.578125,P13,D06,1,0,0
1342,-0.93,1645175468.59375,P13,D06,1,0,0
1343,-1.31,1645175468.609375,P13,D06,1,0,0
1344,-1.48,1645175468.625,P13,D06,1,0,0
1345,-1.45,1645175468.640625,P13,D06,1,0,0
1346,-1.33,1645175468.65625,P13,D06,1,0,0
1347,-1.28,1645175468.671875,P13,D06,1,0,0
1348,-1.39,1645175468.6875,P13,D06,1,0,0
1349,-1.61,1645175468.703125,P13,D06,1,0,0
1350,-1.81,1645175468.71875,P13,D06,1,0,0
1351,-1.8,1645175468.734375,P13,D06,1,0,0
1352,-1.54,1645175468.75,P13,D06,1,0,0
1353,-1.09,1645175468.765625,P13,D06,1,0,0
1354,-0.65,1645175468.78125,P13,D06,1,0,0
1355,-0.4,1645175468.796875,P13,D06,1,0,0
1356,-0.41,1645175468.8125,P13,D06,1,0,0
1357,-0.58,1645175468.828125,P13,D06,1,0,0
1358,-0.74,1645175468.84375,P13,D06,1,0,0
1359,-0.74,1645175468.859375,P13,D06,1,0,0
1360,-0.58,1645175468.875,P13,D06,1,0,0
1361,-0.36,1645175468.890625,P13,D06,1,0,0
1362,-0.25,1645175468.90625,P13,D06,1,0,0
1363,-0.34,1645175468.921875,P13,D06,1,0,0
1364,-0.6,1645175468.9375,P13,D06,1,0,0
1365,-0.92,1645175468.953125,P13,D06,1,0,0
1366,-1.16,1645175468.96875,P13,D06,1,0,0
1367,-1.27,1645175468.984375,P13,D06,1,0,0
1368,-1.28,1645175469.0,P13,D06,1,0,0
1369,-1.28,1645175469.015625,P13,D06,1,0,0
1370,-1.28,1645175469.03125,P13,D06,1,0,0
1371,-1.3,1645175469.046875,P13,D06,1,0,0
1372,-1.29,1645175469.0625,P13,D06,1,0,0
1373,-1.2,1645175469.078125,P13,D06,1,0,0
1374,-1.04,1645175469.09375,P13,D06,1,0,0
1375,-0.86,1645175469.109375,P13,D06,1,0,0
1376,-0.67,1645175469.125,P13,D06,1,0,0
1377,-0.52,1645175469.140625,P13,D06,1,0,0
1378,-0.39,1645175469.15625,P13,D06,1,0,0
1379,-0.29,1645175469.171875,P13,D06,1,0,0
1380,-0.25,1645175469.1875,P13,D06,1,0,0
1381,-0.29,1645175469.203125,P13,D06,1,0,0
1382,-0.46,1645175469.21875,P13,D06,1,0,0
1383,-0.73,1645175469.234375,P13,D06,1,0,0
1384,-1.02,1645175469.25,P13,D06,1,0,0
1385,-1.24,1645175469.265625,P13,D06,1,0,0
1386,-1.31,1645175469.28125,P13,D06,1,0,0
1387,-1.2,1645175469.296875,P13,D06,1,0,0
1388,-0.96,1645175469.3125,P13,D06,1,0,0
1389,-0.65,1645175469.328125,P13,D06,1,0,0
1390,-0.36,1645175469.34375,P13,D06,1,0,0
1391,-0.14,1645175469.359375,P13,D06,1,0,0
1392,-0.04,1645175469.375,P13,D06,1,0,0
1393,-0.06,1645175469.390625,P13,D06,1,0,0
1394,-0.17,1645175469.40625,P13,D06,1,0,0
1395,-0.35,1645175469.421875,P13,D06,1,0,0
1396,-0.51,1645175469.4375,P13,D06,1,0,0
1397,-0.57,1645175469.453125,P13,D06,1,0,0
1398,-0.42,1645175469.46875,P13,D06,1,0,0
1399,-0.05,1645175469.484375,P13,D06,1,0,0
1400,0.47,1645175469.5,P13,D06,1,0,0
1401,1.03,1645175469.515625,P13,D06,1,0,0
1402,1.43,1645175469.53125,P13,D06,1,0,0
1403,1.58,1645175469.546875,P13,D06,1,0,0
1404,1.44,1645175469.5625,P13,D06,1,0,0
1405,1.09,1645175469.578125,P13,D06,1,0,0
1406,0.68,1645175469.59375,P13,D06,1,0,0
1407,0.37,1645175469.609375,P13,D06,1,0,0
1408,0.25,1645175469.625,P13,D06,1,0,0
1409,0.36,1645175469.640625,P13,D06,1,0,0
1410,0.65,1645175469.65625,P13,D06,1,0,0
1411,1.01,1645175469.671875,P13,D06,1,0,0
1412,1.36,1645175469.6875,P13,D06,1,0,0
1413,1.59,1645175469.703125,P13,D06,1,0,0
1414,1.67,1645175469.71875,P13,D06,1,0,0
1415,1.59,1645175469.734375,P13,D06,1,0,0
1416,1.42,1645175469.75,P13,D06,1,0,0
1417,1.21,1645175469.765625,P13,D06,1,0,0
1418,1.0,1645175469.78125,P13,D06,1,0,0
1419,0.79,1645175469.796875,P13,D06,1,0,0
1420,0.57,1645175469.8125,P13,D06,1,0,0
1421,0.33,1645175469.828125,P13,D06,1,0,0
1422,0.11,1645175469.84375,P13,D06,1,0,0
1423,-0.03,1645175469.859375,P13,D06,1,0,0
1424,-0.03,1645175469.875,P13,D06,1,0,0
1425,0.1,1645175469.890625,P13,D06,1,0,0
1426,0.27,1645175469.90625,P13,D06,1,0,0
1427,0.34,1645175469.921875,P13,D06,1,0,0
1428,0.22,1645175469.9375,P13,D06,1,0,0
1429,-0.11,1645175469.953125,P13,D06,1,0,0
1430,-0.53,1645175469.96875,P13,D06,1,0,0
1431,-0.83,1645175469.984375,P13,D06,1,0,0
1432,-0.87,1645175470.0,P13,D06,1,0,0
1433,-0.6,1645175470.015625,P13,D06,1,0,0
1434,-0.15,1645175470.03125,P13,D06,1,0,0
1435,0.28,1645175470.046875,P13,D06,1,0,0
1436,0.52,1645175470.0625,P13,D06,1,0,0
1437,0.51,1645175470.078125,P13,D06,1,0,0
1438,0.32,1645175470.09375,P13,D06,1,0,0
1439,0.09,1645175470.109375,P13,D06,1,0,0
1440,-0.05,1645175470.125,P13,D06,1,0,0
1441,-0.06,1645175470.140625,P13,D06,1,0,0
1442,0.03,1645175470.15625,P13,D06,1,0,0
1443,0.16,1645175470.171875,P13,D06,1,0,0
1444,0.27,1645175470.1875,P13,D06,1,0,0
1445,0.35,1645175470.203125,P13,D06,1,0,0
1446,0.42,1645175470.21875,P13,D06,1,0,0
1447,0.49,1645175470.234375,P13,D06,1,0,0
1448,0.58,1645175470.25,P13,D06,1,0,0
1449,0.67,1645175470.265625,P13,D06,1,0,0
1450,0.75,1645175470.28125,P13,D06,1,0,0
1451,0.8,1645175470.296875,P13,D06,1,0,0
1452,0.8,1645175470.3125,P13,D06,1,0,0
1453,0.76,1645175470.328125,P13,D06,1,0,0
1454,0.7,1645175470.34375,P13,D06,1,0,0
1455,0.64,1645175470.359375,P13,D06,1,0,0
1456,0.59,1645175470.375,P13,D06,1,0,0
1457,0.52,1645175470.390625,P13,D06,1,0,0
1458,0.39,1645175470.40625,P13,D06,1,0,0
1459,0.16,1645175470.421875,P13,D06,1,0,0
1460,-0.16,1645175470.4375,P13,D06,1,0,0
1461,-0.49,1645175470.453125,P13,D06,1,0,0
1462,-0.71,1645175470.46875,P13,D06,1,0,0
1463,-0.73,1645175470.484375,P13,D06,1,0,0
1464,-0.54,1645175470.5,P13,D06,1,0,0
1465,-0.24,1645175470.515625,P13,D06,1,0,0
1466,0.05,1645175470.53125,P13,D06,1,0,0
1467,0.23,1645175470.546875,P13,D06,1,0,0
1468,0.25,1645175470.5625,P13,D06,1,0,0
1469,0.17,1645175470.578125,P13,D06,1,0,0
1470,0.07,1645175470.59375,P13,D06,1,0,0
1471,0.02,1645175470.609375,P13,D06,1,0,0
1472,0.04,1645175470.625,P13,D06,1,0,0
1473,0.12,1645175470.640625,P13,D06,1,0,0
1474,0.22,1645175470.65625,P13,D06,1,0,0
1475,0.33,1645175470.671875,P13,D06,1,0,0
1476,0.44,1645175470.6875,P13,D06,1,0,0
1477,0.55,1645175470.703125,P13,D06,1,0,0
1478,0.65,1645175470.71875,P13,D06,1,0,0
1479,0.69,1645175470.734375,P13,D06,1,0,0
1480,0.65,1645175470.75,P13,D06,1,0,0
1481,0.5,1645175470.765625,P13,D06,1,0,0
1482,0.3,1645175470.78125,P13,D06,1,0,0
1483,0.11,1645175470.796875,P13,D06,1,0,0
1484,0.03,1645175470.8125,P13,D06,1,0,0
1485,0.11,1645175470.828125,P13,D06,1,0,0
1486,0.33,1645175470.84375,P13,D06,1,0,0
1487,0.6,1645175470.859375,P13,D06,1,0,0
1488,0.8,1645175470.875,P13,D06,1,0,0
1489,0.81,1645175470.890625,P13,D06,1,0,0
1490,0.59,1645175470.90625,P13,D06,1,0,0
1491,0.2,1645175470.921875,P13,D06,1,0,0
1492,-0.24,1645175470.9375,P13,D06,1,0,0
1493,-0.62,1645175470.953125,P13,D06,1,0,0
1494,-0.86,1645175470.96875,P13,D06,1,0,0
1495,-0.98,1645175470.984375,P13,D06,1,0,0
1496,-1.01,1645175471.0,P13,D06,1,0,0
1497,-1.04,1645175471.015625,P13,D06,1,0,0
1498,-1.08,1645175471.03125,P13,D06,1,0,0
1499,-1.11,1645175471.046875,P13,D06,1,0,0
1500,-1.1,1645175471.0625,P13,D06,1,0,0
1501,-1.01,1645175471.078125,P13,D06,1,0,0
1502,-0.84,1645175471.09375,P13,D06,1,0,0
1503,-0.64,1645175471.109375,P13,D06,1,0,0
1504,-0.49,1645175471.125,P13,D06,1,0,0
1505,-0.4,1645175471.140625,P13,D06,1,0,0
1506,-0.35,1645175471.15625,P13,D06,1,0,0
1507,-0.28,1645175471.171875,P13,D06,1,0,0
1508,-0.13,1645175471.1875,P13,D06,1,0,0
1509,0.13,1645175471.203125,P13,D06,1,0,0
1510,0.44,1645175471.21875,P13,D06,1,0,0
1511,0.74,1645175471.234375,P13,D06,1,0,0
1512,0.9,1645175471.25,P13,D06,1,0,0
1513,0.85,1645175471.265625,P13,D06,1,0,0
1514,0.57,1645175471.28125,P13,D06,1,0,0
1515,0.14,1645175471.296875,P13,D06,1,0,0
1516,-0.32,1645175471.3125,P13,D06,1,0,0
1517,-0.69,1645175471.328125,P13,D06,1,0,0
1518,-0.87,1645175471.34375,P13,D06,1,0,0
1519,-0.84,1645175471.359375,P13,D06,1,0,0
1520,-0.65,1645175471.375,P13,D06,1,0,0
1521,-0.39,1645175471.390625,P13,D06,1,0,0
1522,-0.13,1645175471.40625,P13,D06,1,0,0
1523,0.05,1645175471.421875,P13,D06,1,0,0
1524,0.15,1645175471.4375,P13,D06,1,0,0
1525,0.15,1645175471.453125,P13,D06,1,0,0
1526,0.08,1645175471.46875,P13,D06,1,0,0
1527,-0.04,1645175471.484375,P13,D06,1,0,0
1528,-0.13,1645175471.5,P13,D06,1,0,0
1529,-0.11,1645175471.515625,P13,D06,1,0,0
1530,0.08,1645175471.53125,P13,D06,1,0,0
1531,0.45,1645175471.546875,P13,D06,1,0,0
1532,0.92,1645175471.5625,P13,D06,1,0,0
1533,1.39,1645175471.578125,P13,D06,1,0,0
1534,1.71,1645175471.59375,P13,D06,1,0,0
1535,1.82,1645175471.609375,P13,D06,1,0,0
1536,1.74,1645175471.625,P13,D06,1,0,0
1537,1.55,1645175471.640625,P13,D06,1,0,0
1538,1.36,1645175471.65625,P13,D06,1,0,0
1539,1.22,1645175471.671875,P13,D06,1,0,0
1540,1.15,1645175471.6875,P13,D06,1,0,0
1541,1.1,1645175471.703125,P13,D06,1,0,0
1542,1.0,1645175471.71875,P13,D06,1,0,0
1543,0.83,1645175471.734375,P13,D06,1,0,0
1544,0.66,1645175471.75,P13,D06,1,0,0
1545,0.56,1645175471.765625,P13,D06,1,0,0
1546,0.6,1645175471.78125,P13,D06,1,0,0
1547,0.76,1645175471.796875,P13,D06,1,0,0
1548,0.98,1645175471.8125,P13,D06,1,0,0
1549,1.13,1645175471.828125,P13,D06,1,0,0
1550,1.14,1645175471.84375,P13,D06,1,0,0
1551,1.04,1645175471.859375,P13,D06,1,0,0
1552,0.93,1645175471.875,P13,D06,1,0,0
1553,0.94,1645175471.890625,P13,D06,1,0,0
1554,1.09,1645175471.90625,P13,D06,1,0,0
1555,1.32,1645175471.921875,P13,D06,1,0,0
1556,1.5,1645175471.9375,P13,D06,1,0,0
1557,1.51,1645175471.953125,P13,D06,1,0,0
1558,1.33,1645175471.96875,P13,D06,1,0,0
1559,1.01,1645175471.984375,P13,D06,1,0,0
1560,0.64,1645175472.0,P13,D06,1,0,0
1561,0.3,1645175472.015625,P13,D06,1,0,0
1562,-0.02,1645175472.03125,P13,D06,1,0,0
1563,-0.35,1645175472.046875,P13,D06,1,0,0
1564,-0.73,1645175472.0625,P13,D06,1,0,0
1565,-1.15,1645175472.078125,P13,D06,1,0,0
1566,-1.55,1645175472.09375,P13,D06,1,0,0
1567,-1.84,1645175472.109375,P13,D06,1,0,0
1568,-1.95,1645175472.125,P13,D06,1,0,0
1569,-1.84,1645175472.140625,P13,D06,1,0,0
1570,-1.57,1645175472.15625,P13,D06,1,0,0
1571,-1.2,1645175472.171875,P13,D06,1,0,0
1572,-0.81,1645175472.1875,P13,D06,1,0,0
1573,-0.47,1645175472.203125,P13,D06,1,0,0
1574,-0.21,1645175472.21875,P13,D06,1,0,0
1575,-0.01,1645175472.234375,P13,D06,1,0,0
1576,0.16,1645175472.25,P13,D06,1,0,0
1577,0.31,1645175472.265625,P13,D06,1,0,0
1578,0.44,1645175472.28125,P13,D06,1,0,0
1579,0.5,1645175472.296875,P13,D06,1,0,0
1580,0.45,1645175472.3125,P13,D06,1,0,0
1581,0.29,1645175472.328125,P13,D06,1,0,0
1582,0.03,1645175472.34375,P13,D06,1,0,0
1583,-0.25,1645175472.359375,P13,D06,1,0,0
1584,-0.53,1645175472.375,P13,D06,1,0,0
1585,-0.76,1645175472.390625,P13,D06,1,0,0
1586,-0.96,1645175472.40625,P13,D06,1,0,0
1587,-1.13,1645175472.421875,P13,D06,1,0,0
1588,-1.24,1645175472.4375,P13,D06,1,0,0
1589,-1.26,1645175472.453125,P13,D06,1,0,0
1590,-1.15,1645175472.46875,P13,D06,1,0,0
1591,-0.92,1645175472.484375,P13,D06,1,0,0
1592,-0.65,1645175472.5,P13,D06,1,0,0
1593,-0.45,1645175472.515625,P13,D06,1,0,0
1594,-0.43,1645175472.53125,P13,D06,1,0,0
1595,-0.6,1645175472.546875,P13,D06,1,0,0
1596,-0.85,1645175472.5625,P13,D06,1,0,0
1597,-1.02,1645175472.578125,P13,D06,1,0,0
1598,-0.96,1645175472.59375,P13,D06,1,0,0
1599,-0.62,1645175472.609375,P13,D06,1,0,0
1600,-0.08,1645175472.625,P13,D06,1,0,0
1601,0.48,1645175472.640625,P13,D06,1,0,0
1602,0.86,1645175472.65625,P13,D06,1,0,0
1603,0.99,1645175472.671875,P13,D06,1,0,0
1604,0.92,1645175472.6875,P13,D06,1,0,0
1605,0.8,1645175472.703125,P13,D06,1,0,0
1606,0.76,1645175472.71875,P13,D06,1,0,0
1607,0.85,1645175472.734375,P13,D06,1,0,0
1608,1.01,1645175472.75,P13,D06,1,0,0
1609,1.11,1645175472.765625,P13,D06,1,0,0
1610,1.04,1645175472.78125,P13,D06,1,0,0
1611,0.79,1645175472.796875,P13,D06,1,0,0
1612,0.45,1645175472.8125,P13,D06,1,0,0
1613,0.15,1645175472.828125,P13,D06,1,0,0
1614,-0.02,1645175472.84375,P13,D06,1,0,0
1615,-0.01,1645175472.859375,P13,D06,1,0,0
1616,0.11,1645175472.875,P13,D06,1,0,0
1617,0.24,1645175472.890625,P13,D06,1,0,0
1618,0.29,1645175472.90625,P13,D06,1,0,0
1619,0.2,1645175472.921875,P13,D06,1,0,0
1620,-0.03,1645175472.9375,P13,D06,1,0,0
1621,-0.33,1645175472.953125,P13,D06,1,0,0
1622,-0.62,1645175472.96875,P13,D06,1,0,0
1623,-0.84,1645175472.984375,P13,D06,1,0,0
1624,-0.91,1645175473.0,P13,D06,1,0,0
1625,-0.84,1645175473.015625,P13,D06,1,0,0
1626,-0.67,1645175473.03125,P13,D06,1,0,0
1627,-0.46,1645175473.046875,P13,D06,1,0,0
1628,-0.29,1645175473.0625,P13,D06,1,0,0
1629,-0.2,1645175473.078125,P13,D06,1,0,0
1630,-0.2,1645175473.09375,P13,D06,1,0,0
1631,-0.27,1645175473.109375,P13,D06,1,0,0
1632,-0.37,1645175473.125,P13,D06,1,0,0
1633,-0.43,1645175473.140625,P13,D06,1,0,0
1634,-0.43,1645175473.15625,P13,D06,1,0,0
1635,-0.33,1645175473.171875,P13,D06,1,0,0
1636,-0.14,1645175473.1875,P13,D06,1,0,0
1637,0.1,1645175473.203125,P13,D06,1,0,0
1638,0.33,1645175473.21875,P13,D06,1,0,0
1639,0.46,1645175473.234375,P13,D06,1,0,0
1640,0.37,1645175473.25,P13,D06,1,0,0
1641,0.02,1645175473.265625,P13,D06,1,0,0
1642,-0.58,1645175473.28125,P13,D06,1,0,0
1643,-1.31,1645175473.296875,P13,D06,1,0,0
1644,-2.0,1645175473.3125,P13,D06,1,0,0
1645,-2.44,1645175473.328125,P13,D06,1,0,0
1646,-2.51,1645175473.34375,P13,D06,1,0,0
1647,-2.23,1645175473.359375,P13,D06,1,0,0
1648,-1.69,1645175473.375,P13,D06,1,0,0
1649,-1.06,1645175473.390625,P13,D06,1,0,0
1650,-0.49,1645175473.40625,P13,D06,1,0,0
1651,-0.06,1645175473.421875,P13,D06,1,0,0
1652,0.17,1645175473.4375,P13,D06,1,0,0
1653,0.21,1645175473.453125,P13,D06,1,0,0
1654,0.08,1645175473.46875,P13,D06,1,0,0
1655,-0.18,1645175473.484375,P13,D06,1,0,0
1656,-0.46,1645175473.5,P13,D06,1,0,0
1657,-0.64,1645175473.515625,P13,D06,1,0,0
1658,-0.61,1645175473.53125,P13,D06,1,0,0
1659,-0.36,1645175473.546875,P13,D06,1,0,0
1660,0.0,1645175473.5625,P13,D06,1,0,0
1661,0.3,1645175473.578125,P13,D06,1,0,0
1662,0.35,1645175473.59375,P13,D06,1,0,0
1663,0.1,1645175473.609375,P13,D06,1,0,0
1664,-0.35,1645175473.625,P13,D06,1,0,0
1665,-0.84,1645175473.640625,P13,D06,1,0,0
1666,-1.17,1645175473.65625,P13,D06,1,0,0
1667,-1.26,1645175473.671875,P13,D06,1,0,0
1668,-1.14,1645175473.6875,P13,D06,1,0,0
1669,-0.92,1645175473.703125,P13,D06,1,0,0
1670,-0.72,1645175473.71875,P13,D06,1,0,0
1671,-0.57,1645175473.734375,P13,D06,1,0,0
1672,-0.44,1645175473.75,P13,D06,1,0,0
1673,-0.31,1645175473.765625,P13,D06,1,0,0
1674,-0.19,1645175473.78125,P13,D06,1,0,0
1675,-0.13,1645175473.796875,P13,D06,1,0,0
1676,-0.21,1645175473.8125,P13,D06,1,0,0
1677,-0.45,1645175473.828125,P13,D06,1,0,0
1678,-0.76,1645175473.84375,P13,D06,1,0,0
1679,-1.02,1645175473.859375,P13,D06,1,0,0
1680,-1.11,1645175473.875,P13,D06,1,0,0
1681,-1.01,1645175473.890625,P13,D06,1,0,0
1682,-0.8,1645175473.90625,P13,D06,1,0,0
1683,-0.62,1645175473.921875,P13,D06,1,0,0
1684,-0.56,1645175473.9375,P13,D06,1,0,0
1685,-0.61,1645175473.953125,P13,D06,1,0,0
1686,-0.69,1645175473.96875,P13,D06,1,0,0
1687,-0.69,1645175473.984375,P13,D06,1,0,0
1688,-0.56,1645175474.0,P13,D06,1,0,0
1689,-0.32,1645175474.015625,P13,D06,1,0,0
1690,-0.04,1645175474.03125,P13,D06,1,0,0
1691,0.25,1645175474.046875,P13,D06,1,0,0
1692,0.52,1645175474.0625,P13,D06,1,0,0
1693,0.77,1645175474.078125,P13,D06,1,0,0
1694,0.98,1645175474.09375,P13,D06,1,0,0
1695,1.08,1645175474.109375,P13,D06,1,0,0
1696,1.04,1645175474.125,P13,D06,1,0,0
1697,0.84,1645175474.140625,P13,D06,1,0,0
1698,0.56,1645175474.15625,P13,D06,1,0,0
1699,0.33,1645175474.171875,P13,D06,1,0,0
1700,0.27,1645175474.1875,P13,D06,1,0,0
1701,0.37,1645175474.203125,P13,D06,1,0,0
1702,0.57,1645175474.21875,P13,D06,1,0,0
1703,0.74,1645175474.234375,P13,D06,1,0,0
1704,0.77,1645175474.25,P13,D06,1,0,0
1705,0.7,1645175474.265625,P13,D06,1,0,0
1706,0.6,1645175474.28125,P13,D06,1,0,0
1707,0.57,1645175474.296875,P13,D06,1,0,0
1708,0.62,1645175474.3125,P13,D06,1,0,0
1709,0.69,1645175474.328125,P13,D06,1,0,0
1710,0.64,1645175474.34375,P13,D06,1,0,0
1711,0.42,1645175474.359375,P13,D06,1,0,0
1712,0.08,1645175474.375,P13,D06,1,0,0
1713,-0.26,1645175474.390625,P13,D06,1,0,0
1714,-0.46,1645175474.40625,P13,D06,1,0,0
1715,-0.44,1645175474.421875,P13,D06,1,0,0
1716,-0.29,1645175474.4375,P13,D06,1,0,0
1717,-0.11,1645175474.453125,P13,D06,1,0,0
1718,-0.02,1645175474.46875,P13,D06,1,0,0
1719,-0.02,1645175474.484375,P13,D06,1,0,0
1720,-0.07,1645175474.5,P13,D06,1,0,0
1721,-0.1,1645175474.515625,P13,D06,1,0,0
1722,-0.06,1645175474.53125,P13,D06,1,0,0
1723,0.02,1645175474.546875,P13,D06,1,0,0
1724,0.08,1645175474.5625,P13,D06,1,0,0
1725,0.1,1645175474.578125,P13,D06,1,0,0
1726,0.07,1645175474.59375,P13,D06,1,0,0
1727,0.01,1645175474.609375,P13,D06,1,0,0
1728,-0.02,1645175474.625,P13,D06,1,0,0
1729,-0.0,1645175474.640625,P13,D06,1,0,0
1730,0.07,1645175474.65625,P13,D06,1,0,0
1731,0.21,1645175474.671875,P13,D06,1,0,0
1732,0.4,1645175474.6875,P13,D06,1,0,0
1733,0.59,1645175474.703125,P13,D06,1,0,0
1734,0.7,1645175474.71875,P13,D06,1,0,0
1735,0.67,1645175474.734375,P13,D06,1,0,0
1736,0.52,1645175474.75,P13,D06,1,0,0
1737,0.33,1645175474.765625,P13,D06,1,0,0
1738,0.25,1645175474.78125,P13,D06,1,0,0
1739,0.35,1645175474.796875,P13,D06,1,0,0
1740,0.6,1645175474.8125,P13,D06,1,0,0
1741,0.85,1645175474.828125,P13,D06,1,0,0
1742,0.93,1645175474.84375,P13,D06,1,0,0
1743,0.75,1645175474.859375,P13,D06,1,0,0
1744,0.36,1645175474.875,P13,D06,1,0,0
1745,-0.11,1645175474.890625,P13,D06,1,0,0
1746,-0.5,1645175474.90625,P13,D06,1,0,0
1747,-0.75,1645175474.921875,P13,D06,1,0,0
1748,-0.86,1645175474.9375,P13,D06,1,0,0
1749,-0.88,1645175474.953125,P13,D06,1,0,0
1750,-0.86,1645175474.96875,P13,D06,1,0,0
1751,-0.79,1645175474.984375,P13,D06,1,0,0
1752,-0.67,1645175475.0,P13,D06,1,0,0
1753,-0.5,1645175475.015625,P13,D06,1,0,0
1754,-0.33,1645175475.03125,P13,D06,1,0,0
1755,-0.19,1645175475.046875,P13,D06,1,0,0
1756,-0.13,1645175475.0625,P13,D06,1,0,0
1757,-0.16,1645175475.078125,P13,D06,1,0,0
1758,-0.25,1645175475.09375,P13,D06,1,0,0
1759,-0.4,1645175475.109375,P13,D06,1,0,0
1760,-0.59,1645175475.125,P13,D06,1,0,0
1761,-0.79,1645175475.140625,P13,D06,1,0,0
1762,-0.99,1645175475.15625,P13,D06,1,0,0
1763,-1.14,1645175475.171875,P13,D06,1,0,0
1764,-1.2,1645175475.1875,P13,D06,1,0,0
1765,-1.14,1645175475.203125,P13,D06,1,0,0
1766,-0.94,1645175475.21875,P13,D06,1,0,0
1767,-0.61,1645175475.234375,P13,D06,1,0,0
1768,-0.22,1645175475.25,P13,D06,1,0,0
1769,0.17,1645175475.265625,P13,D06,1,0,0
1770,0.5,1645175475.28125,P13,D06,1,0,0
1771,0.73,1645175475.296875,P13,D06,1,0,0
1772,0.85,1645175475.3125,P13,D06,1,0,0
1773,0.91,1645175475.328125,P13,D06,1,0,0
1774,0.96,1645175475.34375,P13,D06,1,0,0
1775,1.01,1645175475.359375,P13,D06,1,0,0
1776,1.05,1645175475.375,P13,D06,1,0,0
1777,1.03,1645175475.390625,P13,D06,1,0,0
1778,0.92,1645175475.40625,P13,D06,1,0,0
1779,0.73,1645175475.421875,P13,D06,1,0,0
1780,0.53,1645175475.4375,P13,D06,1,0,0
1781,0.39,1645175475.453125,P13,D06,1,0,0
1782,0.32,1645175475.46875,P13,D06,1,0,0
1783,0.29,1645175475.484375,P13,D06,1,0,0
1784,0.25,1645175475.5,P13,D06,1,0,0
1785,0.14,1645175475.515625,P13,D06,1,0,0
1786,-0.04,1645175475.53125,P13,D06,1,0,0
1787,-0.25,1645175475.546875,P13,D06,1,0,0
1788,-0.47,1645175475.5625,P13,D06,1,0,0
1789,-0.64,1645175475.578125,P13,D06,1,0,0
1790,-0.75,1645175475.59375,P13,D06,1,0,0
1791,-0.8,1645175475.609375,P13,D06,1,0,0
1792,-0.76,1645175475.625,P13,D06,1,0,0
1793,-0.66,1645175475.640625,P13,D06,1,0,0
1794,-0.52,1645175475.65625,P13,D06,1,0,0
1795,-0.4,1645175475.671875,P13,D06,1,0,0
1796,-0.35,1645175475.6875,P13,D06,1,0,0
1797,-0.36,1645175475.703125,P13,D06,1,0,0
1798,-0.38,1645175475.71875,P13,D06,1,0,0
1799,-0.35,1645175475.734375,P13,D06,1,0,0
1800,-0.2,1645175475.75,P13,D06,1,0,0
1801,0.05,1645175475.765625,P13,D06,1,0,0
1802,0.32,1645175475.78125,P13,D06,1,0,0
1803,0.56,1645175475.796875,P13,D06,1,0,0
1804,0.68,1645175475.8125,P13,D06,1,0,0
1805,0.66,1645175475.828125,P13,D06,1,0,0
1806,0.51,1645175475.84375,P13,D06,1,0,0
1807,0.25,1645175475.859375,P13,D06,1,0,0
1808,-0.05,1645175475.875,P13,D06,1,0,0
1809,-0.28,1645175475.890625,P13,D06,1,0,0
1810,-0.33,1645175475.90625,P13,D06,1,0,0
1811,-0.13,1645175475.921875,P13,D06,1,0,0
1812,0.31,1645175475.9375,P13,D06,1,0,0
1813,0.8,1645175475.953125,P13,D06,1,0,0
1814,1.12,1645175475.96875,P13,D06,1,0,0
1815,1.08,1645175475.984375,P13,D06,1,0,0
1816,0.65,1645175476.0,P13,D06,1,0,0
1817,-0.02,1645175476.015625,P13,D06,1,0,0
1818,-0.67,1645175476.03125,P13,D06,1,0,0
1819,-1.05,1645175476.046875,P13,D06,1,0,0
1820,-1.04,1645175476.0625,P13,D06,1,0,0
1821,-0.73,1645175476.078125,P13,D06,1,0,0
1822,-0.33,1645175476.09375,P13,D06,1,0,0
1823,-0.04,1645175476.109375,P13,D06,1,0,0
1824,0.04,1645175476.125,P13,D06,1,0,0
1825,-0.06,1645175476.140625,P13,D06,1,0,0
1826,-0.18,1645175476.15625,P13,D06,1,0,0
1827,-0.2,1645175476.171875,P13,D06,1,0,0
1828,-0.07,1645175476.1875,P13,D06,1,0,0
1829,0.13,1645175476.203125,P13,D06,1,0,0
1830,0.29,1645175476.21875,P13,D06,1,0,0
1831,0.3,1645175476.234375,P13,D06,1,0,0
1832,0.2,1645175476.25,P13,D06,1,0,0
1833,0.1,1645175476.265625,P13,D06,1,0,0
1834,0.13,1645175476.28125,P13,D06,1,0,0
1835,0.34,1645175476.296875,P13,D06,1,0,0
1836,0.63,1645175476.3125,P13,D06,1,0,0
1837,0.83,1645175476.328125,P13,D06,1,0,0
1838,0.83,1645175476.34375,P13,D06,1,0,0
1839,0.61,1645175476.359375,P13,D06,1,0,0
1840,0.27,1645175476.375,P13,D06,1,0,0
1841,-0.0,1645175476.390625,P13,D06,1,0,0
1842,-0.14,1645175476.40625,P13,D06,1,0,0
1843,-0.16,1645175476.421875,P13,D06,1,0,0
1844,-0.17,1645175476.4375,P13,D06,1,0,0
1845,-0.29,1645175476.453125,P13,D06,1,0,0
1846,-0.5,1645175476.46875,P13,D06,1,0,0
1847,-0.71,1645175476.484375,P13,D06,1,0,0
1848,-0.77,1645175476.5,P13,D06,1,0,0
1849,-0.61,1645175476.515625,P13,D06,1,0,0
1850,-0.27,1645175476.53125,P13,D06,1,0,0
1851,0.11,1645175476.546875,P13,D06,1,0,0
1852,0.39,1645175476.5625,P13,D06,1,0,0
1853,0.48,1645175476.578125,P13,D06,1,0,0
1854,0.37,1645175476.59375,P13,D06,1,0,0
1855,0.17,1645175476.609375,P13,D06,1,0,0
1856,-0.03,1645175476.625,P13,D06,1,0,0
1857,-0.18,1645175476.640625,P13,D06,1,0,0
1858,-0.27,1645175476.65625,P13,D06,1,0,0
1859,-0.32,1645175476.671875,P13,D06,1,0,0
1860,-0.36,1645175476.6875,P13,D06,1,0,0
1861,-0.35,1645175476.703125,P13,D06,1,0,0
1862,-0.27,1645175476.71875,P13,D06,1,0,0
1863,-0.09,1645175476.734375,P13,D06,1,0,0
1864,0.15,1645175476.75,P13,D06,1,0,0
1865,0.39,1645175476.765625,P13,D06,1,0,0
1866,0.54,1645175476.78125,P13,D06,1,0,0
1867,0.54,1645175476.796875,P13,D06,1,0,0
1868,0.4,1645175476.8125,P13,D06,1,0,0
1869,0.19,1645175476.828125,P13,D06,1,0,0
1870,-0.02,1645175476.84375,P13,D06,1,0,0
1871,-0.14,1645175476.859375,P13,D06,1,0,0
1872,-0.17,1645175476.875,P13,D06,1,0,0
1873,-0.14,1645175476.890625,P13,D06,1,0,0
1874,-0.1,1645175476.90625,P13,D06,1,0,0
1875,-0.13,1645175476.921875,P13,D06,1,0,0
1876,-0.24,1645175476.9375,P13,D06,1,0,0
1877,-0.41,1645175476.953125,P13,D06,1,0,0
1878,-0.59,1645175476.96875,P13,D06,1,0,0
1879,-0.75,1645175476.984375,P13,D06,1,0,0
1880,-0.88,1645175477.0,P13,D06,1,0,0
1881,-0.97,1645175477.015625,P13,D06,1,0,0
1882,-1.04,1645175477.03125,P13,D06,1,0,0
1883,-1.06,1645175477.046875,P13,D06,1,0,0
1884,-1.03,1645175477.0625,P13,D06,1,0,0
1885,-0.93,1645175477.078125,P13,D06,1,0,0
1886,-0.8,1645175477.09375,P13,D06,1,0,0
1887,-0.67,1645175477.109375,P13,D06,1,0,0
1888,-0.58,1645175477.125,P13,D06,1,0,0
1889,-0.53,1645175477.140625,P13,D06,1,0,0
1890,-0.5,1645175477.15625,P13,D06,1,0,0
1891,-0.44,1645175477.171875,P13,D06,1,0,0
1892,-0.33,1645175477.1875,P13,D06,1,0,0
1893,-0.17,1645175477.203125,P13,D06,1,0,0
1894,0.01,1645175477.21875,P13,D06,1,0,0
1895,0.14,1645175477.234375,P13,D06,1,0,0
1896,0.21,1645175477.25,P13,D06,1,0,0
1897,0.2,1645175477.265625,P13,D06,1,0,0
1898,0.15,1645175477.28125,P13,D06,1,0,0
1899,0.12,1645175477.296875,P13,D06,1,0,0
1900,0.13,1645175477.3125,P13,D06,1,0,0
1901,0.18,1645175477.328125,P13,D06,1,0,0
1902,0.25,1645175477.34375,P13,D06,1,0,0
1903,0.3,1645175477.359375,P13,D06,1,0,0
1904,0.27,1645175477.375,P13,D06,1,0,0
1905,0.13,1645175477.390625,P13,D06,1,0,0
1906,-0.12,1645175477.40625,P13,D06,1,0,0
1907,-0.44,1645175477.421875,P13,D06,1,0,0
1908,-0.72,1645175477.4375,P13,D06,1,0,0
1909,-0.87,1645175477.453125,P13,D06,1,0,0
1910,-0.83,1645175477.46875,P13,D06,1,0,0
1911,-0.63,1645175477.484375,P13,D06,1,0,0
1912,-0.32,1645175477.5,P13,D06,1,0,0
1913,-0.05,1645175477.515625,P13,D06,1,0,0
1914,0.1,1645175477.53125,P13,D06,1,0,0
1915,0.09,1645175477.546875,P13,D06,1,0,0
1916,-0.03,1645175477.5625,P13,D06,1,0,0
1917,-0.14,1645175477.578125,P13,D06,1,0,0
1918,-0.17,1645175477.59375,P13,D06,1,0,0
1919,-0.09,1645175477.609375,P13,D06,1,0,0
1920,0.06,1645175477.625,P13,D06,1,0,0
1921,0.17,1645175477.640625,P13,D06,1,0,0
1922,0.18,1645175477.65625,P13,D06,1,0,0
1923,0.11,1645175477.671875,P13,D06,1,0,0
1924,0.03,1645175477.6875,P13,D06,1,0,0
1925,0.05,1645175477.703125,P13,D06,1,0,0
1926,0.23,1645175477.71875,P13,D06,1,0,0
1927,0.51,1645175477.734375,P13,D06,1,0,0
1928,0.79,1645175477.75,P13,D06,1,0,0
1929,0.96,1645175477.765625,P13,D06,1,0,0
1930,0.97,1645175477.78125,P13,D06,1,0,0
1931,0.85,1645175477.796875,P13,D06,1,0,0
1932,0.7,1645175477.8125,P13,D06,1,0,0
1933,0.64,1645175477.828125,P13,D06,1,0,0
1934,0.71,1645175477.84375,P13,D06,1,0,0
1935,0.9,1645175477.859375,P13,D06,1,0,0
1936,1.11,1645175477.875,P13,D06,1,0,0
1937,1.24,1645175477.890625,P13,D06,1,0,0
1938,1.21,1645175477.90625,P13,D06,1,0,0
1939,1.03,1645175477.921875,P13,D06,1,0,0
1940,0.77,1645175477.9375,P13,D06,1,0,0
1941,0.51,1645175477.953125,P13,D06,1,0,0
1942,0.36,1645175477.96875,P13,D06,1,0,0
1943,0.35,1645175477.984375,P13,D06,1,0,0
1944,0.47,1645175478.0,P13,D06,1,0,0
1945,0.66,1645175478.015625,P13,D06,1,0,0
1946,0.81,1645175478.03125,P13,D06,1,0,0
1947,0.86,1645175478.046875,P13,D06,1,0,0
1948,0.76,1645175478.0625,P13,D06,1,0,0
1949,0.57,1645175478.078125,P13,D06,1,0,0
1950,0.38,1645175478.09375,P13,D06,1,0,0
1951,0.31,1645175478.109375,P13,D06,1,0,0
1952,0.39,1645175478.125,P13,D06,1,0,0
1953,0.58,1645175478.140625,P13,D06,1,0,0
1954,0.77,1645175478.15625,P13,D06,1,0,0
1955,0.83,1645175478.171875,P13,D06,1,0,0
1956,0.69,1645175478.1875,P13,D06,1,0,0
1957,0.37,1645175478.203125,P13,D06,1,0,0
1958,-0.01,1645175478.21875,P13,D06,1,0,0
1959,-0.34,1645175478.234375,P13,D06,1,0,0
1960,-0.55,1645175478.25,P13,D06,1,0,0
1961,-0.64,1645175478.265625,P13,D06,1,0,0
1962,-0.65,1645175478.28125,P13,D06,1,0,0
1963,-0.65,1645175478.296875,P13,D06,1,0,0
1964,-0.64,1645175478.3125,P13,D06,1,0,0
1965,-0.59,1645175478.328125,P13,D06,1,0,0
1966,-0.44,1645175478.34375,P13,D06,1,0,0
1967,-0.2,1645175478.359375,P13,D06,1,0,0
1968,0.08,1645175478.375,P13,D06,1,0,0
1969,0.31,1645175478.390625,P13,D06,1,0,0
1970,0.41,1645175478.40625,P13,D06,1,0,0
1971,0.34,1645175478.421875,P13,D06,1,0,0
1972,0.13,1645175478.4375,P13,D06,1,0,0
1973,-0.14,1645175478.453125,P13,D06,1,0,0
1974,-0.4,1645175478.46875,P13,D06,1,0,0
1975,-0.63,1645175478.484375,P13,D06,1,0,0
1976,-0.83,1645175478.5,P13,D06,1,0,0
1977,-1.05,1645175478.515625,P13,D06,1,0,0
1978,-1.29,1645175478.53125,P13,D06,1,0,0
1979,-1.53,1645175478.546875,P13,D06,1,0,0
1980,-1.74,1645175478.5625,P13,D06,1,0,0
1981,-1.85,1645175478.578125,P13,D06,1,0,0
1982,-1.88,1645175478.59375,P13,D06,1,0,0
1983,-1.85,1645175478.609375,P13,D06,1,0,0
1984,-1.86,1645175478.625,P13,D06,1,0,0
1985,-1.96,1645175478.640625,P13,D06,1,0,0
1986,-2.18,1645175478.65625,P13,D06,1,0,0
1987,-2.45,1645175478.671875,P13,D06,1,0,0
1988,-2.69,1645175478.6875,P13,D06,1,0,0
1989,-2.78,1645175478.703125,P13,D06,1,0,0
1990,-2.67,1645175478.71875,P13,D06,1,0,0
1991,-2.35,1645175478.734375,P13,D06,1,0,0
1992,-1.92,1645175478.75,P13,D06,1,0,0
1993,-1.51,1645175478.765625,P13,D06,1,0,0
1994,-1.29,1645175478.78125,P13,D06,1,0,0
1995,-1.36,1645175478.796875,P13,D06,1,0,0
1996,-1.72,1645175478.8125,P13,D06,1,0,0
1997,-2.25,1645175478.828125,P13,D06,1,0,0
1998,-2.81,1645175478.84375,P13,D06,1,0,0
1999,-3.23,1645175478.859375,P13,D06,1,0,0
2000,-3.45,1645175478.875,P13,D06,1,0,0
2001,-3.49,1645175478.890625,P13,D06,1,0,0
2002,-3.45,1645175478.90625,P13,D06,1,0,0
2003,-3.43,1645175478.921875,P13,D06,1,0,0
2004,-3.41,1645175478.9375,P13,D06,1,0,0
2005,-3.28,1645175478.953125,P13,D06,1,0,0
2006,-2.8,1645175478.96875,P13,D06,1,0,0
2007,-1.78,1645175478.984375,P13,D06,1,0,0
2008,-0.12,1645175479.0,P13,D06,1,0,0
2009,2.1,1645175479.015625,P13,D06,1,0,0
2010,4.57,1645175479.03125,P13,D06,1,0,0
2011,6.91,1645175479.046875,P13,D06,1,0,0
2012,8.76,1645175479.0625,P13,D06,1,0,0
2013,9.87,1645175479.078125,P13,D06,1,0,0
2014,10.2,1645175479.09375,P13,D06,1,0,0
2015,9.86,1645175479.109375,P13,D06,1,0,0
2016,9.04,1645175479.125,P13,D06,1,0,0
2017,7.95,1645175479.140625,P13,D06,1,0,0
2018,6.75,1645175479.15625,P13,D06,1,0,0
2019,5.56,1645175479.171875,P13,D06,1,0,0
2020,4.47,1645175479.1875,P13,D06,1,0,0
2021,3.5,1645175479.203125,P13,D06,1,0,0
2022,2.69,1645175479.21875,P13,D06,1,0,0
2023,2.0,1645175479.234375,P13,D06,1,0,0
2024,1.41,1645175479.25,P13,D06,1,0,0
2025,0.87,1645175479.265625,P13,D06,1,0,0
2026,0.34,1645175479.28125,P13,D06,1,0,0
2027,-0.2,1645175479.296875,P13,D06,1,0,0
2028,-0.75,1645175479.3125,P13,D06,1,0,0
2029,-1.32,1645175479.328125,P13,D06,1,0,0
2030,-1.91,1645175479.34375,P13,D06,1,0,0
2031,-2.46,1645175479.359375,P13,D06,1,0,0
2032,-2.89,1645175479.375,P13,D06,1,0,0
2033,-3.1,1645175479.390625,P13,D06,1,0,0
2034,-3.01,1645175479.40625,P13,D06,1,0,0
2035,-2.6,1645175479.421875,P13,D06,1,0,0
2036,-1.93,1645175479.4375,P13,D06,1,0,0
2037,-1.15,1645175479.453125,P13,D06,1,0,0
2038,-0.44,1645175479.46875,P13,D06,1,0,0
2039,0.07,1645175479.484375,P13,D06,1,0,0
2040,0.31,1645175479.5,P13,D06,1,0,0
2041,0.32,1645175479.515625,P13,D06,1,0,0
2042,0.21,1645175479.53125,P13,D06,1,0,0
2043,0.1,1645175479.546875,P13,D06,1,0,0
2044,0.04,1645175479.5625,P13,D06,1,0,0
2045,0.06,1645175479.578125,P13,D06,1,0,0
2046,0.1,1645175479.59375,P13,D06,1,0,0
2047,0.13,1645175479.609375,P13,D06,1,0,0
2048,0.11,1645175479.625,P13,D06,1,0,0
2049,0.06,1645175479.640625,P13,D06,1,0,0
2050,-0.03,1645175479.65625,P13,D06,1,0,0
2051,-0.16,1645175479.671875,P13,D06,1,0,0
2052,-0.29,1645175479.6875,P13,D06,1,0,0
2053,-0.42,1645175479.703125,P13,D06,1,0,0
2054,-0.49,1645175479.71875,P13,D06,1,0,0
2055,-0.49,1645175479.734375,P13,D06,1,0,0
2056,-0.41,1645175479.75,P13,D06,1,0,0
2057,-0.27,1645175479.765625,P13,D06,1,0,0
2058,-0.11,1645175479.78125,P13,D06,1,0,0
2059,0.02,1645175479.796875,P13,D06,1,0,0
2060,0.13,1645175479.8125,P13,D06,1,0,0
2061,0.21,1645175479.828125,P13,D06,1,0,0
2062,0.27,1645175479.84375,P13,D06,1,0,0
2063,0.27,1645175479.859375,P13,D06,1,0,0
2064,0.22,1645175479.875,P13,D06,1,0,0
2065,0.13,1645175479.890625,P13,D06,1,0,0
2066,0.07,1645175479.90625,P13,D06,1,0,0
2067,0.12,1645175479.921875,P13,D06,1,0,0
2068,0.32,1645175479.9375,P13,D06,1,0,0
2069,0.64,1645175479.953125,P13,D06,1,0,0
2070,0.96,1645175479.96875,P13,D06,1,0,0
2071,1.17,1645175479.984375,P13,D06,1,0,0
2072,1.23,1645175480.0,P13,D06,1,0,0
2073,1.16,1645175480.015625,P13,D06,1,0,0
2074,1.03,1645175480.03125,P13,D06,1,0,0
2075,0.9,1645175480.046875,P13,D06,1,0,0
2076,0.75,1645175480.0625,P13,D06,1,0,0
2077,0.55,1645175480.078125,P13,D06,1,0,0
2078,0.29,1645175480.09375,P13,D06,1,0,0
2079,0.0,1645175480.109375,P13,D06,1,0,0
2080,-0.16,1645175480.125,P13,D06,1,0,0
2081,-0.1,1645175480.140625,P13,D06,1,0,0
2082,0.22,1645175480.15625,P13,D06,1,0,0
2083,0.7,1645175480.171875,P13,D06,1,0,0
2084,1.16,1645175480.1875,P13,D06,1,0,0
2085,1.44,1645175480.203125,P13,D06,1,0,0
2086,1.48,1645175480.21875,P13,D06,1,0,0
2087,1.32,1645175480.234375,P13,D06,1,0,0
2088,1.08,1645175480.25,P13,D06,1,0,0
2089,0.82,1645175480.265625,P13,D06,1,0,0
2090,0.56,1645175480.28125,P13,D06,1,0,0
2091,0.27,1645175480.296875,P13,D06,1,0,0
2092,-0.06,1645175480.3125,P13,D06,1,0,0
2093,-0.38,1645175480.328125,P13,D06,1,0,0
2094,-0.6,1645175480.34375,P13,D06,1,0,0
2095,-0.6,1645175480.359375,P13,D06,1,0,0
2096,-0.36,1645175480.375,P13,D06,1,0,0
2097,0.07,1645175480.390625,P13,D06,1,0,0
2098,0.57,1645175480.40625,P13,D06,1,0,0
2099,1.0,1645175480.421875,P13,D06,1,0,0
2100,1.28,1645175480.4375,P13,D06,1,0,0
2101,1.35,1645175480.453125,P13,D06,1,0,0
2102,1.22,1645175480.46875,P13,D06,1,0,0
2103,0.95,1645175480.484375,P13,D06,1,0,0
2104,0.64,1645175480.5,P13,D06,1,0,0
2105,0.37,1645175480.515625,P13,D06,1,0,0
2106,0.23,1645175480.53125,P13,D06,1,0,0
2107,0.24,1645175480.546875,P13,D06,1,0,0
2108,0.36,1645175480.5625,P13,D06,1,0,0
2109,0.49,1645175480.578125,P13,D06,1,0,0
2110,0.54,1645175480.59375,P13,D06,1,0,0
2111,0.46,1645175480.609375,P13,D06,1,0,0
2112,0.25,1645175480.625,P13,D06,1,0,0
2113,-0.02,1645175480.640625,P13,D06,1,0,0
2114,-0.27,1645175480.65625,P13,D06,1,0,0
2115,-0.49,1645175480.671875,P13,D06,1,0,0
2116,-0.67,1645175480.6875,P13,D06,1,0,0
2117,-0.89,1645175480.703125,P13,D06,1,0,0
2118,-1.18,1645175480.71875,P13,D06,1,0,0
2119,-1.56,1645175480.734375,P13,D06,1,0,0
2120,-2.0,1645175480.75,P13,D06,1,0,0
2121,-2.45,1645175480.765625,P13,D06,1,0,0
2122,-2.85,1645175480.78125,P13,D06,1,0,0
2123,-3.16,1645175480.796875,P13,D06,1,0,0
2124,-3.35,1645175480.8125,P13,D06,1,0,0
2125,-3.38,1645175480.828125,P13,D06,1,0,0
2126,-3.23,1645175480.84375,P13,D06,1,0,0
2127,-2.86,1645175480.859375,P13,D06,1,0,0
2128,-2.29,1645175480.875,P13,D06,1,0,0
2129,-1.55,1645175480.890625,P13,D06,1,0,0
2130,-0.75,1645175480.90625,P13,D06,1,0,0
2131,-0.0,1645175480.921875,P13,D06,1,0,0
2132,0.57,1645175480.9375,P13,D06,1,0,0
2133,0.93,1645175480.953125,P13,D06,1,0,0
2134,1.08,1645175480.96875,P13,D06,1,0,0
2135,1.09,1645175480.984375,P13,D06,1,0,0
2136,1.05,1645175481.0,P13,D06,1,0,0
2137,1.0,1645175481.015625,P13,D06,1,0,0
2138,0.95,1645175481.03125,P13,D06,1,0,0
2139,0.86,1645175481.046875,P13,D06,1,0,0
2140,0.7,1645175481.0625,P13,D06,1,0,0
2141,0.49,1645175481.078125,P13,D06,1,0,0
2142,0.26,1645175481.09375,P13,D06,1,0,0
2143,0.11,1645175481.109375,P13,D06,1,0,0
2144,0.05,1645175481.125,P13,D06,1,0,0
2145,0.07,1645175481.140625,P13,D06,1,0,0
2146,0.09,1645175481.15625,P13,D06,1,0,0
2147,0.03,1645175481.171875,P13,D06,1,0,0
2148,-0.15,1645175481.1875,P13,D06,1,0,0
2149,-0.4,1645175481.203125,P13,D06,1,0,0
2150,-0.63,1645175481.21875,P13,D06,1,0,0
2151,-0.73,1645175481.234375,P13,D06,1,0,0
2152,-0.69,1645175481.25,P13,D06,1,0,0
2153,-0.57,1645175481.265625,P13,D06,1,0,0
2154,-0.49,1645175481.28125,P13,D06,1,0,0
2155,-0.53,1645175481.296875,P13,D06,1,0,0
2156,-0.72,1645175481.3125,P13,D06,1,0,0
2157,-1.02,1645175481.328125,P13,D06,1,0,0
2158,-1.3,1645175481.34375,P13,D06,1,0,0
2159,-1.46,1645175481.359375,P13,D06,1,0,0
2160,-1.42,1645175481.375,P13,D06,1,0,0
2161,-1.18,1645175481.390625,P13,D06,1,0,0
2162,-0.77,1645175481.40625,P13,D06,1,0,0
2163,-0.29,1645175481.421875,P13,D06,1,0,0
2164,0.18,1645175481.4375,P13,D06,1,0,0
2165,0.55,1645175481.453125,P13,D06,1,0,0
2166,0.79,1645175481.46875,P13,D06,1,0,0
2167,0.91,1645175481.484375,P13,D06,1,0,0
2168,0.97,1645175481.5,P13,D06,1,0,0
2169,1.04,1645175481.515625,P13,D06,1,0,0
2170,1.17,1645175481.53125,P13,D06,1,0,0
2171,1.32,1645175481.546875,P13,D06,1,0,0
2172,1.41,1645175481.5625,P13,D06,1,0,0
2173,1.39,1645175481.578125,P13,D06,1,0,0
2174,1.22,1645175481.59375,P13,D06,1,0,0
2175,0.99,1645175481.609375,P13,D06,1,0,0
2176,0.8,1645175481.625,P13,D06,1,0,0
2177,0.75,1645175481.640625,P13,D06,1,0,0
2178,0.83,1645175481.65625,P13,D06,1,0,0
2179,0.98,1645175481.671875,P13,D06,1,0,0
2180,1.06,1645175481.6875,P13,D06,1,0,0
2181,0.94,1645175481.703125,P13,D06,1,0,0
2182,0.63,1645175481.71875,P13,D06,1,0,0
2183,0.19,1645175481.734375,P13,D06,1,0,0
2184,-0.22,1645175481.75,P13,D06,1,0,0
2185,-0.44,1645175481.765625,P13,D06,1,0,0
2186,-0.4,1645175481.78125,P13,D06,1,0,0
2187,-0.13,1645175481.796875,P13,D06,1,0,0
2188,0.25,1645175481.8125,P13,D06,1,0,0
2189,0.57,1645175481.828125,P13,D06,1,0,0
2190,0.72,1645175481.84375,P13,D06,1,0,0
2191,0.67,1645175481.859375,P13,D06,1,0,0
2192,0.5,1645175481.875,P13,D06,1,0,0
2193,0.34,1645175481.890625,P13,D06,1,0,0
2194,0.26,1645175481.90625,P13,D06,1,0,0
2195,0.27,1645175481.921875,P13,D06,1,0,0
2196,0.26,1645175481.9375,P13,D06,1,0,0
2197,0.14,1645175481.953125,P13,D06,1,0,0
2198,-0.17,1645175481.96875,P13,D06,1,0,0
2199,-0.6,1645175481.984375,P13,D06,1,0,0
2200,-1.01,1645175482.0,P13,D06,1,0,0
2201,-1.24,1645175482.015625,P13,D06,1,0,0
2202,-1.2,1645175482.03125,P13,D06,1,0,0
2203,-0.92,1645175482.046875,P13,D06,1,0,0
2204,-0.53,1645175482.0625,P13,D06,1,0,0
2205,-0.18,1645175482.078125,P13,D06,1,0,0
2206,0.06,1645175482.09375,P13,D06,1,0,0
2207,0.16,1645175482.109375,P13,D06,1,0,0
2208,0.16,1645175482.125,P13,D06,1,0,0
2209,0.16,1645175482.140625,P13,D06,1,0,0
2210,0.21,1645175482.15625,P13,D06,1,0,0
2211,0.32,1645175482.171875,P13,D06,1,0,0
2212,0.48,1645175482.1875,P13,D06,1,0,0
2213,0.64,1645175482.203125,P13,D06,1,0,0
2214,0.74,1645175482.21875,P13,D06,1,0,0
2215,0.79,1645175482.234375,P13,D06,1,0,0
2216,0.79,1645175482.25,P13,D06,1,0,0
2217,0.76,1645175482.265625,P13,D06,1,0,0
2218,0.71,1645175482.28125,P13,D06,1,0,0
2219,0.65,1645175482.296875,P13,D06,1,0,0
2220,0.55,1645175482.3125,P13,D06,1,0,0
2221,0.4,1645175482.328125,P13,D06,1,0,0
2222,0.23,1645175482.34375,P13,D06,1,0,0
2223,0.08,1645175482.359375,P13,D06,1,0,0
2224,-0.0,1645175482.375,P13,D06,1,0,0
2225,-0.04,1645175482.390625,P13,D06,1,0,0
2226,-0.09,1645175482.40625,P13,D06,1,0,0
2227,-0.22,1645175482.421875,P13,D06,1,0,0
2228,-0.48,1645175482.4375,P13,D06,1,0,0
2229,-0.82,1645175482.453125,P13,D06,1,0,0
2230,-1.2,1645175482.46875,P13,D06,1,0,0
2231,-1.5,1645175482.484375,P13,D06,1,0,0
2232,-1.64,1645175482.5,P13,D06,1,0,0
2233,-1.61,1645175482.515625,P13,D06,1,0,0
2234,-1.42,1645175482.53125,P13,D06,1,0,0
2235,-1.14,1645175482.546875,P13,D06,1,0,0
2236,-0.84,1645175482.5625,P13,D06,1,0,0
2237,-0.57,1645175482.578125,P13,D06,1,0,0
2238,-0.35,1645175482.59375,P13,D06,1,0,0
2239,-0.18,1645175482.609375,P13,D06,1,0,0
2240,-0.05,1645175482.625,P13,D06,1,0,0
2241,0.07,1645175482.640625,P13,D06,1,0,0
2242,0.18,1645175482.65625,P13,D06,1,0,0
2243,0.29,1645175482.671875,P13,D06,1,0,0
2244,0.37,1645175482.6875,P13,D06,1,0,0
2245,0.41,1645175482.703125,P13,D06,1,0,0
2246,0.38,1645175482.71875,P13,D06,1,0,0
2247,0.31,1645175482.734375,P13,D06,1,0,0
2248,0.23,1645175482.75,P13,D06,1,0,0
2249,0.15,1645175482.765625,P13,D06,1,0,0
2250,0.05,1645175482.78125,P13,D06,1,0,0
2251,-0.1,1645175482.796875,P13,D06,1,0,0
2252,-0.34,1645175482.8125,P13,D06,1,0,0
2253,-0.64,1645175482.828125,P13,D06,1,0,0
2254,-0.89,1645175482.84375,P13,D06,1,0,0
2255,-0.98,1645175482.859375,P13,D06,1,0,0
2256,-0.79,1645175482.875,P13,D06,1,0,0
2257,-0.36,1645175482.890625,P13,D06,1,0,0
2258,0.19,1645175482.90625,P13,D06,1,0,0
2259,0.68,1645175482.921875,P13,D06,1,0,0
2260,0.95,1645175482.9375,P13,D06,1,0,0
2261,0.93,1645175482.953125,P13,D06,1,0,0
2262,0.71,1645175482.96875,P13,D06,1,0,0
2263,0.41,1645175482.984375,P13,D06,1,0,0
2264,0.16,1645175483.0,P13,D06,1,0,0
2265,-0.02,1645175483.015625,P13,D06,1,0,0
2266,-0.15,1645175483.03125,P13,D06,1,0,0
2267,-0.28,1645175483.046875,P13,D06,1,0,0
2268,-0.42,1645175483.0625,P13,D06,1,0,0
2269,-0.52,1645175483.078125,P13,D06,1,0,0
2270,-0.53,1645175483.09375,P13,D06,1,0,0
2271,-0.43,1645175483.109375,P13,D06,1,0,0
2272,-0.28,1645175483.125,P13,D06,1,0,0
2273,-0.17,1645175483.140625,P13,D06,1,0,0
2274,-0.19,1645175483.15625,P13,D06,1,0,0
2275,-0.32,1645175483.171875,P13,D06,1,0,0
2276,-0.49,1645175483.1875,P13,D06,1,0,0
2277,-0.55,1645175483.203125,P13,D06,1,0,0
2278,-0.44,1645175483.21875,P13,D06,1,0,0
2279,-0.15,1645175483.234375,P13,D06,1,0,0
2280,0.21,1645175483.25,P13,D06,1,0,0
2281,0.53,1645175483.265625,P13,D06,1,0,0
2282,0.74,1645175483.28125,P13,D06,1,0,0
2283,0.82,1645175483.296875,P13,D06,1,0,0
2284,0.82,1645175483.3125,P13,D06,1,0,0
2285,0.79,1645175483.328125,P13,D06,1,0,0
2286,0.7,1645175483.34375,P13,D06,1,0,0
2287,0.54,1645175483.359375,P13,D06,1,0,0
2288,0.29,1645175483.375,P13,D06,1,0,0
2289,0.0,1645175483.390625,P13,D06,1,0,0
2290,-0.21,1645175483.40625,P13,D06,1,0,0
2291,-0.24,1645175483.421875,P13,D06,1,0,0
2292,-0.06,1645175483.4375,P13,D06,1,0,0
2293,0.24,1645175483.453125,P13,D06,1,0,0
2294,0.5,1645175483.46875,P13,D06,1,0,0
2295,0.6,1645175483.484375,P13,D06,1,0,0
2296,0.49,1645175483.5,P13,D06,1,0,0
2297,0.24,1645175483.515625,P13,D06,1,0,0
2298,-0.02,1645175483.53125,P13,D06,1,0,0
2299,-0.16,1645175483.546875,P13,D06,1,0,0
2300,-0.16,1645175483.5625,P13,D06,1,0,0
2301,-0.03,1645175483.578125,P13,D06,1,0,0
2302,0.13,1645175483.59375,P13,D06,1,0,0
2303,0.28,1645175483.609375,P13,D06,1,0,0
2304,0.41,1645175483.625,P13,D06,1,0,0
2305,0.51,1645175483.640625,P13,D06,1,0,0
2306,0.56,1645175483.65625,P13,D06,1,0,0
2307,0.52,1645175483.671875,P13,D06,1,0,0
2308,0.34,1645175483.6875,P13,D06,1,0,0
2309,-0.01,1645175483.703125,P13,D06,1,0,0
2310,-0.47,1645175483.71875,P13,D06,1,0,0
2311,-0.95,1645175483.734375,P13,D06,1,0,0
2312,-1.35,1645175483.75,P13,D06,1,0,0
2313,-1.6,1645175483.765625,P13,D06,1,0,0
2314,-1.68,1645175483.78125,P13,D06,1,0,0
2315,-1.59,1645175483.796875,P13,D06,1,0,0
2316,-1.37,1645175483.8125,P13,D06,1,0,0
2317,-1.01,1645175483.828125,P13,D06,1,0,0
2318,-0.55,1645175483.84375,P13,D06,1,0,0
2319,-0.06,1645175483.859375,P13,D06,1,0,0
2320,0.4,1645175483.875,P13,D06,1,0,0
2321,0.72,1645175483.890625,P13,D06,1,0,0
2322,0.85,1645175483.90625,P13,D06,1,0,0
2323,0.8,1645175483.921875,P13,D06,1,0,0
2324,0.61,1645175483.9375,P13,D06,1,0,0
2325,0.37,1645175483.953125,P13,D06,1,0,0
2326,0.16,1645175483.96875,P13,D06,1,0,0
2327,0.03,1645175483.984375,P13,D06,1,0,0
2328,-0.03,1645175484.0,P13,D06,1,0,0
2329,-0.01,1645175484.015625,P13,D06,1,0,0
2330,0.07,1645175484.03125,P13,D06,1,0,0
2331,0.22,1645175484.046875,P13,D06,1,0,0
2332,0.44,1645175484.0625,P13,D06,1,0,0
2333,0.72,1645175484.078125,P13,D06,1,0,0
2334,1.02,1645175484.09375,P13,D06,1,0,0
2335,1.28,1645175484.109375,P13,D06,1,0,0
2336,1.43,1645175484.125,P13,D06,1,0,0
2337,1.44,1645175484.140625,P13,D06,1,0,0
2338,1.3,1645175484.15625,P13,D06,1,0,0
2339,1.04,1645175484.171875,P13,D06,1,0,0
2340,0.7,1645175484.1875,P13,D06,1,0,0
2341,0.36,1645175484.203125,P13,D06,1,0,0
2342,0.06,1645175484.21875,P13,D06,1,0,0
2343,-0.16,1645175484.234375,P13,D06,1,0,0
2344,-0.3,1645175484.25,P13,D06,1,0,0
2345,-0.37,1645175484.265625,P13,D06,1,0,0
2346,-0.39,1645175484.28125,P13,D06,1,0,0
2347,-0.39,1645175484.296875,P13,D06,1,0,0
2348,-0.42,1645175484.3125,P13,D06,1,0,0
2349,-0.48,1645175484.328125,P13,D06,1,0,0
2350,-0.6,1645175484.34375,P13,D06,1,0,0
2351,-0.77,1645175484.359375,P13,D06,1,0,0
2352,-1.01,1645175484.375,P13,D06,1,0,0
2353,-1.31,1645175484.390625,P13,D06,1,0,0
2354,-1.61,1645175484.40625,P13,D06,1,0,0
2355,-1.87,1645175484.421875,P13,D06,1,0,0
2356,-2.02,1645175484.4375,P13,D06,1,0,0
2357,-2.07,1645175484.453125,P13,D06,1,0,0
2358,-2.04,1645175484.46875,P13,D06,1,0,0
2359,-2.0,1645175484.484375,P13,D06,1,0,0
2360,-1.97,1645175484.5,P13,D06,1,0,0
2361,-1.92,1645175484.515625,P13,D06,1,0,0
2362,-1.79,1645175484.53125,P13,D06,1,0,0
2363,-1.49,1645175484.546875,P13,D06,1,0,0
2364,-1.02,1645175484.5625,P13,D06,1,0,0
2365,-0.46,1645175484.578125,P13,D06,1,0,0
2366,0.07,1645175484.59375,P13,D06,1,0,0
2367,0.43,1645175484.609375,P13,D06,1,0,0
2368,0.56,1645175484.625,P13,D06,1,0,0
2369,0.48,1645175484.640625,P13,D06,1,0,0
2370,0.27,1645175484.65625,P13,D06,1,0,0
2371,0.07,1645175484.671875,P13,D06,1,0,0
2372,-0.09,1645175484.6875,P13,D06,1,0,0
2373,-0.16,1645175484.703125,P13,D06,1,0,0
2374,-0.2,1645175484.71875,P13,D06,1,0,0
2375,-0.23,1645175484.734375,P13,D06,1,0,0
2376,-0.25,1645175484.75,P13,D06,1,0,0
2377,-0.27,1645175484.765625,P13,D06,1,0,0
2378,-0.24,1645175484.78125,P13,D06,1,0,0
2379,-0.15,1645175484.796875,P13,D06,1,0,0
2380,-0.01,1645175484.8125,P13,D06,1,0,0
2381,0.13,1645175484.828125,P13,D06,1,0,0
2382,0.22,1645175484.84375,P13,D06,1,0,0
2383,0.25,1645175484.859375,P13,D06,1,0,0
2384,0.21,1645175484.875,P13,D06,1,0,0
2385,0.12,1645175484.890625,P13,D06,1,0,0
2386,0.01,1645175484.90625,P13,D06,1,0,0
2387,-0.09,1645175484.921875,P13,D06,1,0,0
2388,-0.17,1645175484.9375,P13,D06,1,0,0
2389,-0.19,1645175484.953125,P13,D06,1,0,0
2390,-0.12,1645175484.96875,P13,D06,1,0,0
2391,0.09,1645175484.984375,P13,D06,1,0,0
2392,0.42,1645175485.0,P13,D06,1,0,0
2393,0.81,1645175485.015625,P13,D06,1,0,0
2394,1.17,1645175485.03125,P13,D06,1,0,0
2395,1.44,1645175485.046875,P13,D06,1,0,0
2396,1.59,1645175485.0625,P13,D06,1,0,0
2397,1.64,1645175485.078125,P13,D06,1,0,0
2398,1.63,1645175485.09375,P13,D06,1,0,0
2399,1.59,1645175485.109375,P13,D06,1,0,0
2400,1.52,1645175485.125,P13,D06,1,0,0
2401,1.41,1645175485.140625,P13,D06,1,0,0
2402,1.24,1645175485.15625,P13,D06,1,0,0
2403,1.01,1645175485.171875,P13,D06,1,0,0
2404,0.79,1645175485.1875,P13,D06,1,0,0
2405,0.64,1645175485.203125,P13,D06,1,0,0
2406,0.6,1645175485.21875,P13,D06,1,0,0
2407,0.67,1645175485.234375,P13,D06,1,0,0
2408,0.79,1645175485.25,P13,D06,1,0,0
2409,0.86,1645175485.265625,P13,D06,1,0,0
2410,0.82,1645175485.28125,P13,D06,1,0,0
2411,0.65,1645175485.296875,P13,D06,1,0,0
2412,0.39,1645175485.3125,P13,D06,1,0,0
2413,0.13,1645175485.328125,P13,D06,1,0,0
2414,-0.07,1645175485.34375,P13,D06,1,0,0
2415,-0.19,1645175485.359375,P13,D06,1,0,0
2416,-0.27,1645175485.375,P13,D06,1,0,0
2417,-0.38,1645175485.390625,P13,D06,1,0,0
2418,-0.58,1645175485.40625,P13,D06,1,0,0
2419,-0.87,1645175485.421875,P13,D06,1,0,0
2420,-1.19,1645175485.4375,P13,D06,1,0,0
2421,-1.47,1645175485.453125,P13,D06,1,0,0
2422,-1.63,1645175485.46875,P13,D06,1,0,0
2423,-1.67,1645175485.484375,P13,D06,1,0,0
2424,-1.63,1645175485.5,P13,D06,1,0,0
2425,-1.54,1645175485.515625,P13,D06,1,0,0
2426,-1.45,1645175485.53125,P13,D06,1,0,0
2427,-1.37,1645175485.546875,P13,D06,1,0,0
2428,-1.3,1645175485.5625,P13,D06,1,0,0
2429,-1.2,1645175485.578125,P13,D06,1,0,0
2430,-1.08,1645175485.59375,P13,D06,1,0,0
2431,-0.92,1645175485.609375,P13,D06,1,0,0
2432,-0.73,1645175485.625,P13,D06,1,0,0
2433,-0.52,1645175485.640625,P13,D06,1,0,0
2434,-0.31,1645175485.65625,P13,D06,1,0,0
2435,-0.15,1645175485.671875,P13,D06,1,0,0
2436,-0.07,1645175485.6875,P13,D06,1,0,0
2437,-0.07,1645175485.703125,P13,D06,1,0,0
2438,-0.14,1645175485.71875,P13,D06,1,0,0
2439,-0.25,1645175485.734375,P13,D06,1,0,0
2440,-0.36,1645175485.75,P13,D06,1,0,0
2441,-0.44,1645175485.765625,P13,D06,1,0,0
2442,-0.49,1645175485.78125,P13,D06,1,0,0
2443,-0.49,1645175485.796875,P13,D06,1,0,0
2444,-0.42,1645175485.8125,P13,D06,1,0,0
2445,-0.27,1645175485.828125,P13,D06,1,0,0
2446,-0.03,1645175485.84375,P13,D06,1,0,0
2447,0.22,1645175485.859375,P13,D06,1,0,0
2448,0.41,1645175485.875,P13,D06,1,0,0
2449,0.47,1645175485.890625,P13,D06,1,0,0
2450,0.38,1645175485.90625,P13,D06,1,0,0
2451,0.16,1645175485.921875,P13,D06,1,0,0
2452,-0.07,1645175485.9375,P13,D06,1,0,0
2453,-0.22,1645175485.953125,P13,D06,1,0,0
2454,-0.23,1645175485.96875,P13,D06,1,0,0
2455,-0.1,1645175485.984375,P13,D06,1,0,0
2456,0.11,1645175486.0,P13,D06,1,0,0
2457,0.31,1645175486.015625,P13,D06,1,0,0
2458,0.45,1645175486.03125,P13,D06,1,0,0
2459,0.52,1645175486.046875,P13,D06,1,0,0
2460,0.55,1645175486.0625,P13,D06,1,0,0
2461,0.57,1645175486.078125,P13,D06,1,0,0
2462,0.58,1645175486.09375,P13,D06,1,0,0
2463,0.58,1645175486.109375,P13,D06,1,0,0
2464,0.53,1645175486.125,P13,D06,1,0,0
2465,0.43,1645175486.140625,P13,D06,1,0,0
2466,0.32,1645175486.15625,P13,D06,1,0,0
2467,0.23,1645175486.171875,P13,D06,1,0,0
2468,0.19,1645175486.1875,P13,D06,1,0,0
2469,0.17,1645175486.203125,P13,D06,1,0,0
2470,0.13,1645175486.21875,P13,D06,1,0,0
2471,0.03,1645175486.234375,P13,D06,1,0,0
2472,-0.09,1645175486.25,P13,D06,1,0,0
2473,-0.18,1645175486.265625,P13,D06,1,0,0
2474,-0.18,1645175486.28125,P13,D06,1,0,0
2475,-0.08,1645175486.296875,P13,D06,1,0,0
2476,0.08,1645175486.3125,P13,D06,1,0,0
2477,0.22,1645175486.328125,P13,D06,1,0,0
2478,0.29,1645175486.34375,P13,D06,1,0,0
2479,0.29,1645175486.359375,P13,D06,1,0,0
2480,0.24,1645175486.375,P13,D06,1,0,0
2481,0.16,1645175486.390625,P13,D06,1,0,0
2482,0.07,1645175486.40625,P13,D06,1,0,0
2483,-0.04,1645175486.421875,P13,D06,1,0,0
2484,-0.15,1645175486.4375,P13,D06,1,0,0
2485,-0.22,1645175486.453125,P13,D06,1,0,0
2486,-0.14,1645175486.46875,P13,D06,1,0,0
2487,0.15,1645175486.484375,P13,D06,1,0,0
2488,0.64,1645175486.5,P13,D06,1,0,0
2489,1.19,1645175486.515625,P13,D06,1,0,0
2490,1.65,1645175486.53125,P13,D06,1,0,0
2491,1.87,1645175486.546875,P13,D06,1,0,0
2492,1.8,1645175486.5625,P13,D06,1,0,0
2493,1.5,1645175486.578125,P13,D06,1,0,0
2494,1.11,1645175486.59375,P13,D06,1,0,0
2495,0.76,1645175486.609375,P13,D06,1,0,0
2496,0.54,1645175486.625,P13,D06,1,0,0
2497,0.49,1645175486.640625,P13,D06,1,0,0
2498,0.58,1645175486.65625,P13,D06,1,0,0
2499,0.74,1645175486.671875,P13,D06,1,0,0
2500,0.93,1645175486.6875,P13,D06,1,0,0
2501,1.09,1645175486.703125,P13,D06,1,0,0
2502,1.17,1645175486.71875,P13,D06,1,0,0
2503,1.15,1645175486.734375,P13,D06,1,0,0
2504,1.03,1645175486.75,P13,D06,1,0,0
2505,0.85,1645175486.765625,P13,D06,1,0,0
2506,0.62,1645175486.78125,P13,D06,1,0,0
2507,0.39,1645175486.796875,P13,D06,1,0,0
2508,0.18,1645175486.8125,P13,D06,1,0,0
2509,0.02,1645175486.828125,P13,D06,1,0,0
2510,-0.06,1645175486.84375,P13,D06,1,0,0
2511,-0.04,1645175486.859375,P13,D06,1,0,0
2512,0.07,1645175486.875,P13,D06,1,0,0
2513,0.25,1645175486.890625,P13,D06,1,0,0
2514,0.42,1645175486.90625,P13,D06,1,0,0
2515,0.56,1645175486.921875,P13,D06,1,0,0
2516,0.64,1645175486.9375,P13,D06,1,0,0
2517,0.66,1645175486.953125,P13,D06,1,0,0
2518,0.62,1645175486.96875,P13,D06,1,0,0
2519,0.52,1645175486.984375,P13,D06,1,0,0
2520,0.34,1645175487.0,P13,D06,1,0,0
2521,0.08,1645175487.015625,P13,D06,1,0,0
2522,-0.24,1645175487.03125,P13,D06,1,0,0
2523,-0.53,1645175487.046875,P13,D06,1,0,0
2524,-0.73,1645175487.0625,P13,D06,1,0,0
2525,-0.78,1645175487.078125,P13,D06,1,0,0
2526,-0.7,1645175487.09375,P13,D06,1,0,0
2527,-0.59,1645175487.109375,P13,D06,1,0,0
2528,-0.54,1645175487.125,P13,D06,1,0,0
2529,-0.6,1645175487.140625,P13,D06,1,0,0
2530,-0.74,1645175487.15625,P13,D06,1,0,0
2531,-0.89,1645175487.171875,P13,D06,1,0,0
2532,-0.98,1645175487.1875,P13,D06,1,0,0
2533,-0.98,1645175487.203125,P13,D06,1,0,0
2534,-0.92,1645175487.21875,P13,D06,1,0,0
2535,-0.87,1645175487.234375,P13,D06,1,0,0
2536,-0.84,1645175487.25,P13,D06,1,0,0
2537,-0.85,1645175487.265625,P13,D06,1,0,0
2538,-0.83,1645175487.28125,P13,D06,1,0,0
2539,-0.74,1645175487.296875,P13,D06,1,0,0
2540,-0.56,1645175487.3125,P13,D06,1,0,0
2541,-0.33,1645175487.328125,P13,D06,1,0,0
2542,-0.12,1645175487.34375,P13,D06,1,0,0
2543,0.01,1645175487.359375,P13,D06,1,0,0
2544,0.02,1645175487.375,P13,D06,1,0,0
2545,-0.05,1645175487.390625,P13,D06,1,0,0
2546,-0.14,1645175487.40625,P13,D06,1,0,0
2547,-0.16,1645175487.421875,P13,D06,1,0,0
2548,-0.03,1645175487.4375,P13,D06,1,0,0
2549,0.25,1645175487.453125,P13,D06,1,0,0
2550,0.6,1645175487.46875,P13,D06,1,0,0
2551,0.91,1645175487.484375,P13,D06,1,0,0
2552,1.06,1645175487.5,P13,D06,1,0,0
2553,0.96,1645175487.515625,P13,D06,1,0,0
2554,0.64,1645175487.53125,P13,D06,1,0,0
2555,0.22,1645175487.546875,P13,D06,1,0,0
2556,-0.17,1645175487.5625,P13,D06,1,0,0
2557,-0.42,1645175487.578125,P13,D06,1,0,0
2558,-0.52,1645175487.59375,P13,D06,1,0,0
2559,-0.54,1645175487.609375,P13,D06,1,0,0
2560,-0.57,1645175487.625,P13,D06,1,0,0
2561,-0.69,1645175487.640625,P13,D06,1,0,0
2562,-0.85,1645175487.65625,P13,D06,1,0,0
2563,-0.98,1645175487.671875,P13,D06,1,0,0
2564,-0.96,1645175487.6875,P13,D06,1,0,0
2565,-0.75,1645175487.703125,P13,D06,1,0,0
2566,-0.38,1645175487.71875,P13,D06,1,0,0
2567,0.05,1645175487.734375,P13,D06,1,0,0
2568,0.4,1645175487.75,P13,D06,1,0,0
2569,0.56,1645175487.765625,P13,D06,1,0,0
2570,0.5,1645175487.78125,P13,D06,1,0,0
2571,0.27,1645175487.796875,P13,D06,1,0,0
2572,-0.0,1645175487.8125,P13,D06,1,0,0
2573,-0.2,1645175487.828125,P13,D06,1,0,0
2574,-0.24,1645175487.84375,P13,D06,1,0,0
2575,-0.14,1645175487.859375,P13,D06,1,0,0
2576,-0.0,1645175487.875,P13,D06,1,0,0
2577,0.08,1645175487.890625,P13,D06,1,0,0
2578,0.03,1645175487.90625,P13,D06,1,0,0
2579,-0.11,1645175487.921875,P13,D06,1,0,0
2580,-0.25,1645175487.9375,P13,D06,1,0,0
2581,-0.3,1645175487.953125,P13,D06,1,0,0
2582,-0.24,1645175487.96875,P13,D06,1,0,0
2583,-0.11,1645175487.984375,P13,D06,1,0,0
2584,-0.0,1645175488.0,P13,D06,1,0,0
2585,0.04,1645175488.015625,P13,D06,1,0,0
2586,0.02,1645175488.03125,P13,D06,1,0,0
2587,0.01,1645175488.046875,P13,D06,1,0,0
2588,0.08,1645175488.0625,P13,D06,1,0,0
2589,0.22,1645175488.078125,P13,D06,1,0,0
2590,0.37,1645175488.09375,P13,D06,1,0,0
2591,0.46,1645175488.109375,P13,D06,1,0,0
2592,0.43,1645175488.125,P13,D06,1,0,0
2593,0.3,1645175488.140625,P13,D06,1,0,0
2594,0.13,1645175488.15625,P13,D06,1,0,0
2595,-0.04,1645175488.171875,P13,D06,1,0,0
2596,-0.18,1645175488.1875,P13,D06,1,0,0
2597,-0.32,1645175488.203125,P13,D06,1,0,0
2598,-0.46,1645175488.21875,P13,D06,1,0,0
2599,-0.59,1645175488.234375,P13,D06,1,0,0
2600,-0.66,1645175488.25,P13,D06,1,0,0
2601,-0.61,1645175488.265625,P13,D06,1,0,0
2602,-0.41,1645175488.28125,P13,D06,1,0,0
2603,-0.07,1645175488.296875,P13,D06,1,0,0
2604,0.31,1645175488.3125,P13,D06,1,0,0
2605,0.65,1645175488.328125,P13,D06,1,0,0
2606,0.84,1645175488.34375,P13,D06,1,0,0
2607,0.83,1645175488.359375,P13,D06,1,0,0
2608,0.66,1645175488.375,P13,D06,1,0,0
2609,0.39,1645175488.390625,P13,D06,1,0,0
2610,0.15,1645175488.40625,P13,D06,1,0,0
2611,0.01,1645175488.421875,P13,D06,1,0,0
2612,0.02,1645175488.4375,P13,D06,1,0,0
2613,0.14,1645175488.453125,P13,D06,1,0,0
2614,0.32,1645175488.46875,P13,D06,1,0,0
2615,0.49,1645175488.484375,P13,D06,1,0,0
2616,0.6,1645175488.5,P13,D06,1,0,0
2617,0.65,1645175488.515625,P13,D06,1,0,0
2618,0.66,1645175488.53125,P13,D06,1,0,0
2619,0.62,1645175488.546875,P13,D06,1,0,0
2620,0.54,1645175488.5625,P13,D06,1,0,0
2621,0.39,1645175488.578125,P13,D06,1,0,0
2622,0.2,1645175488.59375,P13,D06,1,0,0
2623,0.02,1645175488.609375,P13,D06,1,0,0
2624,-0.09,1645175488.625,P13,D06,1,0,0
2625,-0.1,1645175488.640625,P13,D06,1,0,0
2626,-0.03,1645175488.65625,P13,D06,1,0,0
2627,0.03,1645175488.671875,P13,D06,1,0,0
2628,-0.02,1645175488.6875,P13,D06,1,0,0
2629,-0.22,1645175488.703125,P13,D06,1,0,0
2630,-0.53,1645175488.71875,P13,D06,1,0,0
2631,-0.85,1645175488.734375,P13,D06,1,0,0
2632,-1.05,1645175488.75,P13,D06,1,0,0
2633,-1.06,1645175488.765625,P13,D06,1,0,0
2634,-0.88,1645175488.78125,P13,D06,1,0,0
2635,-0.57,1645175488.796875,P13,D06,1,0,0
2636,-0.2,1645175488.8125,P13,D06,1,0,0
2637,0.18,1645175488.828125,P13,D06,1,0,0
2638,0.51,1645175488.84375,P13,D06,1,0,0
2639,0.78,1645175488.859375,P13,D06,1,0,0
2640,0.96,1645175488.875,P13,D06,1,0,0
2641,1.03,1645175488.890625,P13,D06,1,0,0
2642,0.99,1645175488.90625,P13,D06,1,0,0
2643,0.88,1645175488.921875,P13,D06,1,0,0
2644,0.72,1645175488.9375,P13,D06,1,0,0
2645,0.56,1645175488.953125,P13,D06,1,0,0
2646,0.39,1645175488.96875,P13,D06,1,0,0
2647,0.21,1645175488.984375,P13,D06,1,0,0
2648,-0.0,1645175489.0,P13,D06,1,0,0
2649,-0.25,1645175489.015625,P13,D06,1,0,0
2650,-0.5,1645175489.03125,P13,D06,1,0,0
2651,-0.69,1645175489.046875,P13,D06,1,0,0
2652,-0.76,1645175489.0625,P13,D06,1,0,0
2653,-0.68,1645175489.078125,P13,D06,1,0,0
2654,-0.49,1645175489.09375,P13,D06,1,0,0
2655,-0.25,1645175489.109375,P13,D06,1,0,0
2656,-0.02,1645175489.125,P13,D06,1,0,0
2657,0.12,1645175489.140625,P13,D06,1,0,0
2658,0.17,1645175489.15625,P13,D06,1,0,0
2659,0.13,1645175489.171875,P13,D06,1,0,0
2660,0.04,1645175489.1875,P13,D06,1,0,0
2661,-0.07,1645175489.203125,P13,D06,1,0,0
2662,-0.18,1645175489.21875,P13,D06,1,0,0
2663,-0.31,1645175489.234375,P13,D06,1,0,0
2664,-0.45,1645175489.25,P13,D06,1,0,0
2665,-0.56,1645175489.265625,P13,D06,1,0,0
2666,-0.58,1645175489.28125,P13,D06,1,0,0
2667,-0.48,1645175489.296875,P13,D06,1,0,0
2668,-0.24,1645175489.3125,P13,D06,1,0,0
2669,0.07,1645175489.328125,P13,D06,1,0,0
2670,0.36,1645175489.34375,P13,D06,1,0,0
2671,0.51,1645175489.359375,P13,D06,1,0,0
2672,0.48,1645175489.375,P13,D06,1,0,0
2673,0.28,1645175489.390625,P13,D06,1,0,0
2674,0.02,1645175489.40625,P13,D06,1,0,0
2675,-0.2,1645175489.421875,P13,D06,1,0,0
2676,-0.31,1645175489.4375,P13,D06,1,0,0
2677,-0.28,1645175489.453125,P13,D06,1,0,0
2678,-0.15,1645175489.46875,P13,D06,1,0,0
2679,0.02,1645175489.484375,P13,D06,1,0,0
2680,0.17,1645175489.5,P13,D06,1,0,0
2681,0.28,1645175489.515625,P13,D06,1,0,0
2682,0.34,1645175489.53125,P13,D06,1,0,0
2683,0.36,1645175489.546875,P13,D06,1,0,0
2684,0.35,1645175489.5625,P13,D06,1,0,0
2685,0.3,1645175489.578125,P13,D06,1,0,0
2686,0.21,1645175489.59375,P13,D06,1,0,0
2687,0.09,1645175489.609375,P13,D06,1,0,0
2688,-0.03,1645175489.625,P13,D06,1,0,0
2689,-0.12,1645175489.640625,P13,D06,1,0,0
2690,-0.17,1645175489.65625,P13,D06,1,0,0
2691,-0.16,1645175489.671875,P13,D06,1,0,0
2692,-0.1,1645175489.6875,P13,D06,1,0,0
2693,0.02,1645175489.703125,P13,D06,1,0,0
2694,0.18,1645175489.71875,P13,D06,1,0,0
2695,0.37,1645175489.734375,P13,D06,1,0,0
2696,0.55,1645175489.75,P13,D06,1,0,0
2697,0.66,1645175489.765625,P13,D06,1,0,0
2698,0.66,1645175489.78125,P13,D06,1,0,0
2699,0.51,1645175489.796875,P13,D06,1,0,0
2700,0.24,1645175489.8125,P13,D06,1,0,0
2701,-0.09,1645175489.828125,P13,D06,1,0,0
2702,-0.41,1645175489.84375,P13,D06,1,0,0
2703,-0.67,1645175489.859375,P13,D06,1,0,0
2704,-0.82,1645175489.875,P13,D06,1,0,0
2705,-0.83,1645175489.890625,P13,D06,1,0,0
2706,-0.69,1645175489.90625,P13,D06,1,0,0
2707,-0.43,1645175489.921875,P13,D06,1,0,0
2708,-0.09,1645175489.9375,P13,D06,1,0,0
2709,0.24,1645175489.953125,P13,D06,1,0,0
2710,0.44,1645175489.96875,P13,D06,1,0,0
2711,0.44,1645175489.984375,P13,D06,1,0,0
2712,0.25,1645175490.0,P13,D06,1,0,0
2713,-0.07,1645175490.015625,P13,D06,1,0,0
2714,-0.39,1645175490.03125,P13,D06,1,0,0
2715,-0.58,1645175490.046875,P13,D06,1,0,0
2716,-0.59,1645175490.0625,P13,D06,1,0,0
2717,-0.42,1645175490.078125,P13,D06,1,0,0
2718,-0.13,1645175490.09375,P13,D06,1,0,0
2719,0.22,1645175490.109375,P13,D06,1,0,0
2720,0.56,1645175490.125,P13,D06,1,0,0
2721,0.84,1645175490.140625,P13,D06,1,0,0
2722,1.06,1645175490.15625,P13,D06,1,0,0
2723,1.22,1645175490.171875,P13,D06,1,0,0
2724,1.33,1645175490.1875,P13,D06,1,0,0
2725,1.41,1645175490.203125,P13,D06,1,0,0
2726,1.47,1645175490.21875,P13,D06,1,0,0
2727,1.48,1645175490.234375,P13,D06,1,0,0
2728,1.43,1645175490.25,P13,D06,1,0,0
2729,1.3,1645175490.265625,P13,D06,1,0,0
2730,1.12,1645175490.28125,P13,D06,1,0,0
2731,0.93,1645175490.296875,P13,D06,1,0,0
2732,0.76,1645175490.3125,P13,D06,1,0,0
2733,0.63,1645175490.328125,P13,D06,1,0,0
2734,0.5,1645175490.34375,P13,D06,1,0,0
2735,0.31,1645175490.359375,P13,D06,1,0,0
2736,-0.01,1645175490.375,P13,D06,1,0,0
2737,-0.47,1645175490.390625,P13,D06,1,0,0
2738,-1.04,1645175490.40625,P13,D06,1,0,0
2739,-1.65,1645175490.421875,P13,D06,1,0,0
2740,-2.22,1645175490.4375,P13,D06,1,0,0
2741,-2.74,1645175490.453125,P13,D06,1,0,0
2742,-3.21,1645175490.46875,P13,D06,1,0,0
2743,-3.66,1645175490.484375,P13,D06,1,0,0
2744,-4.09,1645175490.5,P13,D06,1,0,0
2745,-4.4,1645175490.515625,P13,D06,1,0,0
2746,-4.48,1645175490.53125,P13,D06,1,0,0
2747,-4.19,1645175490.546875,P13,D06,1,0,0
2748,-3.51,1645175490.5625,P13,D06,1,0,0
2749,-2.52,1645175490.578125,P13,D06,1,0,0
2750,-1.39,1645175490.59375,P13,D06,1,0,0
2751,-0.35,1645175490.609375,P13,D06,1,0,0
2752,0.44,1645175490.625,P13,D06,1,0,0
2753,0.9,1645175490.640625,P13,D06,1,0,0
2754,1.04,1645175490.65625,P13,D06,1,0,0
2755,0.95,1645175490.671875,P13,D06,1,0,0
2756,0.71,1645175490.6875,P13,D06,1,0,0
2757,0.43,1645175490.703125,P13,D06,1,0,0
2758,0.13,1645175490.71875,P13,D06,1,0,0
2759,-0.17,1645175490.734375,P13,D06,1,0,0
2760,-0.48,1645175490.75,P13,D06,1,0,0
2761,-0.81,1645175490.765625,P13,D06,1,0,0
2762,-1.15,1645175490.78125,P13,D06,1,0,0
2763,-1.41,1645175490.796875,P13,D06,1,0,0
2764,-1.5,1645175490.8125,P13,D06,1,0,0
2765,-1.33,1645175490.828125,P13,D06,1,0,0
2766,-0.86,1645175490.84375,P13,D06,1,0,0
2767,-0.18,1645175490.859375,P13,D06,1,0,0
2768,0.58,1645175490.875,P13,D06,1,0,0
2769,1.25,1645175490.890625,P13,D06,1,0,0
2770,1.77,1645175490.90625,P13,D06,1,0,0
2771,2.13,1645175490.921875,P13,D06,1,0,0
2772,2.41,1645175490.9375,P13,D06,1,0,0
2773,2.7,1645175490.953125,P13,D06,1,0,0
2774,3.1,1645175490.96875,P13,D06,1,0,0
2775,3.66,1645175490.984375,P13,D06,1,0,0
2776,4.41,1645175491.0,P13,D06,1,0,0
2777,5.33,1645175491.015625,P13,D06,1,0,0
2778,6.36,1645175491.03125,P13,D06,1,0,0
2779,7.34,1645175491.046875,P13,D06,1,0,0
2780,8.07,1645175491.0625,P13,D06,1,0,0
2781,8.36,1645175491.078125,P13,D06,1,0,0
2782,8.19,1645175491.09375,P13,D06,1,0,0
2783,7.7,1645175491.109375,P13,D06,1,0,0
2784,7.23,1645175491.125,P13,D06,1,0,0
2785,7.13,1645175491.140625,P13,D06,1,0,0
2786,7.67,1645175491.15625,P13,D06,1,0,0
2787,8.85,1645175491.171875,P13,D06,1,0,0
2788,10.46,1645175491.1875,P13,D06,1,0,0
2789,12.18,1645175491.203125,P13,D06,1,0,0
2790,13.64,1645175491.21875,P13,D06,1,0,0
2791,14.51,1645175491.234375,P13,D06,1,0,0
2792,14.48,1645175491.25,P13,D06,1,0,0
2793,13.35,1645175491.265625,P13,D06,1,0,0
2794,11.0,1645175491.28125,P13,D06,1,0,0
2795,7.65,1645175491.296875,P13,D06,1,0,0
2796,3.78,1645175491.3125,P13,D06,1,0,0
2797,0.16,1645175491.328125,P13,D06,1,0,0
2798,-2.48,1645175491.34375,P13,D06,1,0,0
2799,-3.69,1645175491.359375,P13,D06,1,0,0
2800,-3.49,1645175491.375,P13,D06,1,0,0
2801,-2.29,1645175491.390625,P13,D06,1,0,0
2802,-0.68,1645175491.40625,P13,D06,1,0,0
2803,0.83,1645175491.421875,P13,D06,1,0,0
2804,1.94,1645175491.4375,P13,D06,1,0,0
2805,2.58,1645175491.453125,P13,D06,1,0,0
2806,2.69,1645175491.46875,P13,D06,1,0,0
2807,2.19,1645175491.484375,P13,D06,1,0,0
2808,0.96,1645175491.5,P13,D06,1,0,0
2809,-1.0,1645175491.515625,P13,D06,1,0,0
2810,-3.47,1645175491.53125,P13,D06,1,0,0
2811,-6.01,1645175491.546875,P13,D06,1,0,0
2812,-8.14,1645175491.5625,P13,D06,1,0,0
2813,-9.5,1645175491.578125,P13,D06,1,0,0
2814,-10.02,1645175491.59375,P13,D06,1,0,0
2815,-9.86,1645175491.609375,P13,D06,1,0,0
2816,-9.32,1645175491.625,P13,D06,1,0,0
2817,-8.7,1645175491.640625,P13,D06,1,0,0
2818,-8.16,1645175491.65625,P13,D06,1,0,0
2819,-7.75,1645175491.671875,P13,D06,1,0,0
2820,-7.42,1645175491.6875,P13,D06,1,0,0
2821,-7.13,1645175491.703125,P13,D06,1,0,0
2822,-6.82,1645175491.71875,P13,D06,1,0,0
2823,-6.43,1645175491.734375,P13,D06,1,0,0
2824,-5.89,1645175491.75,P13,D06,1,0,0
2825,-5.16,1645175491.765625,P13,D06,1,0,0
2826,-4.2,1645175491.78125,P13,D06,1,0,0
2827,-3.04,1645175491.796875,P13,D06,1,0,0
2828,-1.79,1645175491.8125,P13,D06,1,0,0
2829,-0.57,1645175491.828125,P13,D06,1,0,0
2830,0.51,1645175491.84375,P13,D06,1,0,0
2831,1.36,1645175491.859375,P13,D06,1,0,0
2832,1.95,1645175491.875,P13,D06,1,0,0
2833,2.31,1645175491.890625,P13,D06,1,0,0
2834,2.49,1645175491.90625,P13,D06,1,0,0
2835,2.56,1645175491.921875,P13,D06,1,0,0
2836,2.57,1645175491.9375,P13,D06,1,0,0
2837,2.49,1645175491.953125,P13,D06,1,0,0
2838,2.24,1645175491.96875,P13,D06,1,0,0
2839,1.71,1645175491.984375,P13,D06,1,0,0
2840,0.83,1645175492.0,P13,D06,1,0,0
2841,-0.37,1645175492.015625,P13,D06,1,0,0
2842,-1.75,1645175492.03125,P13,D06,1,0,0
2843,-3.09,1645175492.046875,P13,D06,1,0,0
2844,-4.18,1645175492.0625,P13,D06,1,0,0
2845,-4.93,1645175492.078125,P13,D06,1,0,0
2846,-5.39,1645175492.09375,P13,D06,1,0,0
2847,-5.65,1645175492.109375,P13,D06,1,0,0
2848,-5.81,1645175492.125,P13,D06,1,0,0
2849,-5.87,1645175492.140625,P13,D06,1,0,0
2850,-5.77,1645175492.15625,P13,D06,1,0,0
2851,-5.48,1645175492.171875,P13,D06,1,0,0
2852,-5.04,1645175492.1875,P13,D06,1,0,0
2853,-4.53,1645175492.203125,P13,D06,1,0,0
2854,-4.06,1645175492.21875,P13,D06,1,0,0
2855,-3.66,1645175492.234375,P13,D06,1,0,0
2856,-3.27,1645175492.25,P13,D06,1,0,0
2857,-2.85,1645175492.265625,P13,D06,1,0,0
2858,-2.39,1645175492.28125,P13,D06,1,0,0
2859,-1.99,1645175492.296875,P13,D06,1,0,0
2860,-1.79,1645175492.3125,P13,D06,1,0,0
2861,-1.87,1645175492.328125,P13,D06,1,0,0
2862,-2.16,1645175492.34375,P13,D06,1,0,0
2863,-2.46,1645175492.359375,P13,D06,1,0,0
2864,-2.54,1645175492.375,P13,D06,1,0,0
2865,-2.26,1645175492.390625,P13,D06,1,0,0
2866,-1.65,1645175492.40625,P13,D06,1,0,0
2867,-0.91,1645175492.421875,P13,D06,1,0,0
2868,-0.23,1645175492.4375,P13,D06,1,0,0
2869,0.24,1645175492.453125,P13,D06,1,0,0
2870,0.47,1645175492.46875,P13,D06,1,0,0
2871,0.55,1645175492.484375,P13,D06,1,0,0
2872,0.55,1645175492.5,P13,D06,1,0,0
2873,0.52,1645175492.515625,P13,D06,1,0,0
2874,0.4,1645175492.53125,P13,D06,1,0,0
2875,0.14,1645175492.546875,P13,D06,1,0,0
2876,-0.33,1645175492.5625,P13,D06,1,0,0
2877,-0.94,1645175492.578125,P13,D06,1,0,0
2878,-1.54,1645175492.59375,P13,D06,1,0,0
2879,-1.96,1645175492.609375,P13,D06,1,0,0
2880,-2.06,1645175492.625,P13,D06,1,0,0
2881,-1.88,1645175492.640625,P13,D06,1,0,0
2882,-1.54,1645175492.65625,P13,D06,1,0,0
2883,-1.23,1645175492.671875,P13,D06,1,0,0
2884,-1.02,1645175492.6875,P13,D06,1,0,0
2885,-0.89,1645175492.703125,P13,D06,1,0,0
2886,-0.69,1645175492.71875,P13,D06,1,0,0
2887,-0.36,1645175492.734375,P13,D06,1,0,0
2888,0.1,1645175492.75,P13,D06,1,0,0
2889,0.56,1645175492.765625,P13,D06,1,0,0
2890,0.86,1645175492.78125,P13,D06,1,0,0
2891,0.97,1645175492.796875,P13,D06,1,0,0
2892,0.96,1645175492.8125,P13,D06,1,0,0
2893,0.92,1645175492.828125,P13,D06,1,0,0
2894,0.92,1645175492.84375,P13,D06,1,0,0
2895,0.87,1645175492.859375,P13,D06,1,0,0
2896,0.66,1645175492.875,P13,D06,1,0,0
2897,0.22,1645175492.890625,P13,D06,1,0,0
2898,-0.36,1645175492.90625,P13,D06,1,0,0
2899,-0.85,1645175492.921875,P13,D06,1,0,0
2900,-1.04,1645175492.9375,P13,D06,1,0,0
2901,-0.87,1645175492.953125,P13,D06,1,0,0
2902,-0.46,1645175492.96875,P13,D06,1,0,0
2903,-0.06,1645175492.984375,P13,D06,1,0,0
2904,0.12,1645175493.0,P13,D06,1,0,0
2905,0.01,1645175493.015625,P13,D06,1,0,0
2906,-0.34,1645175493.03125,P13,D06,1,0,0
