,data,timestamp,participant,document,val,arou,eng
0,-0.31,1645174399.8125,P13,D03,1,1,1
1,-0.17,1645174399.828125,P13,D03,1,1,1
2,-0.11,1645174399.84375,P13,D03,1,1,1
3,-0.12,1645174399.859375,P13,D03,1,1,1
4,-0.13,1645174399.875,P13,D03,1,1,1
5,-0.11,1645174399.890625,P13,D03,1,1,1
6,-0.08,1645174399.90625,P13,D03,1,1,1
7,-0.07,1645174399.921875,P13,D03,1,1,1
8,-0.08,1645174399.9375,P13,D03,1,1,1
9,-0.11,1645174399.953125,P13,D03,1,1,1
10,-0.12,1645174399.96875,P13,D03,1,1,1
11,-0.1,1645174399.984375,P13,D03,1,1,1
12,-0.04,1645174400.0,P13,D03,1,1,1
13,0.03,1645174400.015625,P13,D03,1,1,1
14,0.11,1645174400.03125,P13,D03,1,1,1
15,0.18,1645174400.046875,P13,D03,1,1,1
16,0.26,1645174400.0625,P13,D03,1,1,1
17,0.33,1645174400.078125,P13,D03,1,1,1
18,0.34,1645174400.09375,P13,D03,1,1,1
19,0.23,1645174400.109375,P13,D03,1,1,1
20,-0.01,1645174400.125,P13,D03,1,1,1
21,-0.35,1645174400.140625,P13,D03,1,1,1
22,-0.68,1645174400.15625,P13,D03,1,1,1
23,-0.87,1645174400.171875,P13,D03,1,1,1
24,-0.84,1645174400.1875,P13,D03,1,1,1
25,-0.61,1645174400.203125,P13,D03,1,1,1
26,-0.25,1645174400.21875,P13,D03,1,1,1
27,0.09,1645174400.234375,P13,D03,1,1,1
28,0.33,1645174400.25,P13,D03,1,1,1
29,0.48,1645174400.265625,P13,D03,1,1,1
30,0.56,1645174400.28125,P13,D03,1,1,1
31,0.62,1645174400.296875,P13,D03,1,1,1
32,0.62,1645174400.3125,P13,D03,1,1,1
33,0.52,1645174400.328125,P13,D03,1,1,1
34,0.26,1645174400.34375,P13,D03,1,1,1
35,-0.11,1645174400.359375,P13,D03,1,1,1
36,-0.46,1645174400.375,P13,D03,1,1,1
37,-0.6,1645174400.390625,P13,D03,1,1,1
38,-0.43,1645174400.40625,P13,D03,1,1,1
39,0.03,1645174400.421875,P13,D03,1,1,1
40,0.61,1645174400.4375,P13,D03,1,1,1
41,1.08,1645174400.453125,P13,D03,1,1,1
42,1.23,1645174400.46875,P13,D03,1,1,1
43,1.0,1645174400.484375,P13,D03,1,1,1
44,0.45,1645174400.5,P13,D03,1,1,1
45,-0.25,1645174400.515625,P13,D03,1,1,1
46,-0.9,1645174400.53125,P13,D03,1,1,1
47,-1.35,1645174400.546875,P13,D03,1,1,1
48,-1.54,1645174400.5625,P13,D03,1,1,1
49,-1.46,1645174400.578125,P13,D03,1,1,1
50,-1.19,1645174400.59375,P13,D03,1,1,1
51,-0.86,1645174400.609375,P13,D03,1,1,1
52,-0.57,1645174400.625,P13,D03,1,1,1
53,-0.42,1645174400.640625,P13,D03,1,1,1
54,-0.43,1645174400.65625,P13,D03,1,1,1
55,-0.58,1645174400.671875,P13,D03,1,1,1
56,-0.77,1645174400.6875,P13,D03,1,1,1
57,-0.89,1645174400.703125,P13,D03,1,1,1
58,-0.85,1645174400.71875,P13,D03,1,1,1
59,-0.68,1645174400.734375,P13,D03,1,1,1
60,-0.45,1645174400.75,P13,D03,1,1,1
61,-0.28,1645174400.765625,P13,D03,1,1,1
62,-0.26,1645174400.78125,P13,D03,1,1,1
63,-0.36,1645174400.796875,P13,D03,1,1,1
64,-0.51,1645174400.8125,P13,D03,1,1,1
65,-0.58,1645174400.828125,P13,D03,1,1,1
66,-0.49,1645174400.84375,P13,D03,1,1,1
67,-0.25,1645174400.859375,P13,D03,1,1,1
68,0.06,1645174400.875,P13,D03,1,1,1
69,0.32,1645174400.890625,P13,D03,1,1,1
70,0.48,1645174400.90625,P13,D03,1,1,1
71,0.52,1645174400.921875,P13,D03,1,1,1
72,0.51,1645174400.9375,P13,D03,1,1,1
73,0.53,1645174400.953125,P13,D03,1,1,1
74,0.6,1645174400.96875,P13,D03,1,1,1
75,0.7,1645174400.984375,P13,D03,1,1,1
76,0.79,1645174401.0,P13,D03,1,1,1
77,0.79,1645174401.015625,P13,D03,1,1,1
78,0.68,1645174401.03125,P13,D03,1,1,1
79,0.49,1645174401.046875,P13,D03,1,1,1
80,0.27,1645174401.0625,P13,D03,1,1,1
81,0.08,1645174401.078125,P13,D03,1,1,1
82,-0.02,1645174401.09375,P13,D03,1,1,1
83,0.02,1645174401.109375,P13,D03,1,1,1
84,0.17,1645174401.125,P13,D03,1,1,1
85,0.39,1645174401.140625,P13,D03,1,1,1
86,0.61,1645174401.15625,P13,D03,1,1,1
87,0.75,1645174401.171875,P13,D03,1,1,1
88,0.79,1645174401.1875,P13,D03,1,1,1
89,0.73,1645174401.203125,P13,D03,1,1,1
90,0.59,1645174401.21875,P13,D03,1,1,1
91,0.43,1645174401.234375,P13,D03,1,1,1
92,0.3,1645174401.25,P13,D03,1,1,1
93,0.23,1645174401.265625,P13,D03,1,1,1
94,0.26,1645174401.28125,P13,D03,1,1,1
95,0.37,1645174401.296875,P13,D03,1,1,1
96,0.53,1645174401.3125,P13,D03,1,1,1
97,0.68,1645174401.328125,P13,D03,1,1,1
98,0.73,1645174401.34375,P13,D03,1,1,1
99,0.63,1645174401.359375,P13,D03,1,1,1
100,0.39,1645174401.375,P13,D03,1,1,1
101,0.06,1645174401.390625,P13,D03,1,1,1
102,-0.26,1645174401.40625,P13,D03,1,1,1
103,-0.47,1645174401.421875,P13,D03,1,1,1
104,-0.54,1645174401.4375,P13,D03,1,1,1
105,-0.49,1645174401.453125,P13,D03,1,1,1
106,-0.38,1645174401.46875,P13,D03,1,1,1
107,-0.26,1645174401.484375,P13,D03,1,1,1
108,-0.18,1645174401.5,P13,D03,1,1,1
109,-0.12,1645174401.515625,P13,D03,1,1,1
110,-0.05,1645174401.53125,P13,D03,1,1,1
111,0.05,1645174401.546875,P13,D03,1,1,1
112,0.19,1645174401.5625,P13,D03,1,1,1
113,0.34,1645174401.578125,P13,D03,1,1,1
114,0.46,1645174401.59375,P13,D03,1,1,1
115,0.51,1645174401.609375,P13,D03,1,1,1
116,0.49,1645174401.625,P13,D03,1,1,1
117,0.43,1645174401.640625,P13,D03,1,1,1
118,0.39,1645174401.65625,P13,D03,1,1,1
119,0.42,1645174401.671875,P13,D03,1,1,1
120,0.54,1645174401.6875,P13,D03,1,1,1
121,0.68,1645174401.703125,P13,D03,1,1,1
122,0.76,1645174401.71875,P13,D03,1,1,1
123,0.7,1645174401.734375,P13,D03,1,1,1
124,0.5,1645174401.75,P13,D03,1,1,1
125,0.24,1645174401.765625,P13,D03,1,1,1
126,0.04,1645174401.78125,P13,D03,1,1,1
127,0.01,1645174401.796875,P13,D03,1,1,1
128,0.18,1645174401.8125,P13,D03,1,1,1
129,0.45,1645174401.828125,P13,D03,1,1,1
130,0.65,1645174401.84375,P13,D03,1,1,1
131,0.63,1645174401.859375,P13,D03,1,1,1
132,0.35,1645174401.875,P13,D03,1,1,1
133,-0.12,1645174401.890625,P13,D03,1,1,1
134,-0.61,1645174401.90625,P13,D03,1,1,1
135,-0.96,1645174401.921875,P13,D03,1,1,1
136,-1.06,1645174401.9375,P13,D03,1,1,1
137,-0.93,1645174401.953125,P13,D03,1,1,1
138,-0.64,1645174401.96875,P13,D03,1,1,1
139,-0.31,1645174401.984375,P13,D03,1,1,1
140,-0.05,1645174402.0,P13,D03,1,1,1
141,0.1,1645174402.015625,P13,D03,1,1,1
142,0.17,1645174402.03125,P13,D03,1,1,1
143,0.22,1645174402.046875,P13,D03,1,1,1
144,0.28,1645174402.0625,P13,D03,1,1,1
145,0.38,1645174402.078125,P13,D03,1,1,1
146,0.46,1645174402.09375,P13,D03,1,1,1
147,0.48,1645174402.109375,P13,D03,1,1,1
148,0.36,1645174402.125,P13,D03,1,1,1
149,0.11,1645174402.140625,P13,D03,1,1,1
150,-0.2,1645174402.15625,P13,D03,1,1,1
151,-0.51,1645174402.171875,P13,D03,1,1,1
152,-0.72,1645174402.1875,P13,D03,1,1,1
153,-0.83,1645174402.203125,P13,D03,1,1,1
154,-0.84,1645174402.21875,P13,D03,1,1,1
155,-0.8,1645174402.234375,P13,D03,1,1,1
156,-0.76,1645174402.25,P13,D03,1,1,1
157,-0.7,1645174402.265625,P13,D03,1,1,1
158,-0.62,1645174402.28125,P13,D03,1,1,1
159,-0.48,1645174402.296875,P13,D03,1,1,1
160,-0.33,1645174402.3125,P13,D03,1,1,1
161,-0.21,1645174402.328125,P13,D03,1,1,1
162,-0.18,1645174402.34375,P13,D03,1,1,1
163,-0.23,1645174402.359375,P13,D03,1,1,1
164,-0.35,1645174402.375,P13,D03,1,1,1
165,-0.46,1645174402.390625,P13,D03,1,1,1
166,-0.5,1645174402.40625,P13,D03,1,1,1
167,-0.46,1645174402.421875,P13,D03,1,1,1
168,-0.36,1645174402.4375,P13,D03,1,1,1
169,-0.23,1645174402.453125,P13,D03,1,1,1
170,-0.12,1645174402.46875,P13,D03,1,1,1
171,-0.05,1645174402.484375,P13,D03,1,1,1
172,-0.01,1645174402.5,P13,D03,1,1,1
173,0.0,1645174402.515625,P13,D03,1,1,1
174,-0.02,1645174402.53125,P13,D03,1,1,1
175,-0.06,1645174402.546875,P13,D03,1,1,1
176,-0.12,1645174402.5625,P13,D03,1,1,1
177,-0.16,1645174402.578125,P13,D03,1,1,1
178,-0.1,1645174402.59375,P13,D03,1,1,1
179,0.1,1645174402.609375,P13,D03,1,1,1
180,0.48,1645174402.625,P13,D03,1,1,1
181,0.99,1645174402.640625,P13,D03,1,1,1
182,1.55,1645174402.65625,P13,D03,1,1,1
183,2.07,1645174402.671875,P13,D03,1,1,1
184,2.49,1645174402.6875,P13,D03,1,1,1
185,2.85,1645174402.703125,P13,D03,1,1,1
186,3.23,1645174402.71875,P13,D03,1,1,1
187,3.72,1645174402.734375,P13,D03,1,1,1
188,4.32,1645174402.75,P13,D03,1,1,1
189,4.93,1645174402.765625,P13,D03,1,1,1
190,5.39,1645174402.78125,P13,D03,1,1,1
191,5.59,1645174402.796875,P13,D03,1,1,1
192,5.56,1645174402.8125,P13,D03,1,1,1
193,5.49,1645174402.828125,P13,D03,1,1,1
194,5.66,1645174402.84375,P13,D03,1,1,1
195,6.3,1645174402.859375,P13,D03,1,1,1
196,7.51,1645174402.875,P13,D03,1,1,1
197,9.16,1645174402.890625,P13,D03,1,1,1
198,10.95,1645174402.90625,P13,D03,1,1,1
199,12.51,1645174402.921875,P13,D03,1,1,1
200,13.57,1645174402.9375,P13,D03,1,1,1
201,14.1,1645174402.953125,P13,D03,1,1,1
202,14.32,1645174402.96875,P13,D03,1,1,1
203,14.67,1645174402.984375,P13,D03,1,1,1
204,15.62,1645174403.0,P13,D03,1,1,1
205,17.46,1645174403.015625,P13,D03,1,1,1
206,20.15,1645174403.03125,P13,D03,1,1,1
207,23.28,1645174403.046875,P13,D03,1,1,1
208,26.26,1645174403.0625,P13,D03,1,1,1
209,28.56,1645174403.078125,P13,D03,1,1,1
210,30.07,1645174403.09375,P13,D03,1,1,1
211,31.13,1645174403.109375,P13,D03,1,1,1
212,32.41,1645174403.125,P13,D03,1,1,1
213,34.58,1645174403.140625,P13,D03,1,1,1
214,37.92,1645174403.15625,P13,D03,1,1,1
215,42.21,1645174403.171875,P13,D03,1,1,1
216,46.78,1645174403.1875,P13,D03,1,1,1
217,50.94,1645174403.203125,P13,D03,1,1,1
218,54.22,1645174403.21875,P13,D03,1,1,1
219,56.65,1645174403.234375,P13,D03,1,1,1
220,58.57,1645174403.25,P13,D03,1,1,1
221,60.55,1645174403.265625,P13,D03,1,1,1
222,63.15,1645174403.28125,P13,D03,1,1,1
223,66.94,1645174403.296875,P13,D03,1,1,1
224,72.56,1645174403.3125,P13,D03,1,1,1
225,80.45,1645174403.328125,P13,D03,1,1,1
226,90.19,1645174403.34375,P13,D03,1,1,1
227,99.83,1645174403.359375,P13,D03,1,1,1
228,105.99,1645174403.375,P13,D03,1,1,1
229,104.81,1645174403.390625,P13,D03,1,1,1
230,93.6,1645174403.40625,P13,D03,1,1,1
231,72.24,1645174403.421875,P13,D03,1,1,1
232,43.43,1645174403.4375,P13,D03,1,1,1
233,11.68,1645174403.453125,P13,D03,1,1,1
234,-18.46,1645174403.46875,P13,D03,1,1,1
235,-43.94,1645174403.484375,P13,D03,1,1,1
236,-63.64,1645174403.5,P13,D03,1,1,1
237,-77.89,1645174403.515625,P13,D03,1,1,1
238,-87.53,1645174403.53125,P13,D03,1,1,1
239,-93.23,1645174403.546875,P13,D03,1,1,1
240,-95.46,1645174403.5625,P13,D03,1,1,1
241,-94.89,1645174403.578125,P13,D03,1,1,1
242,-92.57,1645174403.59375,P13,D03,1,1,1
243,-89.73,1645174403.609375,P13,D03,1,1,1
244,-87.33,1645174403.625,P13,D03,1,1,1
245,-85.6,1645174403.640625,P13,D03,1,1,1
246,-84.14,1645174403.65625,P13,D03,1,1,1
247,-82.32,1645174403.671875,P13,D03,1,1,1
248,-79.7,1645174403.6875,P13,D03,1,1,1
249,-76.22,1645174403.703125,P13,D03,1,1,1
250,-72.07,1645174403.71875,P13,D03,1,1,1
251,-67.61,1645174403.734375,P13,D03,1,1,1
252,-63.25,1645174403.75,P13,D03,1,1,1
253,-59.44,1645174403.765625,P13,D03,1,1,1
254,-56.49,1645174403.78125,P13,D03,1,1,1
255,-54.51,1645174403.796875,P13,D03,1,1,1
256,-53.3,1645174403.8125,P13,D03,1,1,1
257,-52.33,1645174403.828125,P13,D03,1,1,1
258,-50.92,1645174403.84375,P13,D03,1,1,1
259,-48.51,1645174403.859375,P13,D03,1,1,1
260,-44.83,1645174403.875,P13,D03,1,1,1
261,-40.0,1645174403.890625,P13,D03,1,1,1
262,-34.51,1645174403.90625,P13,D03,1,1,1
263,-29.05,1645174403.921875,P13,D03,1,1,1
264,-24.31,1645174403.9375,P13,D03,1,1,1
265,-20.81,1645174403.953125,P13,D03,1,1,1
266,-18.72,1645174403.96875,P13,D03,1,1,1
267,-17.85,1645174403.984375,P13,D03,1,1,1
268,-17.77,1645174404.0,P13,D03,1,1,1
269,-17.89,1645174404.015625,P13,D03,1,1,1
270,-17.71,1645174404.03125,P13,D03,1,1,1
271,-16.87,1645174404.046875,P13,D03,1,1,1
272,-15.22,1645174404.0625,P13,D03,1,1,1
273,-12.7,1645174404.078125,P13,D03,1,1,1
274,-9.26,1645174404.09375,P13,D03,1,1,1
275,-4.85,1645174404.109375,P13,D03,1,1,1
276,0.51,1645174404.125,P13,D03,1,1,1
277,6.55,1645174404.140625,P13,D03,1,1,1
278,12.7,1645174404.15625,P13,D03,1,1,1
279,18.19,1645174404.171875,P13,D03,1,1,1
280,22.28,1645174404.1875,P13,D03,1,1,1
281,24.53,1645174404.203125,P13,D03,1,1,1
282,24.97,1645174404.21875,P13,D03,1,1,1
283,24.01,1645174404.234375,P13,D03,1,1,1
284,22.24,1645174404.25,P13,D03,1,1,1
285,20.18,1645174404.265625,P13,D03,1,1,1
286,18.12,1645174404.28125,P13,D03,1,1,1
287,16.15,1645174404.296875,P13,D03,1,1,1
288,14.27,1645174404.3125,P13,D03,1,1,1
289,12.55,1645174404.328125,P13,D03,1,1,1
290,11.1,1645174404.34375,P13,D03,1,1,1
291,10.04,1645174404.359375,P13,D03,1,1,1
292,9.41,1645174404.375,P13,D03,1,1,1
293,9.08,1645174404.390625,P13,D03,1,1,1
294,8.78,1645174404.40625,P13,D03,1,1,1
295,8.28,1645174404.421875,P13,D03,1,1,1
296,7.46,1645174404.4375,P13,D03,1,1,1
297,6.33,1645174404.453125,P13,D03,1,1,1
298,5.08,1645174404.46875,P13,D03,1,1,1
299,3.94,1645174404.484375,P13,D03,1,1,1
300,3.07,1645174404.5,P13,D03,1,1,1
301,2.51,1645174404.515625,P13,D03,1,1,1
302,2.13,1645174404.53125,P13,D03,1,1,1
303,1.75,1645174404.546875,P13,D03,1,1,1
304,1.21,1645174404.5625,P13,D03,1,1,1
305,0.47,1645174404.578125,P13,D03,1,1,1
306,-0.32,1645174404.59375,P13,D03,1,1,1
307,-0.95,1645174404.609375,P13,D03,1,1,1
308,-1.22,1645174404.625,P13,D03,1,1,1
309,-1.08,1645174404.640625,P13,D03,1,1,1
310,-0.71,1645174404.65625,P13,D03,1,1,1
311,-0.43,1645174404.671875,P13,D03,1,1,1
312,-0.57,1645174404.6875,P13,D03,1,1,1
313,-1.35,1645174404.703125,P13,D03,1,1,1
314,-2.75,1645174404.71875,P13,D03,1,1,1
315,-4.5,1645174404.734375,P13,D03,1,1,1
316,-6.2,1645174404.75,P13,D03,1,1,1
317,-7.47,1645174404.765625,P13,D03,1,1,1
318,-8.12,1645174404.78125,P13,D03,1,1,1
319,-8.24,1645174404.796875,P13,D03,1,1,1
320,-8.17,1645174404.8125,P13,D03,1,1,1
321,-8.39,1645174404.828125,P13,D03,1,1,1
322,-9.3,1645174404.84375,P13,D03,1,1,1
323,-11.05,1645174404.859375,P13,D03,1,1,1
324,-13.46,1645174404.875,P13,D03,1,1,1
325,-16.04,1645174404.890625,P13,D03,1,1,1
326,-18.22,1645174404.90625,P13,D03,1,1,1
327,-19.57,1645174404.921875,P13,D03,1,1,1
328,-20.01,1645174404.9375,P13,D03,1,1,1
329,-19.96,1645174404.953125,P13,D03,1,1,1
330,-20.15,1645174404.96875,P13,D03,1,1,1
331,-21.32,1645174404.984375,P13,D03,1,1,1
332,-23.9,1645174405.0,P13,D03,1,1,1
333,-27.73,1645174405.015625,P13,D03,1,1,1
334,-32.05,1645174405.03125,P13,D03,1,1,1
335,-35.79,1645174405.046875,P13,D03,1,1,1
336,-38.08,1645174405.0625,P13,D03,1,1,1
337,-38.73,1645174405.078125,P13,D03,1,1,1
338,-38.37,1645174405.09375,P13,D03,1,1,1
339,-38.23,1645174405.109375,P13,D03,1,1,1
340,-39.71,1645174405.125,P13,D03,1,1,1
341,-43.81,1645174405.140625,P13,D03,1,1,1
342,-51.0,1645174405.15625,P13,D03,1,1,1
343,-60.99,1645174405.171875,P13,D03,1,1,1
344,-72.64,1645174405.1875,P13,D03,1,1,1
345,-83.74,1645174405.203125,P13,D03,1,1,1
346,-90.94,1645174405.21875,P13,D03,1,1,1
347,-90.37,1645174405.234375,P13,D03,1,1,1
348,-78.88,1645174405.25,P13,D03,1,1,1
349,-55.49,1645174405.265625,P13,D03,1,1,1
350,-22.38,1645174405.28125,P13,D03,1,1,1
351,15.31,1645174405.296875,P13,D03,1,1,1
352,51.14,1645174405.3125,P13,D03,1,1,1
353,79.57,1645174405.328125,P13,D03,1,1,1
354,97.8,1645174405.34375,P13,D03,1,1,1
355,106.34,1645174405.359375,P13,D03,1,1,1
356,108.03,1645174405.375,P13,D03,1,1,1
357,106.37,1645174405.390625,P13,D03,1,1,1
358,103.98,1645174405.40625,P13,D03,1,1,1
359,102.05,1645174405.421875,P13,D03,1,1,1
360,100.62,1645174405.4375,P13,D03,1,1,1
361,99.47,1645174405.453125,P13,D03,1,1,1
362,98.61,1645174405.46875,P13,D03,1,1,1
363,98.49,1645174405.484375,P13,D03,1,1,1
364,99.64,1645174405.5,P13,D03,1,1,1
365,102.32,1645174405.515625,P13,D03,1,1,1
366,106.34,1645174405.53125,P13,D03,1,1,1
367,111.05,1645174405.546875,P13,D03,1,1,1
368,115.7,1645174405.5625,P13,D03,1,1,1
369,119.71,1645174405.578125,P13,D03,1,1,1
370,122.9,1645174405.59375,P13,D03,1,1,1
371,125.56,1645174405.609375,P13,D03,1,1,1
372,128.29,1645174405.625,P13,D03,1,1,1
373,131.78,1645174405.640625,P13,D03,1,1,1
374,136.54,1645174405.65625,P13,D03,1,1,1
375,142.63,1645174405.671875,P13,D03,1,1,1
376,149.83,1645174405.6875,P13,D03,1,1,1
377,157.85,1645174405.703125,P13,D03,1,1,1
378,166.81,1645174405.71875,P13,D03,1,1,1
379,177.18,1645174405.734375,P13,D03,1,1,1
380,189.42,1645174405.75,P13,D03,1,1,1
381,203.12,1645174405.765625,P13,D03,1,1,1
382,216.32,1645174405.78125,P13,D03,1,1,1
383,225.59,1645174405.796875,P13,D03,1,1,1
384,226.89,1645174405.8125,P13,D03,1,1,1
385,217.03,1645174405.828125,P13,D03,1,1,1
386,194.85,1645174405.84375,P13,D03,1,1,1
387,161.53,1645174405.859375,P13,D03,1,1,1
388,119.76,1645174405.875,P13,D03,1,1,1
389,72.44,1645174405.890625,P13,D03,1,1,1
390,21.81,1645174405.90625,P13,D03,1,1,1
391,-30.4,1645174405.921875,P13,D03,1,1,1
392,-82.14,1645174405.9375,P13,D03,1,1,1
393,-130.26,1645174405.953125,P13,D03,1,1,1
394,-170.66,1645174405.96875,P13,D03,1,1,1
395,-199.38,1645174405.984375,P13,D03,1,1,1
396,-214.16,1645174406.0,P13,D03,1,1,1
397,-215.51,1645174406.015625,P13,D03,1,1,1
398,-206.67,1645174406.03125,P13,D03,1,1,1
399,-192.49,1645174406.046875,P13,D03,1,1,1
400,-177.79,1645174406.0625,P13,D03,1,1,1
401,-165.99,1645174406.078125,P13,D03,1,1,1
402,-158.32,1645174406.09375,P13,D03,1,1,1
403,-153.96,1645174406.109375,P13,D03,1,1,1
404,-150.92,1645174406.125,P13,D03,1,1,1
405,-147.15,1645174406.140625,P13,D03,1,1,1
406,-141.44,1645174406.15625,P13,D03,1,1,1
407,-133.86,1645174406.171875,P13,D03,1,1,1
408,-125.45,1645174406.1875,P13,D03,1,1,1
409,-117.38,1645174406.203125,P13,D03,1,1,1
410,-110.15,1645174406.21875,P13,D03,1,1,1
411,-103.24,1645174406.234375,P13,D03,1,1,1
412,-95.41,1645174406.25,P13,D03,1,1,1
413,-85.65,1645174406.265625,P13,D03,1,1,1
414,-74.02,1645174406.28125,P13,D03,1,1,1
415,-61.79,1645174406.296875,P13,D03,1,1,1
416,-50.82,1645174406.3125,P13,D03,1,1,1
417,-42.54,1645174406.328125,P13,D03,1,1,1
418,-37.24,1645174406.34375,P13,D03,1,1,1
419,-33.95,1645174406.359375,P13,D03,1,1,1
420,-31.06,1645174406.375,P13,D03,1,1,1
421,-27.23,1645174406.390625,P13,D03,1,1,1
422,-22.1,1645174406.40625,P13,D03,1,1,1
423,-16.37,1645174406.421875,P13,D03,1,1,1
424,-11.39,1645174406.4375,P13,D03,1,1,1
425,-8.42,1645174406.453125,P13,D03,1,1,1
426,-8.0,1645174406.46875,P13,D03,1,1,1
427,-9.72,1645174406.484375,P13,D03,1,1,1
428,-12.46,1645174406.5,P13,D03,1,1,1
429,-14.98,1645174406.515625,P13,D03,1,1,1
430,-16.52,1645174406.53125,P13,D03,1,1,1
431,-17.12,1645174406.546875,P13,D03,1,1,1
432,-17.51,1645174406.5625,P13,D03,1,1,1
433,-18.57,1645174406.578125,P13,D03,1,1,1
434,-20.77,1645174406.59375,P13,D03,1,1,1
435,-23.84,1645174406.609375,P13,D03,1,1,1
436,-26.93,1645174406.625,P13,D03,1,1,1
437,-29.09,1645174406.640625,P13,D03,1,1,1
438,-29.95,1645174406.65625,P13,D03,1,1,1
439,-29.94,1645174406.671875,P13,D03,1,1,1
440,-30.12,1645174406.6875,P13,D03,1,1,1
441,-31.66,1645174406.703125,P13,D03,1,1,1
442,-35.22,1645174406.71875,P13,D03,1,1,1
443,-40.64,1645174406.734375,P13,D03,1,1,1
444,-47.05,1645174406.75,P13,D03,1,1,1
445,-53.34,1645174406.765625,P13,D03,1,1,1
446,-58.6,1645174406.78125,P13,D03,1,1,1
447,-62.47,1645174406.796875,P13,D03,1,1,1
448,-65.12,1645174406.8125,P13,D03,1,1,1
449,-66.99,1645174406.828125,P13,D03,1,1,1
450,-68.44,1645174406.84375,P13,D03,1,1,1
451,-69.57,1645174406.859375,P13,D03,1,1,1
452,-70.21,1645174406.875,P13,D03,1,1,1
453,-70.11,1645174406.890625,P13,D03,1,1,1
454,-69.19,1645174406.90625,P13,D03,1,1,1
455,-67.72,1645174406.921875,P13,D03,1,1,1
456,-66.36,1645174406.9375,P13,D03,1,1,1
457,-65.95,1645174406.953125,P13,D03,1,1,1
458,-67.18,1645174406.96875,P13,D03,1,1,1
459,-70.32,1645174406.984375,P13,D03,1,1,1
460,-75.11,1645174407.0,P13,D03,1,1,1
461,-80.9,1645174407.015625,P13,D03,1,1,1
462,-87.05,1645174407.03125,P13,D03,1,1,1
463,-93.16,1645174407.046875,P13,D03,1,1,1
464,-99.23,1645174407.0625,P13,D03,1,1,1
465,-105.45,1645174407.078125,P13,D03,1,1,1
466,-111.87,1645174407.09375,P13,D03,1,1,1
467,-118.27,1645174407.109375,P13,D03,1,1,1
468,-124.42,1645174407.125,P13,D03,1,1,1
469,-130.4,1645174407.140625,P13,D03,1,1,1
470,-136.75,1645174407.15625,P13,D03,1,1,1
471,-144.01,1645174407.171875,P13,D03,1,1,1
472,-151.96,1645174407.1875,P13,D03,1,1,1
473,-158.89,1645174407.203125,P13,D03,1,1,1
474,-161.62,1645174407.21875,P13,D03,1,1,1
475,-156.37,1645174407.234375,P13,D03,1,1,1
476,-140.26,1645174407.25,P13,D03,1,1,1
477,-112.34,1645174407.265625,P13,D03,1,1,1
478,-73.82,1645174407.28125,P13,D03,1,1,1
479,-27.37,1645174407.296875,P13,D03,1,1,1
480,23.89,1645174407.3125,P13,D03,1,1,1
481,76.96,1645174407.328125,P13,D03,1,1,1
482,128.97,1645174407.34375,P13,D03,1,1,1
483,176.76,1645174407.359375,P13,D03,1,1,1
484,216.78,1645174407.375,P13,D03,1,1,1
485,245.64,1645174407.390625,P13,D03,1,1,1
486,261.12,1645174407.40625,P13,D03,1,1,1
487,263.03,1645174407.421875,P13,D03,1,1,1
488,253.46,1645174407.4375,P13,D03,1,1,1
489,236.08,1645174407.453125,P13,D03,1,1,1
490,214.72,1645174407.46875,P13,D03,1,1,1
491,191.9,1645174407.484375,P13,D03,1,1,1
492,168.01,1645174407.5,P13,D03,1,1,1
493,141.75,1645174407.515625,P13,D03,1,1,1
494,111.38,1645174407.53125,P13,D03,1,1,1
495,76.58,1645174407.546875,P13,D03,1,1,1
496,39.42,1645174407.5625,P13,D03,1,1,1
497,4.04,1645174407.578125,P13,D03,1,1,1
498,-25.08,1645174407.59375,P13,D03,1,1,1
499,-44.96,1645174407.609375,P13,D03,1,1,1
500,-55.14,1645174407.625,P13,D03,1,1,1
501,-57.11,1645174407.640625,P13,D03,1,1,1
502,-52.79,1645174407.65625,P13,D03,1,1,1
503,-43.16,1645174407.671875,P13,D03,1,1,1
504,-28.12,1645174407.6875,P13,D03,1,1,1
505,-7.68,1645174407.703125,P13,D03,1,1,1
506,16.51,1645174407.71875,P13,D03,1,1,1
507,40.67,1645174407.734375,P13,D03,1,1,1
508,60.04,1645174407.75,P13,D03,1,1,1
509,70.94,1645174407.765625,P13,D03,1,1,1
510,72.58,1645174407.78125,P13,D03,1,1,1
511,67.22,1645174407.796875,P13,D03,1,1,1
512,58.78,1645174407.8125,P13,D03,1,1,1
513,50.84,1645174407.828125,P13,D03,1,1,1
514,45.25,1645174407.84375,P13,D03,1,1,1
515,41.96,1645174407.859375,P13,D03,1,1,1
516,39.91,1645174407.875,P13,D03,1,1,1
517,38.15,1645174407.890625,P13,D03,1,1,1
518,36.35,1645174407.90625,P13,D03,1,1,1
519,34.76,1645174407.921875,P13,D03,1,1,1
520,33.77,1645174407.9375,P13,D03,1,1,1
521,33.5,1645174407.953125,P13,D03,1,1,1
522,33.73,1645174407.96875,P13,D03,1,1,1
523,33.94,1645174407.984375,P13,D03,1,1,1
524,33.61,1645174408.0,P13,D03,1,1,1
525,32.49,1645174408.015625,P13,D03,1,1,1
526,30.63,1645174408.03125,P13,D03,1,1,1
527,28.33,1645174408.046875,P13,D03,1,1,1
528,26.04,1645174408.0625,P13,D03,1,1,1
529,24.13,1645174408.078125,P13,D03,1,1,1
530,22.77,1645174408.09375,P13,D03,1,1,1
531,21.84,1645174408.109375,P13,D03,1,1,1
532,21.03,1645174408.125,P13,D03,1,1,1
533,20.0,1645174408.140625,P13,D03,1,1,1
534,18.56,1645174408.15625,P13,D03,1,1,1
535,16.74,1645174408.171875,P13,D03,1,1,1
536,14.73,1645174408.1875,P13,D03,1,1,1
537,12.79,1645174408.203125,P13,D03,1,1,1
538,11.11,1645174408.21875,P13,D03,1,1,1
539,9.67,1645174408.234375,P13,D03,1,1,1
540,8.33,1645174408.25,P13,D03,1,1,1
541,6.89,1645174408.265625,P13,D03,1,1,1
542,5.21,1645174408.28125,P13,D03,1,1,1
543,3.28,1645174408.296875,P13,D03,1,1,1
544,1.22,1645174408.3125,P13,D03,1,1,1
545,-0.76,1645174408.328125,P13,D03,1,1,1
546,-2.44,1645174408.34375,P13,D03,1,1,1
547,-3.63,1645174408.359375,P13,D03,1,1,1
548,-4.26,1645174408.375,P13,D03,1,1,1
549,-4.41,1645174408.390625,P13,D03,1,1,1
550,-4.3,1645174408.40625,P13,D03,1,1,1
551,-4.17,1645174408.421875,P13,D03,1,1,1
552,-4.26,1645174408.4375,P13,D03,1,1,1
553,-4.65,1645174408.453125,P13,D03,1,1,1
554,-5.26,1645174408.46875,P13,D03,1,1,1
555,-5.9,1645174408.484375,P13,D03,1,1,1
556,-6.37,1645174408.5,P13,D03,1,1,1
557,-6.56,1645174408.515625,P13,D03,1,1,1
558,-6.47,1645174408.53125,P13,D03,1,1,1
559,-6.16,1645174408.546875,P13,D03,1,1,1
560,-5.65,1645174408.5625,P13,D03,1,1,1
561,-4.88,1645174408.578125,P13,D03,1,1,1
562,-3.78,1645174408.59375,P13,D03,1,1,1
563,-2.33,1645174408.609375,P13,D03,1,1,1
564,-0.62,1645174408.625,P13,D03,1,1,1
565,1.12,1645174408.640625,P13,D03,1,1,1
566,2.67,1645174408.65625,P13,D03,1,1,1
567,3.91,1645174408.671875,P13,D03,1,1,1
568,4.93,1645174408.6875,P13,D03,1,1,1
569,5.94,1645174408.703125,P13,D03,1,1,1
570,7.16,1645174408.71875,P13,D03,1,1,1
571,8.7,1645174408.734375,P13,D03,1,1,1
572,10.47,1645174408.75,P13,D03,1,1,1
573,12.24,1645174408.765625,P13,D03,1,1,1
574,13.72,1645174408.78125,P13,D03,1,1,1
575,14.71,1645174408.796875,P13,D03,1,1,1
576,15.15,1645174408.8125,P13,D03,1,1,1
577,15.17,1645174408.828125,P13,D03,1,1,1
578,15.03,1645174408.84375,P13,D03,1,1,1
579,15.08,1645174408.859375,P13,D03,1,1,1
580,15.63,1645174408.875,P13,D03,1,1,1
581,16.86,1645174408.890625,P13,D03,1,1,1
582,18.7,1645174408.90625,P13,D03,1,1,1
583,20.91,1645174408.921875,P13,D03,1,1,1
584,23.1,1645174408.9375,P13,D03,1,1,1
585,24.91,1645174408.953125,P13,D03,1,1,1
586,26.19,1645174408.96875,P13,D03,1,1,1
587,27.02,1645174408.984375,P13,D03,1,1,1
588,27.64,1645174409.0,P13,D03,1,1,1
589,28.31,1645174409.015625,P13,D03,1,1,1
590,29.15,1645174409.03125,P13,D03,1,1,1
591,30.1,1645174409.046875,P13,D03,1,1,1
592,31.04,1645174409.0625,P13,D03,1,1,1
593,31.94,1645174409.078125,P13,D03,1,1,1
594,32.97,1645174409.09375,P13,D03,1,1,1
595,34.39,1645174409.109375,P13,D03,1,1,1
596,36.4,1645174409.125,P13,D03,1,1,1
597,38.92,1645174409.140625,P13,D03,1,1,1
598,41.64,1645174409.15625,P13,D03,1,1,1
599,44.18,1645174409.171875,P13,D03,1,1,1
600,46.35,1645174409.1875,P13,D03,1,1,1
601,48.21,1645174409.203125,P13,D03,1,1,1
602,49.94,1645174409.21875,P13,D03,1,1,1
603,51.5,1645174409.234375,P13,D03,1,1,1
604,52.31,1645174409.25,P13,D03,1,1,1
605,51.42,1645174409.265625,P13,D03,1,1,1
606,47.93,1645174409.28125,P13,D03,1,1,1
607,41.6,1645174409.296875,P13,D03,1,1,1
608,33.2,1645174409.3125,P13,D03,1,1,1
609,24.22,1645174409.328125,P13,D03,1,1,1
610,16.16,1645174409.34375,P13,D03,1,1,1
611,9.83,1645174409.359375,P13,D03,1,1,1
612,5.01,1645174409.375,P13,D03,1,1,1
613,0.89,1645174409.390625,P13,D03,1,1,1
614,-3.22,1645174409.40625,P13,D03,1,1,1
615,-7.25,1645174409.421875,P13,D03,1,1,1
616,-10.42,1645174409.4375,P13,D03,1,1,1
617,-11.93,1645174409.453125,P13,D03,1,1,1
618,-11.91,1645174409.46875,P13,D03,1,1,1
619,-11.69,1645174409.484375,P13,D03,1,1,1
620,-13.32,1645174409.5,P13,D03,1,1,1
621,-18.38,1645174409.515625,P13,D03,1,1,1
622,-26.92,1645174409.53125,P13,D03,1,1,1
623,-37.15,1645174409.546875,P13,D03,1,1,1
624,-46.26,1645174409.5625,P13,D03,1,1,1
625,-51.72,1645174409.578125,P13,D03,1,1,1
626,-52.56,1645174409.59375,P13,D03,1,1,1
627,-49.63,1645174409.609375,P13,D03,1,1,1
628,-44.98,1645174409.625,P13,D03,1,1,1
629,-40.66,1645174409.640625,P13,D03,1,1,1
630,-37.74,1645174409.65625,P13,D03,1,1,1
631,-36.08,1645174409.671875,P13,D03,1,1,1
632,-34.72,1645174409.6875,P13,D03,1,1,1
633,-32.69,1645174409.703125,P13,D03,1,1,1
634,-29.58,1645174409.71875,P13,D03,1,1,1
635,-25.77,1645174409.734375,P13,D03,1,1,1
636,-22.04,1645174409.75,P13,D03,1,1,1
637,-19.17,1645174409.765625,P13,D03,1,1,1
638,-17.53,1645174409.78125,P13,D03,1,1,1
639,-17.0,1645174409.796875,P13,D03,1,1,1
640,-17.07,1645174409.8125,P13,D03,1,1,1
641,-17.02,1645174409.828125,P13,D03,1,1,1
642,-16.29,1645174409.84375,P13,D03,1,1,1
643,-14.54,1645174409.859375,P13,D03,1,1,1
644,-11.72,1645174409.875,P13,D03,1,1,1
645,-7.97,1645174409.890625,P13,D03,1,1,1
646,-3.55,1645174409.90625,P13,D03,1,1,1
647,1.19,1645174409.921875,P13,D03,1,1,1
648,5.75,1645174409.9375,P13,D03,1,1,1
649,9.26,1645174409.953125,P13,D03,1,1,1
650,10.61,1645174409.96875,P13,D03,1,1,1
651,8.61,1645174409.984375,P13,D03,1,1,1
652,2.58,1645174410.0,P13,D03,1,1,1
653,-7.21,1645174410.015625,P13,D03,1,1,1
654,-19.4,1645174410.03125,P13,D03,1,1,1
655,-31.88,1645174410.046875,P13,D03,1,1,1
656,-42.52,1645174410.0625,P13,D03,1,1,1
657,-49.93,1645174410.078125,P13,D03,1,1,1
658,-53.84,1645174410.09375,P13,D03,1,1,1
659,-54.95,1645174410.109375,P13,D03,1,1,1
660,-54.34,1645174410.125,P13,D03,1,1,1
661,-52.86,1645174410.140625,P13,D03,1,1,1
662,-50.8,1645174410.15625,P13,D03,1,1,1
663,-48.05,1645174410.171875,P13,D03,1,1,1
664,-44.44,1645174410.1875,P13,D03,1,1,1
665,-40.17,1645174410.203125,P13,D03,1,1,1
666,-35.81,1645174410.21875,P13,D03,1,1,1
667,-32.14,1645174410.234375,P13,D03,1,1,1
668,-29.7,1645174410.25,P13,D03,1,1,1
669,-28.57,1645174410.265625,P13,D03,1,1,1
670,-28.27,1645174410.28125,P13,D03,1,1,1
671,-27.99,1645174410.296875,P13,D03,1,1,1
672,-26.84,1645174410.3125,P13,D03,1,1,1
673,-24.24,1645174410.328125,P13,D03,1,1,1
674,-20.02,1645174410.34375,P13,D03,1,1,1
675,-14.56,1645174410.359375,P13,D03,1,1,1
676,-8.59,1645174410.375,P13,D03,1,1,1
677,-3.0,1645174410.390625,P13,D03,1,1,1
678,1.49,1645174410.40625,P13,D03,1,1,1
679,4.54,1645174410.421875,P13,D03,1,1,1
680,6.28,1645174410.4375,P13,D03,1,1,1
681,7.28,1645174410.453125,P13,D03,1,1,1
682,8.27,1645174410.46875,P13,D03,1,1,1
683,9.83,1645174410.484375,P13,D03,1,1,1
684,12.21,1645174410.5,P13,D03,1,1,1
685,15.19,1645174410.515625,P13,D03,1,1,1
686,18.3,1645174410.53125,P13,D03,1,1,1
687,20.99,1645174410.546875,P13,D03,1,1,1
688,22.94,1645174410.5625,P13,D03,1,1,1
689,24.1,1645174410.578125,P13,D03,1,1,1
690,24.68,1645174410.59375,P13,D03,1,1,1
691,24.91,1645174410.609375,P13,D03,1,1,1
692,24.93,1645174410.625,P13,D03,1,1,1
693,24.71,1645174410.640625,P13,D03,1,1,1
694,24.13,1645174410.65625,P13,D03,1,1,1
695,23.14,1645174410.671875,P13,D03,1,1,1
696,21.9,1645174410.6875,P13,D03,1,1,1
697,20.71,1645174410.703125,P13,D03,1,1,1
698,19.83,1645174410.71875,P13,D03,1,1,1
699,19.39,1645174410.734375,P13,D03,1,1,1
700,19.22,1645174410.75,P13,D03,1,1,1
701,19.02,1645174410.765625,P13,D03,1,1,1
702,18.48,1645174410.78125,P13,D03,1,1,1
703,17.43,1645174410.796875,P13,D03,1,1,1
704,15.95,1645174410.8125,P13,D03,1,1,1
705,14.23,1645174410.828125,P13,D03,1,1,1
706,12.49,1645174410.84375,P13,D03,1,1,1
707,10.88,1645174410.859375,P13,D03,1,1,1
708,9.44,1645174410.875,P13,D03,1,1,1
709,8.18,1645174410.890625,P13,D03,1,1,1
710,7.07,1645174410.90625,P13,D03,1,1,1
711,6.09,1645174410.921875,P13,D03,1,1,1
712,5.14,1645174410.9375,P13,D03,1,1,1
713,4.09,1645174410.953125,P13,D03,1,1,1
714,2.8,1645174410.96875,P13,D03,1,1,1
715,1.2,1645174410.984375,P13,D03,1,1,1
716,-0.6,1645174411.0,P13,D03,1,1,1
717,-2.42,1645174411.015625,P13,D03,1,1,1
718,-4.05,1645174411.03125,P13,D03,1,1,1
719,-5.4,1645174411.046875,P13,D03,1,1,1
720,-6.51,1645174411.0625,P13,D03,1,1,1
721,-7.55,1645174411.078125,P13,D03,1,1,1
722,-8.64,1645174411.09375,P13,D03,1,1,1
723,-9.78,1645174411.109375,P13,D03,1,1,1
724,-10.78,1645174411.125,P13,D03,1,1,1
725,-11.39,1645174411.140625,P13,D03,1,1,1
726,-11.43,1645174411.15625,P13,D03,1,1,1
727,-10.92,1645174411.171875,P13,D03,1,1,1
728,-10.08,1645174411.1875,P13,D03,1,1,1
729,-9.24,1645174411.203125,P13,D03,1,1,1
730,-8.7,1645174411.21875,P13,D03,1,1,1
731,-8.55,1645174411.234375,P13,D03,1,1,1
732,-8.73,1645174411.25,P13,D03,1,1,1
733,-9.02,1645174411.265625,P13,D03,1,1,1
734,-9.19,1645174411.28125,P13,D03,1,1,1
735,-9.06,1645174411.296875,P13,D03,1,1,1
736,-8.55,1645174411.3125,P13,D03,1,1,1
737,-7.72,1645174411.328125,P13,D03,1,1,1
738,-6.74,1645174411.34375,P13,D03,1,1,1
739,-5.8,1645174411.359375,P13,D03,1,1,1
740,-5.1,1645174411.375,P13,D03,1,1,1
741,-4.7,1645174411.390625,P13,D03,1,1,1
742,-4.59,1645174411.40625,P13,D03,1,1,1
743,-4.66,1645174411.421875,P13,D03,1,1,1
744,-4.78,1645174411.4375,P13,D03,1,1,1
745,-4.86,1645174411.453125,P13,D03,1,1,1
746,-4.91,1645174411.46875,P13,D03,1,1,1
747,-4.94,1645174411.484375,P13,D03,1,1,1
748,-5.0,1645174411.5,P13,D03,1,1,1
749,-5.09,1645174411.515625,P13,D03,1,1,1
750,-5.13,1645174411.53125,P13,D03,1,1,1
751,-5.06,1645174411.546875,P13,D03,1,1,1
752,-4.86,1645174411.5625,P13,D03,1,1,1
753,-4.57,1645174411.578125,P13,D03,1,1,1
754,-4.28,1645174411.59375,P13,D03,1,1,1
755,-4.09,1645174411.609375,P13,D03,1,1,1
756,-4.03,1645174411.625,P13,D03,1,1,1
757,-4.08,1645174411.640625,P13,D03,1,1,1
758,-4.17,1645174411.65625,P13,D03,1,1,1
759,-4.19,1645174411.671875,P13,D03,1,1,1
760,-4.12,1645174411.6875,P13,D03,1,1,1
761,-3.96,1645174411.703125,P13,D03,1,1,1
762,-3.79,1645174411.71875,P13,D03,1,1,1
763,-3.64,1645174411.734375,P13,D03,1,1,1
764,-3.48,1645174411.75,P13,D03,1,1,1
765,-3.22,1645174411.765625,P13,D03,1,1,1
766,-2.71,1645174411.78125,P13,D03,1,1,1
767,-1.9,1645174411.796875,P13,D03,1,1,1
768,-0.85,1645174411.8125,P13,D03,1,1,1
769,0.21,1645174411.828125,P13,D03,1,1,1
770,1.06,1645174411.84375,P13,D03,1,1,1
771,1.55,1645174411.859375,P13,D03,1,1,1
772,1.69,1645174411.875,P13,D03,1,1,1
773,1.67,1645174411.890625,P13,D03,1,1,1
774,1.75,1645174411.90625,P13,D03,1,1,1
775,2.13,1645174411.921875,P13,D03,1,1,1
776,2.87,1645174411.9375,P13,D03,1,1,1
777,3.88,1645174411.953125,P13,D03,1,1,1
778,4.97,1645174411.96875,P13,D03,1,1,1
779,5.97,1645174411.984375,P13,D03,1,1,1
780,6.73,1645174412.0,P13,D03,1,1,1
781,7.18,1645174412.015625,P13,D03,1,1,1
782,7.3,1645174412.03125,P13,D03,1,1,1
783,7.1,1645174412.046875,P13,D03,1,1,1
784,6.63,1645174412.0625,P13,D03,1,1,1
785,5.97,1645174412.078125,P13,D03,1,1,1
786,5.23,1645174412.09375,P13,D03,1,1,1
787,4.55,1645174412.109375,P13,D03,1,1,1
788,3.99,1645174412.125,P13,D03,1,1,1
789,3.56,1645174412.140625,P13,D03,1,1,1
790,3.24,1645174412.15625,P13,D03,1,1,1
791,2.93,1645174412.171875,P13,D03,1,1,1
792,2.56,1645174412.1875,P13,D03,1,1,1
793,2.11,1645174412.203125,P13,D03,1,1,1
794,1.57,1645174412.21875,P13,D03,1,1,1
795,1.03,1645174412.234375,P13,D03,1,1,1
796,0.58,1645174412.25,P13,D03,1,1,1
797,0.3,1645174412.265625,P13,D03,1,1,1
798,0.26,1645174412.28125,P13,D03,1,1,1
799,0.45,1645174412.296875,P13,D03,1,1,1
800,0.75,1645174412.3125,P13,D03,1,1,1
801,1.01,1645174412.328125,P13,D03,1,1,1
802,1.09,1645174412.34375,P13,D03,1,1,1
803,0.92,1645174412.359375,P13,D03,1,1,1
804,0.52,1645174412.375,P13,D03,1,1,1
805,0.04,1645174412.390625,P13,D03,1,1,1
806,-0.37,1645174412.40625,P13,D03,1,1,1
807,-0.53,1645174412.421875,P13,D03,1,1,1
808,-0.42,1645174412.4375,P13,D03,1,1,1
809,-0.09,1645174412.453125,P13,D03,1,1,1
810,0.32,1645174412.46875,P13,D03,1,1,1
811,0.64,1645174412.484375,P13,D03,1,1,1
812,0.78,1645174412.5,P13,D03,1,1,1
813,0.71,1645174412.515625,P13,D03,1,1,1
814,0.5,1645174412.53125,P13,D03,1,1,1
815,0.27,1645174412.546875,P13,D03,1,1,1
816,0.13,1645174412.5625,P13,D03,1,1,1
817,0.11,1645174412.578125,P13,D03,1,1,1
818,0.18,1645174412.59375,P13,D03,1,1,1
819,0.27,1645174412.609375,P13,D03,1,1,1
820,0.28,1645174412.625,P13,D03,1,1,1
821,0.18,1645174412.640625,P13,D03,1,1,1
822,0.02,1645174412.65625,P13,D03,1,1,1
823,-0.11,1645174412.671875,P13,D03,1,1,1
824,-0.11,1645174412.6875,P13,D03,1,1,1
825,0.11,1645174412.703125,P13,D03,1,1,1
826,0.57,1645174412.71875,P13,D03,1,1,1
827,1.2,1645174412.734375,P13,D03,1,1,1
828,1.86,1645174412.75,P13,D03,1,1,1
829,2.37,1645174412.765625,P13,D03,1,1,1
830,2.6,1645174412.78125,P13,D03,1,1,1
831,2.51,1645174412.796875,P13,D03,1,1,1
832,2.16,1645174412.8125,P13,D03,1,1,1
833,1.68,1645174412.828125,P13,D03,1,1,1
834,1.2,1645174412.84375,P13,D03,1,1,1
835,0.78,1645174412.859375,P13,D03,1,1,1
836,0.44,1645174412.875,P13,D03,1,1,1
837,0.15,1645174412.890625,P13,D03,1,1,1
838,-0.06,1645174412.90625,P13,D03,1,1,1
839,-0.13,1645174412.921875,P13,D03,1,1,1
840,-0.02,1645174412.9375,P13,D03,1,1,1
841,0.31,1645174412.953125,P13,D03,1,1,1
842,0.78,1645174412.96875,P13,D03,1,1,1
843,1.27,1645174412.984375,P13,D03,1,1,1
844,1.64,1645174413.0,P13,D03,1,1,1
845,1.81,1645174413.015625,P13,D03,1,1,1
846,1.79,1645174413.03125,P13,D03,1,1,1
847,1.66,1645174413.046875,P13,D03,1,1,1
848,1.52,1645174413.0625,P13,D03,1,1,1
849,1.44,1645174413.078125,P13,D03,1,1,1
850,1.42,1645174413.09375,P13,D03,1,1,1
851,1.43,1645174413.109375,P13,D03,1,1,1
852,1.41,1645174413.125,P13,D03,1,1,1
853,1.38,1645174413.140625,P13,D03,1,1,1
854,1.37,1645174413.15625,P13,D03,1,1,1
855,1.43,1645174413.171875,P13,D03,1,1,1
856,1.62,1645174413.1875,P13,D03,1,1,1
857,1.94,1645174413.203125,P13,D03,1,1,1
858,2.32,1645174413.21875,P13,D03,1,1,1
859,2.66,1645174413.234375,P13,D03,1,1,1
860,2.85,1645174413.25,P13,D03,1,1,1
861,2.87,1645174413.265625,P13,D03,1,1,1
862,2.8,1645174413.28125,P13,D03,1,1,1
863,2.71,1645174413.296875,P13,D03,1,1,1
864,2.7,1645174413.3125,P13,D03,1,1,1
865,2.74,1645174413.328125,P13,D03,1,1,1
866,2.77,1645174413.34375,P13,D03,1,1,1
867,2.72,1645174413.359375,P13,D03,1,1,1
868,2.59,1645174413.375,P13,D03,1,1,1
869,2.46,1645174413.390625,P13,D03,1,1,1
870,2.4,1645174413.40625,P13,D03,1,1,1
871,2.42,1645174413.421875,P13,D03,1,1,1
872,2.4,1645174413.4375,P13,D03,1,1,1
873,2.19,1645174413.453125,P13,D03,1,1,1
874,1.63,1645174413.46875,P13,D03,1,1,1
875,0.72,1645174413.484375,P13,D03,1,1,1
876,-0.45,1645174413.5,P13,D03,1,1,1
877,-1.67,1645174413.515625,P13,D03,1,1,1
878,-2.77,1645174413.53125,P13,D03,1,1,1
879,-3.64,1645174413.546875,P13,D03,1,1,1
880,-4.22,1645174413.5625,P13,D03,1,1,1
881,-4.54,1645174413.578125,P13,D03,1,1,1
882,-4.61,1645174413.59375,P13,D03,1,1,1
883,-4.46,1645174413.609375,P13,D03,1,1,1
884,-4.16,1645174413.625,P13,D03,1,1,1
885,-3.81,1645174413.640625,P13,D03,1,1,1
886,-3.55,1645174413.65625,P13,D03,1,1,1
887,-3.49,1645174413.671875,P13,D03,1,1,1
888,-3.67,1645174413.6875,P13,D03,1,1,1
889,-4.0,1645174413.703125,P13,D03,1,1,1
890,-4.28,1645174413.71875,P13,D03,1,1,1
891,-4.34,1645174413.734375,P13,D03,1,1,1
892,-4.05,1645174413.75,P13,D03,1,1,1
893,-3.44,1645174413.765625,P13,D03,1,1,1
894,-2.67,1645174413.78125,P13,D03,1,1,1
895,-1.96,1645174413.796875,P13,D03,1,1,1
896,-1.51,1645174413.8125,P13,D03,1,1,1
897,-1.38,1645174413.828125,P13,D03,1,1,1
898,-1.53,1645174413.84375,P13,D03,1,1,1
899,-1.82,1645174413.859375,P13,D03,1,1,1
900,-2.12,1645174413.875,P13,D03,1,1,1
901,-2.34,1645174413.890625,P13,D03,1,1,1
902,-2.47,1645174413.90625,P13,D03,1,1,1
903,-2.48,1645174413.921875,P13,D03,1,1,1
904,-2.37,1645174413.9375,P13,D03,1,1,1
905,-2.11,1645174413.953125,P13,D03,1,1,1
906,-1.71,1645174413.96875,P13,D03,1,1,1
907,-1.23,1645174413.984375,P13,D03,1,1,1
908,-0.79,1645174414.0,P13,D03,1,1,1
909,-0.52,1645174414.015625,P13,D03,1,1,1
910,-0.48,1645174414.03125,P13,D03,1,1,1
911,-0.64,1645174414.046875,P13,D03,1,1,1
912,-0.89,1645174414.0625,P13,D03,1,1,1
913,-1.11,1645174414.078125,P13,D03,1,1,1
914,-1.22,1645174414.09375,P13,D03,1,1,1
915,-1.25,1645174414.109375,P13,D03,1,1,1
916,-1.26,1645174414.125,P13,D03,1,1,1
917,-1.34,1645174414.140625,P13,D03,1,1,1
918,-1.5,1645174414.15625,P13,D03,1,1,1
919,-1.67,1645174414.171875,P13,D03,1,1,1
920,-1.78,1645174414.1875,P13,D03,1,1,1
921,-1.8,1645174414.203125,P13,D03,1,1,1
922,-1.75,1645174414.21875,P13,D03,1,1,1
923,-1.7,1645174414.234375,P13,D03,1,1,1
924,-1.71,1645174414.25,P13,D03,1,1,1
925,-1.77,1645174414.265625,P13,D03,1,1,1
926,-1.79,1645174414.28125,P13,D03,1,1,1
927,-1.68,1645174414.296875,P13,D03,1,1,1
928,-1.4,1645174414.3125,P13,D03,1,1,1
929,-1.03,1645174414.328125,P13,D03,1,1,1
930,-0.76,1645174414.34375,P13,D03,1,1,1
931,-0.78,1645174414.359375,P13,D03,1,1,1
932,-1.16,1645174414.375,P13,D03,1,1,1
933,-1.83,1645174414.390625,P13,D03,1,1,1
934,-2.59,1645174414.40625,P13,D03,1,1,1
935,-3.18,1645174414.421875,P13,D03,1,1,1
936,-3.46,1645174414.4375,P13,D03,1,1,1
937,-3.46,1645174414.453125,P13,D03,1,1,1
938,-3.33,1645174414.46875,P13,D03,1,1,1
939,-3.3,1645174414.484375,P13,D03,1,1,1
940,-3.55,1645174414.5,P13,D03,1,1,1
941,-4.11,1645174414.515625,P13,D03,1,1,1
942,-4.88,1645174414.53125,P13,D03,1,1,1
943,-5.71,1645174414.546875,P13,D03,1,1,1
944,-6.44,1645174414.5625,P13,D03,1,1,1
945,-7.01,1645174414.578125,P13,D03,1,1,1
946,-7.42,1645174414.59375,P13,D03,1,1,1
947,-7.77,1645174414.609375,P13,D03,1,1,1
948,-8.14,1645174414.625,P13,D03,1,1,1
949,-8.59,1645174414.640625,P13,D03,1,1,1
950,-9.14,1645174414.65625,P13,D03,1,1,1
951,-9.77,1645174414.671875,P13,D03,1,1,1
952,-10.49,1645174414.6875,P13,D03,1,1,1
953,-11.28,1645174414.703125,P13,D03,1,1,1
954,-12.09,1645174414.71875,P13,D03,1,1,1
955,-12.72,1645174414.734375,P13,D03,1,1,1
956,-12.9,1645174414.75,P13,D03,1,1,1
957,-12.35,1645174414.765625,P13,D03,1,1,1
958,-10.91,1645174414.78125,P13,D03,1,1,1
959,-8.59,1645174414.796875,P13,D03,1,1,1
960,-5.59,1645174414.8125,P13,D03,1,1,1
961,-2.11,1645174414.828125,P13,D03,1,1,1
962,1.8,1645174414.84375,P13,D03,1,1,1
963,6.22,1645174414.859375,P13,D03,1,1,1
964,11.22,1645174414.875,P13,D03,1,1,1
965,16.69,1645174414.890625,P13,D03,1,1,1
966,22.13,1645174414.90625,P13,D03,1,1,1
967,26.88,1645174414.921875,P13,D03,1,1,1
968,30.3,1645174414.9375,P13,D03,1,1,1
969,32.12,1645174414.953125,P13,D03,1,1,1
970,32.43,1645174414.96875,P13,D03,1,1,1
971,31.59,1645174414.984375,P13,D03,1,1,1
972,29.9,1645174415.0,P13,D03,1,1,1
973,27.45,1645174415.015625,P13,D03,1,1,1
974,24.21,1645174415.03125,P13,D03,1,1,1
975,20.26,1645174415.046875,P13,D03,1,1,1
976,15.99,1645174415.0625,P13,D03,1,1,1
977,12.01,1645174415.078125,P13,D03,1,1,1
978,8.97,1645174415.09375,P13,D03,1,1,1
979,7.11,1645174415.109375,P13,D03,1,1,1
980,6.21,1645174415.125,P13,D03,1,1,1
981,5.61,1645174415.140625,P13,D03,1,1,1
982,4.64,1645174415.15625,P13,D03,1,1,1
983,2.97,1645174415.171875,P13,D03,1,1,1
984,0.71,1645174415.1875,P13,D03,1,1,1
985,-1.69,1645174415.203125,P13,D03,1,1,1
986,-3.72,1645174415.21875,P13,D03,1,1,1
987,-5.07,1645174415.234375,P13,D03,1,1,1
988,-5.75,1645174415.25,P13,D03,1,1,1
989,-5.95,1645174415.265625,P13,D03,1,1,1
990,-5.9,1645174415.28125,P13,D03,1,1,1
991,-5.75,1645174415.296875,P13,D03,1,1,1
992,-5.49,1645174415.3125,P13,D03,1,1,1
993,-5.09,1645174415.328125,P13,D03,1,1,1
994,-4.54,1645174415.34375,P13,D03,1,1,1
995,-3.94,1645174415.359375,P13,D03,1,1,1
996,-3.41,1645174415.375,P13,D03,1,1,1
997,-3.07,1645174415.390625,P13,D03,1,1,1
998,-2.9,1645174415.40625,P13,D03,1,1,1
999,-2.81,1645174415.421875,P13,D03,1,1,1
1000,-2.64,1645174415.4375,P13,D03,1,1,1
1001,-2.27,1645174415.453125,P13,D03,1,1,1
1002,-1.72,1645174415.46875,P13,D03,1,1,1
1003,-1.08,1645174415.484375,P13,D03,1,1,1
1004,-0.53,1645174415.5,P13,D03,1,1,1
1005,-0.16,1645174415.515625,P13,D03,1,1,1
1006,-0.01,1645174415.53125,P13,D03,1,1,1
1007,0.0,1645174415.546875,P13,D03,1,1,1
1008,0.02,1645174415.5625,P13,D03,1,1,1
1009,0.17,1645174415.578125,P13,D03,1,1,1
1010,0.51,1645174415.59375,P13,D03,1,1,1
1011,1.0,1645174415.609375,P13,D03,1,1,1
1012,1.48,1645174415.625,P13,D03,1,1,1
1013,1.79,1645174415.640625,P13,D03,1,1,1
1014,1.74,1645174415.65625,P13,D03,1,1,1
1015,1.28,1645174415.671875,P13,D03,1,1,1
1016,0.43,1645174415.6875,P13,D03,1,1,1
1017,-0.69,1645174415.703125,P13,D03,1,1,1
1018,-1.9,1645174415.71875,P13,D03,1,1,1
1019,-3.04,1645174415.734375,P13,D03,1,1,1
1020,-3.99,1645174415.75,P13,D03,1,1,1
1021,-4.67,1645174415.765625,P13,D03,1,1,1
1022,-5.07,1645174415.78125,P13,D03,1,1,1
1023,-5.19,1645174415.796875,P13,D03,1,1,1
1024,-5.06,1645174415.8125,P13,D03,1,1,1
1025,-4.72,1645174415.828125,P13,D03,1,1,1
1026,-4.21,1645174415.84375,P13,D03,1,1,1
1027,-3.58,1645174415.859375,P13,D03,1,1,1
1028,-2.86,1645174415.875,P13,D03,1,1,1
1029,-2.1,1645174415.890625,P13,D03,1,1,1
1030,-1.37,1645174415.90625,P13,D03,1,1,1
1031,-0.76,1645174415.921875,P13,D03,1,1,1
1032,-0.35,1645174415.9375,P13,D03,1,1,1
1033,-0.2,1645174415.953125,P13,D03,1,1,1
1034,-0.28,1645174415.96875,P13,D03,1,1,1
1035,-0.48,1645174415.984375,P13,D03,1,1,1
1036,-0.66,1645174416.0,P13,D03,1,1,1
1037,-0.72,1645174416.015625,P13,D03,1,1,1
1038,-0.63,1645174416.03125,P13,D03,1,1,1
1039,-0.45,1645174416.046875,P13,D03,1,1,1
1040,-0.3,1645174416.0625,P13,D03,1,1,1
1041,-0.23,1645174416.078125,P13,D03,1,1,1
1042,-0.28,1645174416.09375,P13,D03,1,1,1
1043,-0.39,1645174416.109375,P13,D03,1,1,1
1044,-0.5,1645174416.125,P13,D03,1,1,1
1045,-0.57,1645174416.140625,P13,D03,1,1,1
1046,-0.56,1645174416.15625,P13,D03,1,1,1
1047,-0.5,1645174416.171875,P13,D03,1,1,1
1048,-0.42,1645174416.1875,P13,D03,1,1,1
1049,-0.36,1645174416.203125,P13,D03,1,1,1
1050,-0.35,1645174416.21875,P13,D03,1,1,1
1051,-0.42,1645174416.234375,P13,D03,1,1,1
1052,-0.57,1645174416.25,P13,D03,1,1,1
1053,-0.76,1645174416.265625,P13,D03,1,1,1
1054,-0.93,1645174416.28125,P13,D03,1,1,1
1055,-1.0,1645174416.296875,P13,D03,1,1,1
1056,-0.93,1645174416.3125,P13,D03,1,1,1
1057,-0.73,1645174416.328125,P13,D03,1,1,1
1058,-0.45,1645174416.34375,P13,D03,1,1,1
1059,-0.18,1645174416.359375,P13,D03,1,1,1
1060,0.0,1645174416.375,P13,D03,1,1,1
1061,0.06,1645174416.390625,P13,D03,1,1,1
1062,0.01,1645174416.40625,P13,D03,1,1,1
1063,-0.08,1645174416.421875,P13,D03,1,1,1
1064,-0.16,1645174416.4375,P13,D03,1,1,1
1065,-0.18,1645174416.453125,P13,D03,1,1,1
1066,-0.18,1645174416.46875,P13,D03,1,1,1
1067,-0.22,1645174416.484375,P13,D03,1,1,1
1068,-0.35,1645174416.5,P13,D03,1,1,1
1069,-0.58,1645174416.515625,P13,D03,1,1,1
1070,-0.83,1645174416.53125,P13,D03,1,1,1
1071,-1.03,1645174416.546875,P13,D03,1,1,1
1072,-1.1,1645174416.5625,P13,D03,1,1,1
1073,-1.03,1645174416.578125,P13,D03,1,1,1
1074,-0.89,1645174416.59375,P13,D03,1,1,1
1075,-0.74,1645174416.609375,P13,D03,1,1,1
1076,-0.61,1645174416.625,P13,D03,1,1,1
1077,-0.49,1645174416.640625,P13,D03,1,1,1
1078,-0.3,1645174416.65625,P13,D03,1,1,1
1079,-0.06,1645174416.671875,P13,D03,1,1,1
1080,0.2,1645174416.6875,P13,D03,1,1,1
1081,0.39,1645174416.703125,P13,D03,1,1,1
1082,0.42,1645174416.71875,P13,D03,1,1,1
1083,0.29,1645174416.734375,P13,D03,1,1,1
1084,0.07,1645174416.75,P13,D03,1,1,1
1085,-0.13,1645174416.765625,P13,D03,1,1,1
1086,-0.24,1645174416.78125,P13,D03,1,1,1
1087,-0.25,1645174416.796875,P13,D03,1,1,1
1088,-0.23,1645174416.8125,P13,D03,1,1,1
1089,-0.24,1645174416.828125,P13,D03,1,1,1
1090,-0.33,1645174416.84375,P13,D03,1,1,1
1091,-0.49,1645174416.859375,P13,D03,1,1,1
1092,-0.65,1645174416.875,P13,D03,1,1,1
1093,-0.72,1645174416.890625,P13,D03,1,1,1
1094,-0.65,1645174416.90625,P13,D03,1,1,1
1095,-0.45,1645174416.921875,P13,D03,1,1,1
1096,-0.18,1645174416.9375,P13,D03,1,1,1
1097,0.01,1645174416.953125,P13,D03,1,1,1
1098,0.04,1645174416.96875,P13,D03,1,1,1
1099,-0.1,1645174416.984375,P13,D03,1,1,1
1100,-0.33,1645174417.0,P13,D03,1,1,1
1101,-0.5,1645174417.015625,P13,D03,1,1,1
1102,-0.46,1645174417.03125,P13,D03,1,1,1
1103,-0.2,1645174417.046875,P13,D03,1,1,1
1104,0.19,1645174417.0625,P13,D03,1,1,1
1105,0.53,1645174417.078125,P13,D03,1,1,1
1106,0.68,1645174417.09375,P13,D03,1,1,1
1107,0.62,1645174417.109375,P13,D03,1,1,1
1108,0.45,1645174417.125,P13,D03,1,1,1
1109,0.33,1645174417.140625,P13,D03,1,1,1
1110,0.35,1645174417.15625,P13,D03,1,1,1
1111,0.51,1645174417.171875,P13,D03,1,1,1
1112,0.68,1645174417.1875,P13,D03,1,1,1
1113,0.76,1645174417.203125,P13,D03,1,1,1
1114,0.66,1645174417.21875,P13,D03,1,1,1
1115,0.43,1645174417.234375,P13,D03,1,1,1
1116,0.16,1645174417.25,P13,D03,1,1,1
1117,-0.04,1645174417.265625,P13,D03,1,1,1
1118,-0.11,1645174417.28125,P13,D03,1,1,1
1119,-0.07,1645174417.296875,P13,D03,1,1,1
1120,0.02,1645174417.3125,P13,D03,1,1,1
1121,0.1,1645174417.328125,P13,D03,1,1,1
1122,0.13,1645174417.34375,P13,D03,1,1,1
1123,0.09,1645174417.359375,P13,D03,1,1,1
1124,0.03,1645174417.375,P13,D03,1,1,1
1125,-0.04,1645174417.390625,P13,D03,1,1,1
1126,-0.04,1645174417.40625,P13,D03,1,1,1
1127,0.04,1645174417.421875,P13,D03,1,1,1
1128,0.21,1645174417.4375,P13,D03,1,1,1
1129,0.42,1645174417.453125,P13,D03,1,1,1
1130,0.61,1645174417.46875,P13,D03,1,1,1
1131,0.71,1645174417.484375,P13,D03,1,1,1
1132,0.66,1645174417.5,P13,D03,1,1,1
1133,0.5,1645174417.515625,P13,D03,1,1,1
1134,0.31,1645174417.53125,P13,D03,1,1,1
1135,0.19,1645174417.546875,P13,D03,1,1,1
1136,0.2,1645174417.5625,P13,D03,1,1,1
1137,0.37,1645174417.578125,P13,D03,1,1,1
1138,0.62,1645174417.59375,P13,D03,1,1,1
1139,0.86,1645174417.609375,P13,D03,1,1,1
1140,0.96,1645174417.625,P13,D03,1,1,1
1141,0.87,1645174417.640625,P13,D03,1,1,1
1142,0.63,1645174417.65625,P13,D03,1,1,1
1143,0.33,1645174417.671875,P13,D03,1,1,1
1144,0.12,1645174417.6875,P13,D03,1,1,1
1145,0.12,1645174417.703125,P13,D03,1,1,1
1146,0.34,1645174417.71875,P13,D03,1,1,1
1147,0.7,1645174417.734375,P13,D03,1,1,1
1148,1.05,1645174417.75,P13,D03,1,1,1
1149,1.24,1645174417.765625,P13,D03,1,1,1
1150,1.22,1645174417.78125,P13,D03,1,1,1
1151,1.01,1645174417.796875,P13,D03,1,1,1
1152,0.73,1645174417.8125,P13,D03,1,1,1
1153,0.49,1645174417.828125,P13,D03,1,1,1
1154,0.35,1645174417.84375,P13,D03,1,1,1
1155,0.32,1645174417.859375,P13,D03,1,1,1
1156,0.38,1645174417.875,P13,D03,1,1,1
1157,0.48,1645174417.890625,P13,D03,1,1,1
1158,0.61,1645174417.90625,P13,D03,1,1,1
1159,0.76,1645174417.921875,P13,D03,1,1,1
1160,0.92,1645174417.9375,P13,D03,1,1,1
1161,1.05,1645174417.953125,P13,D03,1,1,1
1162,1.1,1645174417.96875,P13,D03,1,1,1
1163,1.01,1645174417.984375,P13,D03,1,1,1
1164,0.78,1645174418.0,P13,D03,1,1,1
1165,0.44,1645174418.015625,P13,D03,1,1,1
1166,0.07,1645174418.03125,P13,D03,1,1,1
1167,-0.23,1645174418.046875,P13,D03,1,1,1
1168,-0.39,1645174418.0625,P13,D03,1,1,1
1169,-0.38,1645174418.078125,P13,D03,1,1,1
1170,-0.23,1645174418.09375,P13,D03,1,1,1
1171,0.0,1645174418.109375,P13,D03,1,1,1
1172,0.22,1645174418.125,P13,D03,1,1,1
1173,0.37,1645174418.140625,P13,D03,1,1,1
1174,0.43,1645174418.15625,P13,D03,1,1,1
1175,0.41,1645174418.171875,P13,D03,1,1,1
1176,0.35,1645174418.1875,P13,D03,1,1,1
1177,0.28,1645174418.203125,P13,D03,1,1,1
1178,0.19,1645174418.21875,P13,D03,1,1,1
1179,0.05,1645174418.234375,P13,D03,1,1,1
1180,-0.16,1645174418.25,P13,D03,1,1,1
1181,-0.42,1645174418.265625,P13,D03,1,1,1
1182,-0.69,1645174418.28125,P13,D03,1,1,1
1183,-0.96,1645174418.296875,P13,D03,1,1,1
1184,-1.18,1645174418.3125,P13,D03,1,1,1
1185,-1.38,1645174418.328125,P13,D03,1,1,1
1186,-1.58,1645174418.34375,P13,D03,1,1,1
1187,-1.8,1645174418.359375,P13,D03,1,1,1
1188,-2.07,1645174418.375,P13,D03,1,1,1
1189,-2.35,1645174418.390625,P13,D03,1,1,1
1190,-2.62,1645174418.40625,P13,D03,1,1,1
1191,-2.81,1645174418.421875,P13,D03,1,1,1
1192,-2.89,1645174418.4375,P13,D03,1,1,1
1193,-2.84,1645174418.453125,P13,D03,1,1,1
1194,-2.65,1645174418.46875,P13,D03,1,1,1
1195,-2.32,1645174418.484375,P13,D03,1,1,1
1196,-1.9,1645174418.5,P13,D03,1,1,1
1197,-1.44,1645174418.515625,P13,D03,1,1,1
1198,-0.99,1645174418.53125,P13,D03,1,1,1
1199,-0.59,1645174418.546875,P13,D03,1,1,1
1200,-0.24,1645174418.5625,P13,D03,1,1,1
1201,0.04,1645174418.578125,P13,D03,1,1,1
1202,0.24,1645174418.59375,P13,D03,1,1,1
1203,0.36,1645174418.609375,P13,D03,1,1,1
1204,0.39,1645174418.625,P13,D03,1,1,1
1205,0.33,1645174418.640625,P13,D03,1,1,1
1206,0.22,1645174418.65625,P13,D03,1,1,1
1207,0.1,1645174418.671875,P13,D03,1,1,1
1208,0.0,1645174418.6875,P13,D03,1,1,1
1209,-0.02,1645174418.703125,P13,D03,1,1,1
1210,0.06,1645174418.71875,P13,D03,1,1,1
1211,0.22,1645174418.734375,P13,D03,1,1,1
1212,0.42,1645174418.75,P13,D03,1,1,1
1213,0.56,1645174418.765625,P13,D03,1,1,1
1214,0.54,1645174418.78125,P13,D03,1,1,1
1215,0.29,1645174418.796875,P13,D03,1,1,1
1216,-0.18,1645174418.8125,P13,D03,1,1,1
1217,-0.75,1645174418.828125,P13,D03,1,1,1
1218,-1.27,1645174418.84375,P13,D03,1,1,1
1219,-1.6,1645174418.859375,P13,D03,1,1,1
1220,-1.65,1645174418.875,P13,D03,1,1,1
1221,-1.42,1645174418.890625,P13,D03,1,1,1
1222,-1.0,1645174418.90625,P13,D03,1,1,1
1223,-0.51,1645174418.921875,P13,D03,1,1,1
1224,-0.05,1645174418.9375,P13,D03,1,1,1
1225,0.29,1645174418.953125,P13,D03,1,1,1
1226,0.48,1645174418.96875,P13,D03,1,1,1
1227,0.51,1645174418.984375,P13,D03,1,1,1
1228,0.42,1645174419.0,P13,D03,1,1,1
1229,0.25,1645174419.015625,P13,D03,1,1,1
1230,0.05,1645174419.03125,P13,D03,1,1,1
1231,-0.15,1645174419.046875,P13,D03,1,1,1
1232,-0.34,1645174419.0625,P13,D03,1,1,1
1233,-0.49,1645174419.078125,P13,D03,1,1,1
1234,-0.58,1645174419.09375,P13,D03,1,1,1
1235,-0.58,1645174419.109375,P13,D03,1,1,1
1236,-0.49,1645174419.125,P13,D03,1,1,1
1237,-0.35,1645174419.140625,P13,D03,1,1,1
1238,-0.25,1645174419.15625,P13,D03,1,1,1
1239,-0.25,1645174419.171875,P13,D03,1,1,1
1240,-0.34,1645174419.1875,P13,D03,1,1,1
1241,-0.45,1645174419.203125,P13,D03,1,1,1
1242,-0.46,1645174419.21875,P13,D03,1,1,1
1243,-0.32,1645174419.234375,P13,D03,1,1,1
1244,-0.05,1645174419.25,P13,D03,1,1,1
1245,0.24,1645174419.265625,P13,D03,1,1,1
1246,0.39,1645174419.28125,P13,D03,1,1,1
1247,0.32,1645174419.296875,P13,D03,1,1,1
1248,0.05,1645174419.3125,P13,D03,1,1,1
1249,-0.3,1645174419.328125,P13,D03,1,1,1
1250,-0.59,1645174419.34375,P13,D03,1,1,1
1251,-0.74,1645174419.359375,P13,D03,1,1,1
1252,-0.76,1645174419.375,P13,D03,1,1,1
1253,-0.71,1645174419.390625,P13,D03,1,1,1
1254,-0.64,1645174419.40625,P13,D03,1,1,1
1255,-0.57,1645174419.421875,P13,D03,1,1,1
1256,-0.46,1645174419.4375,P13,D03,1,1,1
1257,-0.28,1645174419.453125,P13,D03,1,1,1
1258,-0.07,1645174419.46875,P13,D03,1,1,1
1259,0.13,1645174419.484375,P13,D03,1,1,1
1260,0.21,1645174419.5,P13,D03,1,1,1
1261,0.16,1645174419.515625,P13,D03,1,1,1
1262,-0.01,1645174419.53125,P13,D03,1,1,1
1263,-0.19,1645174419.546875,P13,D03,1,1,1
1264,-0.31,1645174419.5625,P13,D03,1,1,1
1265,-0.28,1645174419.578125,P13,D03,1,1,1
1266,-0.13,1645174419.59375,P13,D03,1,1,1
1267,0.09,1645174419.609375,P13,D03,1,1,1
1268,0.35,1645174419.625,P13,D03,1,1,1
1269,0.57,1645174419.640625,P13,D03,1,1,1
1270,0.73,1645174419.65625,P13,D03,1,1,1
1271,0.8,1645174419.671875,P13,D03,1,1,1
1272,0.79,1645174419.6875,P13,D03,1,1,1
1273,0.75,1645174419.703125,P13,D03,1,1,1
1274,0.72,1645174419.71875,P13,D03,1,1,1
1275,0.75,1645174419.734375,P13,D03,1,1,1
1276,0.87,1645174419.75,P13,D03,1,1,1
1277,1.07,1645174419.765625,P13,D03,1,1,1
1278,1.31,1645174419.78125,P13,D03,1,1,1
1279,1.53,1645174419.796875,P13,D03,1,1,1
1280,1.69,1645174419.8125,P13,D03,1,1,1
1281,1.78,1645174419.828125,P13,D03,1,1,1
1282,1.77,1645174419.84375,P13,D03,1,1,1
1283,1.63,1645174419.859375,P13,D03,1,1,1
1284,1.35,1645174419.875,P13,D03,1,1,1
1285,0.97,1645174419.890625,P13,D03,1,1,1
1286,0.55,1645174419.90625,P13,D03,1,1,1
1287,0.17,1645174419.921875,P13,D03,1,1,1
1288,-0.09,1645174419.9375,P13,D03,1,1,1
1289,-0.2,1645174419.953125,P13,D03,1,1,1
1290,-0.2,1645174419.96875,P13,D03,1,1,1
1291,-0.16,1645174419.984375,P13,D03,1,1,1
1292,-0.12,1645174420.0,P13,D03,1,1,1
1293,-0.08,1645174420.015625,P13,D03,1,1,1
1294,-0.0,1645174420.03125,P13,D03,1,1,1
1295,0.18,1645174420.046875,P13,D03,1,1,1
1296,0.47,1645174420.0625,P13,D03,1,1,1
1297,0.85,1645174420.078125,P13,D03,1,1,1
1298,1.22,1645174420.09375,P13,D03,1,1,1
1299,1.46,1645174420.109375,P13,D03,1,1,1
1300,1.52,1645174420.125,P13,D03,1,1,1
1301,1.4,1645174420.140625,P13,D03,1,1,1
1302,1.17,1645174420.15625,P13,D03,1,1,1
1303,0.91,1645174420.171875,P13,D03,1,1,1
1304,0.71,1645174420.1875,P13,D03,1,1,1
1305,0.61,1645174420.203125,P13,D03,1,1,1
1306,0.59,1645174420.21875,P13,D03,1,1,1
1307,0.59,1645174420.234375,P13,D03,1,1,1
1308,0.56,1645174420.25,P13,D03,1,1,1
1309,0.47,1645174420.265625,P13,D03,1,1,1
1310,0.3,1645174420.28125,P13,D03,1,1,1
1311,0.06,1645174420.296875,P13,D03,1,1,1
1312,-0.22,1645174420.3125,P13,D03,1,1,1
1313,-0.54,1645174420.328125,P13,D03,1,1,1
1314,-0.86,1645174420.34375,P13,D03,1,1,1
1315,-1.16,1645174420.359375,P13,D03,1,1,1
1316,-1.4,1645174420.375,P13,D03,1,1,1
1317,-1.53,1645174420.390625,P13,D03,1,1,1
1318,-1.49,1645174420.40625,P13,D03,1,1,1
1319,-1.28,1645174420.421875,P13,D03,1,1,1
1320,-0.96,1645174420.4375,P13,D03,1,1,1
1321,-0.65,1645174420.453125,P13,D03,1,1,1
1322,-0.48,1645174420.46875,P13,D03,1,1,1
1323,-0.49,1645174420.484375,P13,D03,1,1,1
1324,-0.66,1645174420.5,P13,D03,1,1,1
1325,-0.87,1645174420.515625,P13,D03,1,1,1
1326,-1.0,1645174420.53125,P13,D03,1,1,1
1327,-0.98,1645174420.546875,P13,D03,1,1,1
1328,-0.86,1645174420.5625,P13,D03,1,1,1
1329,-0.67,1645174420.578125,P13,D03,1,1,1
1330,-0.47,1645174420.59375,P13,D03,1,1,1
1331,-0.24,1645174420.609375,P13,D03,1,1,1
1332,0.05,1645174420.625,P13,D03,1,1,1
1333,0.41,1645174420.640625,P13,D03,1,1,1
1334,0.78,1645174420.65625,P13,D03,1,1,1
1335,1.05,1645174420.671875,P13,D03,1,1,1
1336,1.13,1645174420.6875,P13,D03,1,1,1
1337,0.99,1645174420.703125,P13,D03,1,1,1
1338,0.7,1645174420.71875,P13,D03,1,1,1
1339,0.36,1645174420.734375,P13,D03,1,1,1
1340,0.09,1645174420.75,P13,D03,1,1,1
1341,-0.05,1645174420.765625,P13,D03,1,1,1
1342,-0.09,1645174420.78125,P13,D03,1,1,1
1343,-0.07,1645174420.796875,P13,D03,1,1,1
1344,-0.09,1645174420.8125,P13,D03,1,1,1
1345,-0.19,1645174420.828125,P13,D03,1,1,1
1346,-0.4,1645174420.84375,P13,D03,1,1,1
1347,-0.69,1645174420.859375,P13,D03,1,1,1
1348,-0.95,1645174420.875,P13,D03,1,1,1
1349,-1.08,1645174420.890625,P13,D03,1,1,1
1350,-1.03,1645174420.90625,P13,D03,1,1,1
1351,-0.81,1645174420.921875,P13,D03,1,1,1
1352,-0.51,1645174420.9375,P13,D03,1,1,1
1353,-0.27,1645174420.953125,P13,D03,1,1,1
1354,-0.15,1645174420.96875,P13,D03,1,1,1
1355,-0.13,1645174420.984375,P13,D03,1,1,1
1356,-0.16,1645174421.0,P13,D03,1,1,1
1357,-0.18,1645174421.015625,P13,D03,1,1,1
1358,-0.16,1645174421.03125,P13,D03,1,1,1
1359,-0.14,1645174421.046875,P13,D03,1,1,1
1360,-0.16,1645174421.0625,P13,D03,1,1,1
1361,-0.19,1645174421.078125,P13,D03,1,1,1
1362,-0.2,1645174421.09375,P13,D03,1,1,1
1363,-0.13,1645174421.109375,P13,D03,1,1,1
1364,0.02,1645174421.125,P13,D03,1,1,1
1365,0.18,1645174421.140625,P13,D03,1,1,1
1366,0.27,1645174421.15625,P13,D03,1,1,1
1367,0.24,1645174421.171875,P13,D03,1,1,1
1368,0.08,1645174421.1875,P13,D03,1,1,1
1369,-0.13,1645174421.203125,P13,D03,1,1,1
1370,-0.34,1645174421.21875,P13,D03,1,1,1
1371,-0.47,1645174421.234375,P13,D03,1,1,1
1372,-0.53,1645174421.25,P13,D03,1,1,1
1373,-0.47,1645174421.265625,P13,D03,1,1,1
1374,-0.28,1645174421.28125,P13,D03,1,1,1
1375,0.07,1645174421.296875,P13,D03,1,1,1
1376,0.54,1645174421.3125,P13,D03,1,1,1
1377,1.01,1645174421.328125,P13,D03,1,1,1
1378,1.35,1645174421.34375,P13,D03,1,1,1
1379,1.44,1645174421.359375,P13,D03,1,1,1
1380,1.25,1645174421.375,P13,D03,1,1,1
1381,0.89,1645174421.390625,P13,D03,1,1,1
1382,0.48,1645174421.40625,P13,D03,1,1,1
1383,0.17,1645174421.421875,P13,D03,1,1,1
1384,-0.02,1645174421.4375,P13,D03,1,1,1
1385,-0.11,1645174421.453125,P13,D03,1,1,1
1386,-0.18,1645174421.46875,P13,D03,1,1,1
1387,-0.29,1645174421.484375,P13,D03,1,1,1
1388,-0.44,1645174421.5,P13,D03,1,1,1
1389,-0.58,1645174421.515625,P13,D03,1,1,1
1390,-0.65,1645174421.53125,P13,D03,1,1,1
1391,-0.62,1645174421.546875,P13,D03,1,1,1
1392,-0.49,1645174421.5625,P13,D03,1,1,1
1393,-0.31,1645174421.578125,P13,D03,1,1,1
1394,-0.14,1645174421.59375,P13,D03,1,1,1
1395,-0.01,1645174421.609375,P13,D03,1,1,1
1396,0.08,1645174421.625,P13,D03,1,1,1
1397,0.16,1645174421.640625,P13,D03,1,1,1
1398,0.24,1645174421.65625,P13,D03,1,1,1
1399,0.33,1645174421.671875,P13,D03,1,1,1
1400,0.4,1645174421.6875,P13,D03,1,1,1
1401,0.43,1645174421.703125,P13,D03,1,1,1
1402,0.38,1645174421.71875,P13,D03,1,1,1
1403,0.28,1645174421.734375,P13,D03,1,1,1
1404,0.16,1645174421.75,P13,D03,1,1,1
1405,0.09,1645174421.765625,P13,D03,1,1,1
1406,0.06,1645174421.78125,P13,D03,1,1,1
1407,0.07,1645174421.796875,P13,D03,1,1,1
1408,0.08,1645174421.8125,P13,D03,1,1,1
1409,0.06,1645174421.828125,P13,D03,1,1,1
1410,0.03,1645174421.84375,P13,D03,1,1,1
1411,0.04,1645174421.859375,P13,D03,1,1,1
1412,0.1,1645174421.875,P13,D03,1,1,1
1413,0.17,1645174421.890625,P13,D03,1,1,1
1414,0.16,1645174421.90625,P13,D03,1,1,1
1415,0.01,1645174421.921875,P13,D03,1,1,1
1416,-0.3,1645174421.9375,P13,D03,1,1,1
1417,-0.66,1645174421.953125,P13,D03,1,1,1
1418,-0.92,1645174421.96875,P13,D03,1,1,1
1419,-0.97,1645174421.984375,P13,D03,1,1,1
1420,-0.82,1645174422.0,P13,D03,1,1,1
1421,-0.55,1645174422.015625,P13,D03,1,1,1
1422,-0.31,1645174422.03125,P13,D03,1,1,1
1423,-0.18,1645174422.046875,P13,D03,1,1,1
1424,-0.14,1645174422.0625,P13,D03,1,1,1
1425,-0.1,1645174422.078125,P13,D03,1,1,1
1426,0.01,1645174422.09375,P13,D03,1,1,1
1427,0.23,1645174422.109375,P13,D03,1,1,1
1428,0.46,1645174422.125,P13,D03,1,1,1
1429,0.61,1645174422.140625,P13,D03,1,1,1
1430,0.56,1645174422.15625,P13,D03,1,1,1
1431,0.33,1645174422.171875,P13,D03,1,1,1
1432,-0.02,1645174422.1875,P13,D03,1,1,1
1433,-0.33,1645174422.203125,P13,D03,1,1,1
1434,-0.47,1645174422.21875,P13,D03,1,1,1
1435,-0.39,1645174422.234375,P13,D03,1,1,1
1436,-0.13,1645174422.25,P13,D03,1,1,1
1437,0.21,1645174422.265625,P13,D03,1,1,1
1438,0.47,1645174422.28125,P13,D03,1,1,1
1439,0.55,1645174422.296875,P13,D03,1,1,1
1440,0.43,1645174422.3125,P13,D03,1,1,1
1441,0.19,1645174422.328125,P13,D03,1,1,1
1442,-0.02,1645174422.34375,P13,D03,1,1,1
1443,-0.09,1645174422.359375,P13,D03,1,1,1
1444,0.03,1645174422.375,P13,D03,1,1,1
1445,0.25,1645174422.390625,P13,D03,1,1,1
1446,0.44,1645174422.40625,P13,D03,1,1,1
1447,0.5,1645174422.421875,P13,D03,1,1,1
1448,0.4,1645174422.4375,P13,D03,1,1,1
1449,0.18,1645174422.453125,P13,D03,1,1,1
1450,-0.04,1645174422.46875,P13,D03,1,1,1
1451,-0.23,1645174422.484375,P13,D03,1,1,1
1452,-0.38,1645174422.5,P13,D03,1,1,1
1453,-0.55,1645174422.515625,P13,D03,1,1,1
1454,-0.77,1645174422.53125,P13,D03,1,1,1
1455,-1.01,1645174422.546875,P13,D03,1,1,1
1456,-1.19,1645174422.5625,P13,D03,1,1,1
1457,-1.22,1645174422.578125,P13,D03,1,1,1
1458,-1.06,1645174422.59375,P13,D03,1,1,1
1459,-0.76,1645174422.609375,P13,D03,1,1,1
1460,-0.41,1645174422.625,P13,D03,1,1,1
1461,-0.12,1645174422.640625,P13,D03,1,1,1
1462,0.1,1645174422.65625,P13,D03,1,1,1
1463,0.25,1645174422.671875,P13,D03,1,1,1
1464,0.39,1645174422.6875,P13,D03,1,1,1
1465,0.55,1645174422.703125,P13,D03,1,1,1
1466,0.69,1645174422.71875,P13,D03,1,1,1
1467,0.78,1645174422.734375,P13,D03,1,1,1
1468,0.78,1645174422.75,P13,D03,1,1,1
1469,0.71,1645174422.765625,P13,D03,1,1,1
1470,0.59,1645174422.78125,P13,D03,1,1,1
1471,0.5,1645174422.796875,P13,D03,1,1,1
1472,0.47,1645174422.8125,P13,D03,1,1,1
1473,0.51,1645174422.828125,P13,D03,1,1,1
1474,0.62,1645174422.84375,P13,D03,1,1,1
1475,0.76,1645174422.859375,P13,D03,1,1,1
1476,0.9,1645174422.875,P13,D03,1,1,1
1477,1.01,1645174422.890625,P13,D03,1,1,1
1478,1.1,1645174422.90625,P13,D03,1,1,1
1479,1.12,1645174422.921875,P13,D03,1,1,1
1480,1.07,1645174422.9375,P13,D03,1,1,1
1481,0.92,1645174422.953125,P13,D03,1,1,1
1482,0.69,1645174422.96875,P13,D03,1,1,1
1483,0.41,1645174422.984375,P13,D03,1,1,1
1484,0.15,1645174423.0,P13,D03,1,1,1
1485,-0.02,1645174423.015625,P13,D03,1,1,1
1486,-0.11,1645174423.03125,P13,D03,1,1,1
1487,-0.15,1645174423.046875,P13,D03,1,1,1
1488,-0.23,1645174423.0625,P13,D03,1,1,1
1489,-0.37,1645174423.078125,P13,D03,1,1,1
1490,-0.55,1645174423.09375,P13,D03,1,1,1
1491,-0.68,1645174423.109375,P13,D03,1,1,1
1492,-0.66,1645174423.125,P13,D03,1,1,1
1493,-0.47,1645174423.140625,P13,D03,1,1,1
1494,-0.18,1645174423.15625,P13,D03,1,1,1
1495,0.07,1645174423.171875,P13,D03,1,1,1
1496,0.13,1645174423.1875,P13,D03,1,1,1
1497,-0.04,1645174423.203125,P13,D03,1,1,1
1498,-0.39,1645174423.21875,P13,D03,1,1,1
1499,-0.8,1645174423.234375,P13,D03,1,1,1
1500,-1.12,1645174423.25,P13,D03,1,1,1
1501,-1.27,1645174423.265625,P13,D03,1,1,1
1502,-1.23,1645174423.28125,P13,D03,1,1,1
1503,-1.01,1645174423.296875,P13,D03,1,1,1
1504,-0.68,1645174423.3125,P13,D03,1,1,1
1505,-0.29,1645174423.328125,P13,D03,1,1,1
1506,0.09,1645174423.34375,P13,D03,1,1,1
1507,0.39,1645174423.359375,P13,D03,1,1,1
1508,0.56,1645174423.375,P13,D03,1,1,1
1509,0.55,1645174423.390625,P13,D03,1,1,1
1510,0.37,1645174423.40625,P13,D03,1,1,1
1511,0.03,1645174423.421875,P13,D03,1,1,1
1512,-0.39,1645174423.4375,P13,D03,1,1,1
1513,-0.77,1645174423.453125,P13,D03,1,1,1
1514,-0.98,1645174423.46875,P13,D03,1,1,1
1515,-0.9,1645174423.484375,P13,D03,1,1,1
1516,-0.53,1645174423.5,P13,D03,1,1,1
1517,0.01,1645174423.515625,P13,D03,1,1,1
1518,0.49,1645174423.53125,P13,D03,1,1,1
1519,0.72,1645174423.546875,P13,D03,1,1,1
1520,0.61,1645174423.5625,P13,D03,1,1,1
1521,0.25,1645174423.578125,P13,D03,1,1,1
1522,-0.16,1645174423.59375,P13,D03,1,1,1
1523,-0.42,1645174423.609375,P13,D03,1,1,1
1524,-0.44,1645174423.625,P13,D03,1,1,1
1525,-0.3,1645174423.640625,P13,D03,1,1,1
1526,-0.2,1645174423.65625,P13,D03,1,1,1
1527,-0.25,1645174423.671875,P13,D03,1,1,1
1528,-0.46,1645174423.6875,P13,D03,1,1,1
1529,-0.68,1645174423.703125,P13,D03,1,1,1
1530,-0.74,1645174423.71875,P13,D03,1,1,1
1531,-0.55,1645174423.734375,P13,D03,1,1,1
1532,-0.19,1645174423.75,P13,D03,1,1,1
1533,0.17,1645174423.765625,P13,D03,1,1,1
1534,0.33,1645174423.78125,P13,D03,1,1,1
1535,0.25,1645174423.796875,P13,D03,1,1,1
1536,-0.01,1645174423.8125,P13,D03,1,1,1
1537,-0.28,1645174423.828125,P13,D03,1,1,1
1538,-0.41,1645174423.84375,P13,D03,1,1,1
1539,-0.36,1645174423.859375,P13,D03,1,1,1
1540,-0.22,1645174423.875,P13,D03,1,1,1
1541,-0.11,1645174423.890625,P13,D03,1,1,1
1542,-0.13,1645174423.90625,P13,D03,1,1,1
1543,-0.28,1645174423.921875,P13,D03,1,1,1
1544,-0.49,1645174423.9375,P13,D03,1,1,1
1545,-0.63,1645174423.953125,P13,D03,1,1,1
1546,-0.62,1645174423.96875,P13,D03,1,1,1
1547,-0.48,1645174423.984375,P13,D03,1,1,1
1548,-0.26,1645174424.0,P13,D03,1,1,1
1549,-0.07,1645174424.015625,P13,D03,1,1,1
1550,0.03,1645174424.03125,P13,D03,1,1,1
1551,0.01,1645174424.046875,P13,D03,1,1,1
1552,-0.07,1645174424.0625,P13,D03,1,1,1
1553,-0.15,1645174424.078125,P13,D03,1,1,1
1554,-0.2,1645174424.09375,P13,D03,1,1,1
1555,-0.21,1645174424.109375,P13,D03,1,1,1
1556,-0.2,1645174424.125,P13,D03,1,1,1
1557,-0.18,1645174424.140625,P13,D03,1,1,1
1558,-0.15,1645174424.15625,P13,D03,1,1,1
1559,-0.06,1645174424.171875,P13,D03,1,1,1
1560,0.09,1645174424.1875,P13,D03,1,1,1
1561,0.29,1645174424.203125,P13,D03,1,1,1
1562,0.45,1645174424.21875,P13,D03,1,1,1
1563,0.52,1645174424.234375,P13,D03,1,1,1
1564,0.44,1645174424.25,P13,D03,1,1,1
1565,0.25,1645174424.265625,P13,D03,1,1,1
1566,0.02,1645174424.28125,P13,D03,1,1,1
1567,-0.16,1645174424.296875,P13,D03,1,1,1
1568,-0.27,1645174424.3125,P13,D03,1,1,1
1569,-0.33,1645174424.328125,P13,D03,1,1,1
1570,-0.35,1645174424.34375,P13,D03,1,1,1
1571,-0.3,1645174424.359375,P13,D03,1,1,1
1572,-0.14,1645174424.375,P13,D03,1,1,1
1573,0.2,1645174424.390625,P13,D03,1,1,1
1574,0.66,1645174424.40625,P13,D03,1,1,1
1575,1.15,1645174424.421875,P13,D03,1,1,1
1576,1.48,1645174424.4375,P13,D03,1,1,1
1577,1.56,1645174424.453125,P13,D03,1,1,1
1578,1.38,1645174424.46875,P13,D03,1,1,1
1579,1.05,1645174424.484375,P13,D03,1,1,1
1580,0.72,1645174424.5,P13,D03,1,1,1
1581,0.48,1645174424.515625,P13,D03,1,1,1
1582,0.36,1645174424.53125,P13,D03,1,1,1
1583,0.31,1645174424.546875,P13,D03,1,1,1
1584,0.3,1645174424.5625,P13,D03,1,1,1
1585,0.34,1645174424.578125,P13,D03,1,1,1
1586,0.44,1645174424.59375,P13,D03,1,1,1
1587,0.61,1645174424.609375,P13,D03,1,1,1
1588,0.76,1645174424.625,P13,D03,1,1,1
1589,0.8,1645174424.640625,P13,D03,1,1,1
1590,0.67,1645174424.65625,P13,D03,1,1,1
1591,0.4,1645174424.671875,P13,D03,1,1,1
1592,0.1,1645174424.6875,P13,D03,1,1,1
1593,-0.12,1645174424.703125,P13,D03,1,1,1
1594,-0.2,1645174424.71875,P13,D03,1,1,1
1595,-0.17,1645174424.734375,P13,D03,1,1,1
1596,-0.12,1645174424.75,P13,D03,1,1,1
1597,-0.12,1645174424.765625,P13,D03,1,1,1
1598,-0.2,1645174424.78125,P13,D03,1,1,1
1599,-0.33,1645174424.796875,P13,D03,1,1,1
1600,-0.46,1645174424.8125,P13,D03,1,1,1
1601,-0.57,1645174424.828125,P13,D03,1,1,1
1602,-0.67,1645174424.84375,P13,D03,1,1,1
1603,-0.77,1645174424.859375,P13,D03,1,1,1
1604,-0.86,1645174424.875,P13,D03,1,1,1
1605,-0.89,1645174424.890625,P13,D03,1,1,1
1606,-0.8,1645174424.90625,P13,D03,1,1,1
1607,-0.55,1645174424.921875,P13,D03,1,1,1
1608,-0.17,1645174424.9375,P13,D03,1,1,1
1609,0.28,1645174424.953125,P13,D03,1,1,1
1610,0.69,1645174424.96875,P13,D03,1,1,1
1611,0.99,1645174424.984375,P13,D03,1,1,1
1612,1.1,1645174425.0,P13,D03,1,1,1
1613,1.03,1645174425.015625,P13,D03,1,1,1
1614,0.8,1645174425.03125,P13,D03,1,1,1
1615,0.5,1645174425.046875,P13,D03,1,1,1
1616,0.2,1645174425.0625,P13,D03,1,1,1
1617,-0.02,1645174425.078125,P13,D03,1,1,1
1618,-0.08,1645174425.09375,P13,D03,1,1,1
1619,0.0,1645174425.109375,P13,D03,1,1,1
1620,0.2,1645174425.125,P13,D03,1,1,1
1621,0.44,1645174425.140625,P13,D03,1,1,1
1622,0.62,1645174425.15625,P13,D03,1,1,1
1623,0.68,1645174425.171875,P13,D03,1,1,1
1624,0.57,1645174425.1875,P13,D03,1,1,1
1625,0.31,1645174425.203125,P13,D03,1,1,1
1626,-0.03,1645174425.21875,P13,D03,1,1,1
1627,-0.34,1645174425.234375,P13,D03,1,1,1
1628,-0.53,1645174425.25,P13,D03,1,1,1
1629,-0.54,1645174425.265625,P13,D03,1,1,1
1630,-0.42,1645174425.28125,P13,D03,1,1,1
1631,-0.25,1645174425.296875,P13,D03,1,1,1
1632,-0.12,1645174425.3125,P13,D03,1,1,1
1633,-0.09,1645174425.328125,P13,D03,1,1,1
1634,-0.15,1645174425.34375,P13,D03,1,1,1
1635,-0.23,1645174425.359375,P13,D03,1,1,1
1636,-0.26,1645174425.375,P13,D03,1,1,1
1637,-0.2,1645174425.390625,P13,D03,1,1,1
1638,-0.08,1645174425.40625,P13,D03,1,1,1
1639,0.04,1645174425.421875,P13,D03,1,1,1
1640,0.11,1645174425.4375,P13,D03,1,1,1
1641,0.12,1645174425.453125,P13,D03,1,1,1
1642,0.1,1645174425.46875,P13,D03,1,1,1
1643,0.1,1645174425.484375,P13,D03,1,1,1
1644,0.11,1645174425.5,P13,D03,1,1,1
1645,0.1,1645174425.515625,P13,D03,1,1,1
1646,-0.01,1645174425.53125,P13,D03,1,1,1
1647,-0.2,1645174425.546875,P13,D03,1,1,1
1648,-0.43,1645174425.5625,P13,D03,1,1,1
1649,-0.58,1645174425.578125,P13,D03,1,1,1
1650,-0.57,1645174425.59375,P13,D03,1,1,1
1651,-0.39,1645174425.609375,P13,D03,1,1,1
1652,-0.13,1645174425.625,P13,D03,1,1,1
1653,0.12,1645174425.640625,P13,D03,1,1,1
1654,0.32,1645174425.65625,P13,D03,1,1,1
1655,0.48,1645174425.671875,P13,D03,1,1,1
1656,0.68,1645174425.6875,P13,D03,1,1,1
1657,0.97,1645174425.703125,P13,D03,1,1,1
1658,1.3,1645174425.71875,P13,D03,1,1,1
1659,1.51,1645174425.734375,P13,D03,1,1,1
1660,1.47,1645174425.75,P13,D03,1,1,1
1661,1.15,1645174425.765625,P13,D03,1,1,1
1662,0.66,1645174425.78125,P13,D03,1,1,1
1663,0.22,1645174425.796875,P13,D03,1,1,1
1664,0.02,1645174425.8125,P13,D03,1,1,1
1665,0.15,1645174425.828125,P13,D03,1,1,1
1666,0.5,1645174425.84375,P13,D03,1,1,1
1667,0.88,1645174425.859375,P13,D03,1,1,1
1668,1.12,1645174425.875,P13,D03,1,1,1
1669,1.14,1645174425.890625,P13,D03,1,1,1
1670,1.01,1645174425.90625,P13,D03,1,1,1
1671,0.83,1645174425.921875,P13,D03,1,1,1
1672,0.68,1645174425.9375,P13,D03,1,1,1
1673,0.58,1645174425.953125,P13,D03,1,1,1
1674,0.47,1645174425.96875,P13,D03,1,1,1
1675,0.3,1645174425.984375,P13,D03,1,1,1
1676,0.06,1645174426.0,P13,D03,1,1,1
1677,-0.21,1645174426.015625,P13,D03,1,1,1
1678,-0.44,1645174426.03125,P13,D03,1,1,1
1679,-0.57,1645174426.046875,P13,D03,1,1,1
1680,-0.62,1645174426.0625,P13,D03,1,1,1
1681,-0.6,1645174426.078125,P13,D03,1,1,1
1682,-0.56,1645174426.09375,P13,D03,1,1,1
1683,-0.52,1645174426.109375,P13,D03,1,1,1
1684,-0.48,1645174426.125,P13,D03,1,1,1
1685,-0.46,1645174426.140625,P13,D03,1,1,1
1686,-0.47,1645174426.15625,P13,D03,1,1,1
1687,-0.5,1645174426.171875,P13,D03,1,1,1
1688,-0.54,1645174426.1875,P13,D03,1,1,1
1689,-0.54,1645174426.203125,P13,D03,1,1,1
1690,-0.4,1645174426.21875,P13,D03,1,1,1
1691,-0.1,1645174426.234375,P13,D03,1,1,1
1692,0.32,1645174426.25,P13,D03,1,1,1
1693,0.74,1645174426.265625,P13,D03,1,1,1
1694,0.98,1645174426.28125,P13,D03,1,1,1
1695,0.93,1645174426.296875,P13,D03,1,1,1
1696,0.58,1645174426.3125,P13,D03,1,1,1
1697,0.06,1645174426.328125,P13,D03,1,1,1
1698,-0.42,1645174426.34375,P13,D03,1,1,1
1699,-0.71,1645174426.359375,P13,D03,1,1,1
1700,-0.73,1645174426.375,P13,D03,1,1,1
1701,-0.56,1645174426.390625,P13,D03,1,1,1
1702,-0.34,1645174426.40625,P13,D03,1,1,1
1703,-0.21,1645174426.421875,P13,D03,1,1,1
1704,-0.22,1645174426.4375,P13,D03,1,1,1
1705,-0.32,1645174426.453125,P13,D03,1,1,1
1706,-0.41,1645174426.46875,P13,D03,1,1,1
1707,-0.38,1645174426.484375,P13,D03,1,1,1
1708,-0.21,1645174426.5,P13,D03,1,1,1
1709,0.03,1645174426.515625,P13,D03,1,1,1
1710,0.25,1645174426.53125,P13,D03,1,1,1
1711,0.32,1645174426.546875,P13,D03,1,1,1
1712,0.2,1645174426.5625,P13,D03,1,1,1
1713,-0.08,1645174426.578125,P13,D03,1,1,1
1714,-0.43,1645174426.59375,P13,D03,1,1,1
1715,-0.73,1645174426.609375,P13,D03,1,1,1
1716,-0.92,1645174426.625,P13,D03,1,1,1
1717,-0.98,1645174426.640625,P13,D03,1,1,1
1718,-0.95,1645174426.65625,P13,D03,1,1,1
1719,-0.88,1645174426.671875,P13,D03,1,1,1
1720,-0.82,1645174426.6875,P13,D03,1,1,1
1721,-0.74,1645174426.703125,P13,D03,1,1,1
1722,-0.63,1645174426.71875,P13,D03,1,1,1
1723,-0.47,1645174426.734375,P13,D03,1,1,1
1724,-0.27,1645174426.75,P13,D03,1,1,1
1725,-0.1,1645174426.765625,P13,D03,1,1,1
1726,0.03,1645174426.78125,P13,D03,1,1,1
1727,0.09,1645174426.796875,P13,D03,1,1,1
1728,0.1,1645174426.8125,P13,D03,1,1,1
1729,0.11,1645174426.828125,P13,D03,1,1,1
1730,0.14,1645174426.84375,P13,D03,1,1,1
1731,0.2,1645174426.859375,P13,D03,1,1,1
1732,0.25,1645174426.875,P13,D03,1,1,1
1733,0.26,1645174426.890625,P13,D03,1,1,1
1734,0.2,1645174426.90625,P13,D03,1,1,1
1735,0.08,1645174426.921875,P13,D03,1,1,1
1736,-0.05,1645174426.9375,P13,D03,1,1,1
1737,-0.15,1645174426.953125,P13,D03,1,1,1
1738,-0.17,1645174426.96875,P13,D03,1,1,1
1739,-0.14,1645174426.984375,P13,D03,1,1,1
1740,-0.09,1645174427.0,P13,D03,1,1,1
1741,-0.11,1645174427.015625,P13,D03,1,1,1
1742,-0.2,1645174427.03125,P13,D03,1,1,1
1743,-0.36,1645174427.046875,P13,D03,1,1,1
1744,-0.5,1645174427.0625,P13,D03,1,1,1
1745,-0.52,1645174427.078125,P13,D03,1,1,1
1746,-0.37,1645174427.09375,P13,D03,1,1,1
1747,-0.09,1645174427.109375,P13,D03,1,1,1
1748,0.23,1645174427.125,P13,D03,1,1,1
1749,0.46,1645174427.140625,P13,D03,1,1,1
1750,0.53,1645174427.15625,P13,D03,1,1,1
1751,0.44,1645174427.171875,P13,D03,1,1,1
1752,0.25,1645174427.1875,P13,D03,1,1,1
1753,0.08,1645174427.203125,P13,D03,1,1,1
1754,-0.01,1645174427.21875,P13,D03,1,1,1
1755,-0.0,1645174427.234375,P13,D03,1,1,1
1756,0.05,1645174427.25,P13,D03,1,1,1
1757,0.07,1645174427.265625,P13,D03,1,1,1
1758,0.02,1645174427.28125,P13,D03,1,1,1
1759,-0.09,1645174427.296875,P13,D03,1,1,1
1760,-0.2,1645174427.3125,P13,D03,1,1,1
1761,-0.28,1645174427.328125,P13,D03,1,1,1
1762,-0.32,1645174427.34375,P13,D03,1,1,1
1763,-0.38,1645174427.359375,P13,D03,1,1,1
1764,-0.5,1645174427.375,P13,D03,1,1,1
1765,-0.68,1645174427.390625,P13,D03,1,1,1
1766,-0.88,1645174427.40625,P13,D03,1,1,1
1767,-1.0,1645174427.421875,P13,D03,1,1,1
1768,-0.97,1645174427.4375,P13,D03,1,1,1
1769,-0.79,1645174427.453125,P13,D03,1,1,1
1770,-0.53,1645174427.46875,P13,D03,1,1,1
1771,-0.28,1645174427.484375,P13,D03,1,1,1
1772,-0.1,1645174427.5,P13,D03,1,1,1
1773,-0.03,1645174427.515625,P13,D03,1,1,1
1774,-0.02,1645174427.53125,P13,D03,1,1,1
1775,-0.04,1645174427.546875,P13,D03,1,1,1
1776,-0.09,1645174427.5625,P13,D03,1,1,1
1777,-0.18,1645174427.578125,P13,D03,1,1,1
1778,-0.3,1645174427.59375,P13,D03,1,1,1
1779,-0.45,1645174427.609375,P13,D03,1,1,1
1780,-0.56,1645174427.625,P13,D03,1,1,1
1781,-0.61,1645174427.640625,P13,D03,1,1,1
1782,-0.57,1645174427.65625,P13,D03,1,1,1
1783,-0.47,1645174427.671875,P13,D03,1,1,1
1784,-0.34,1645174427.6875,P13,D03,1,1,1
1785,-0.23,1645174427.703125,P13,D03,1,1,1
1786,-0.17,1645174427.71875,P13,D03,1,1,1
1787,-0.16,1645174427.734375,P13,D03,1,1,1
1788,-0.19,1645174427.75,P13,D03,1,1,1
1789,-0.23,1645174427.765625,P13,D03,1,1,1
1790,-0.21,1645174427.78125,P13,D03,1,1,1
1791,-0.12,1645174427.796875,P13,D03,1,1,1
1792,0.05,1645174427.8125,P13,D03,1,1,1
1793,0.27,1645174427.828125,P13,D03,1,1,1
1794,0.48,1645174427.84375,P13,D03,1,1,1
1795,0.62,1645174427.859375,P13,D03,1,1,1
1796,0.67,1645174427.875,P13,D03,1,1,1
1797,0.62,1645174427.890625,P13,D03,1,1,1
1798,0.55,1645174427.90625,P13,D03,1,1,1
1799,0.47,1645174427.921875,P13,D03,1,1,1
1800,0.43,1645174427.9375,P13,D03,1,1,1
1801,0.41,1645174427.953125,P13,D03,1,1,1
1802,0.4,1645174427.96875,P13,D03,1,1,1
1803,0.36,1645174427.984375,P13,D03,1,1,1
1804,0.26,1645174428.0,P13,D03,1,1,1
1805,0.11,1645174428.015625,P13,D03,1,1,1
1806,-0.07,1645174428.03125,P13,D03,1,1,1
1807,-0.24,1645174428.046875,P13,D03,1,1,1
1808,-0.35,1645174428.0625,P13,D03,1,1,1
1809,-0.35,1645174428.078125,P13,D03,1,1,1
1810,-0.27,1645174428.09375,P13,D03,1,1,1
1811,-0.16,1645174428.109375,P13,D03,1,1,1
1812,-0.06,1645174428.125,P13,D03,1,1,1
1813,0.0,1645174428.140625,P13,D03,1,1,1
1814,0.05,1645174428.15625,P13,D03,1,1,1
1815,0.12,1645174428.171875,P13,D03,1,1,1
1816,0.24,1645174428.1875,P13,D03,1,1,1
1817,0.38,1645174428.203125,P13,D03,1,1,1
1818,0.5,1645174428.21875,P13,D03,1,1,1
1819,0.54,1645174428.234375,P13,D03,1,1,1
1820,0.49,1645174428.25,P13,D03,1,1,1
1821,0.39,1645174428.265625,P13,D03,1,1,1
1822,0.3,1645174428.28125,P13,D03,1,1,1
1823,0.28,1645174428.296875,P13,D03,1,1,1
1824,0.32,1645174428.3125,P13,D03,1,1,1
1825,0.41,1645174428.328125,P13,D03,1,1,1
1826,0.52,1645174428.34375,P13,D03,1,1,1
1827,0.63,1645174428.359375,P13,D03,1,1,1
1828,0.71,1645174428.375,P13,D03,1,1,1
1829,0.75,1645174428.390625,P13,D03,1,1,1
1830,0.76,1645174428.40625,P13,D03,1,1,1
1831,0.72,1645174428.421875,P13,D03,1,1,1
1832,0.61,1645174428.4375,P13,D03,1,1,1
1833,0.41,1645174428.453125,P13,D03,1,1,1
1834,0.12,1645174428.46875,P13,D03,1,1,1
1835,-0.25,1645174428.484375,P13,D03,1,1,1
1836,-0.65,1645174428.5,P13,D03,1,1,1
1837,-0.99,1645174428.515625,P13,D03,1,1,1
1838,-1.21,1645174428.53125,P13,D03,1,1,1
1839,-1.27,1645174428.546875,P13,D03,1,1,1
1840,-1.18,1645174428.5625,P13,D03,1,1,1
1841,-1.02,1645174428.578125,P13,D03,1,1,1
1842,-0.87,1645174428.59375,P13,D03,1,1,1
1843,-0.76,1645174428.609375,P13,D03,1,1,1
1844,-0.72,1645174428.625,P13,D03,1,1,1
1845,-0.71,1645174428.640625,P13,D03,1,1,1
1846,-0.67,1645174428.65625,P13,D03,1,1,1
1847,-0.55,1645174428.671875,P13,D03,1,1,1
1848,-0.34,1645174428.6875,P13,D03,1,1,1
1849,-0.05,1645174428.703125,P13,D03,1,1,1
1850,0.26,1645174428.71875,P13,D03,1,1,1
1851,0.53,1645174428.734375,P13,D03,1,1,1
1852,0.71,1645174428.75,P13,D03,1,1,1
1853,0.77,1645174428.765625,P13,D03,1,1,1
1854,0.72,1645174428.78125,P13,D03,1,1,1
1855,0.59,1645174428.796875,P13,D03,1,1,1
1856,0.42,1645174428.8125,P13,D03,1,1,1
1857,0.25,1645174428.828125,P13,D03,1,1,1
1858,0.14,1645174428.84375,P13,D03,1,1,1
1859,0.13,1645174428.859375,P13,D03,1,1,1
1860,0.21,1645174428.875,P13,D03,1,1,1
1861,0.35,1645174428.890625,P13,D03,1,1,1
1862,0.51,1645174428.90625,P13,D03,1,1,1
1863,0.6,1645174428.921875,P13,D03,1,1,1
1864,0.58,1645174428.9375,P13,D03,1,1,1
1865,0.41,1645174428.953125,P13,D03,1,1,1
1866,0.15,1645174428.96875,P13,D03,1,1,1
1867,-0.13,1645174428.984375,P13,D03,1,1,1
1868,-0.31,1645174429.0,P13,D03,1,1,1
1869,-0.3,1645174429.015625,P13,D03,1,1,1
1870,-0.07,1645174429.03125,P13,D03,1,1,1
1871,0.33,1645174429.046875,P13,D03,1,1,1
1872,0.78,1645174429.0625,P13,D03,1,1,1
1873,1.14,1645174429.078125,P13,D03,1,1,1
1874,1.27,1645174429.09375,P13,D03,1,1,1
1875,1.13,1645174429.109375,P13,D03,1,1,1
1876,0.76,1645174429.125,P13,D03,1,1,1
1877,0.28,1645174429.140625,P13,D03,1,1,1
1878,-0.2,1645174429.15625,P13,D03,1,1,1
1879,-0.54,1645174429.171875,P13,D03,1,1,1
1880,-0.72,1645174429.1875,P13,D03,1,1,1
1881,-0.71,1645174429.203125,P13,D03,1,1,1
1882,-0.54,1645174429.21875,P13,D03,1,1,1
1883,-0.25,1645174429.234375,P13,D03,1,1,1
1884,0.11,1645174429.25,P13,D03,1,1,1
1885,0.44,1645174429.265625,P13,D03,1,1,1
1886,0.64,1645174429.28125,P13,D03,1,1,1
1887,0.63,1645174429.296875,P13,D03,1,1,1
1888,0.41,1645174429.3125,P13,D03,1,1,1
1889,0.06,1645174429.328125,P13,D03,1,1,1
1890,-0.28,1645174429.34375,P13,D03,1,1,1
1891,-0.53,1645174429.359375,P13,D03,1,1,1
1892,-0.6,1645174429.375,P13,D03,1,1,1
1893,-0.54,1645174429.390625,P13,D03,1,1,1
1894,-0.38,1645174429.40625,P13,D03,1,1,1
1895,-0.22,1645174429.421875,P13,D03,1,1,1
1896,-0.11,1645174429.4375,P13,D03,1,1,1
1897,-0.1,1645174429.453125,P13,D03,1,1,1
1898,-0.2,1645174429.46875,P13,D03,1,1,1
1899,-0.38,1645174429.484375,P13,D03,1,1,1
1900,-0.6,1645174429.5,P13,D03,1,1,1
1901,-0.79,1645174429.515625,P13,D03,1,1,1
1902,-0.9,1645174429.53125,P13,D03,1,1,1
1903,-0.88,1645174429.546875,P13,D03,1,1,1
1904,-0.75,1645174429.5625,P13,D03,1,1,1
1905,-0.54,1645174429.578125,P13,D03,1,1,1
1906,-0.3,1645174429.59375,P13,D03,1,1,1
1907,-0.08,1645174429.609375,P13,D03,1,1,1
1908,0.05,1645174429.625,P13,D03,1,1,1
1909,0.06,1645174429.640625,P13,D03,1,1,1
1910,-0.04,1645174429.65625,P13,D03,1,1,1
1911,-0.22,1645174429.671875,P13,D03,1,1,1
1912,-0.36,1645174429.6875,P13,D03,1,1,1
1913,-0.35,1645174429.703125,P13,D03,1,1,1
1914,-0.14,1645174429.71875,P13,D03,1,1,1
1915,0.22,1645174429.734375,P13,D03,1,1,1
1916,0.57,1645174429.75,P13,D03,1,1,1
1917,0.73,1645174429.765625,P13,D03,1,1,1
1918,0.62,1645174429.78125,P13,D03,1,1,1
1919,0.26,1645174429.796875,P13,D03,1,1,1
1920,-0.18,1645174429.8125,P13,D03,1,1,1
1921,-0.55,1645174429.828125,P13,D03,1,1,1
1922,-0.73,1645174429.84375,P13,D03,1,1,1
1923,-0.73,1645174429.859375,P13,D03,1,1,1
1924,-0.63,1645174429.875,P13,D03,1,1,1
1925,-0.51,1645174429.890625,P13,D03,1,1,1
1926,-0.4,1645174429.90625,P13,D03,1,1,1
1927,-0.26,1645174429.921875,P13,D03,1,1,1
1928,-0.09,1645174429.9375,P13,D03,1,1,1
1929,0.08,1645174429.953125,P13,D03,1,1,1
1930,0.17,1645174429.96875,P13,D03,1,1,1
1931,0.07,1645174429.984375,P13,D03,1,1,1
1932,-0.23,1645174430.0,P13,D03,1,1,1
1933,-0.68,1645174430.015625,P13,D03,1,1,1
1934,-1.13,1645174430.03125,P13,D03,1,1,1
1935,-1.44,1645174430.046875,P13,D03,1,1,1
1936,-1.51,1645174430.0625,P13,D03,1,1,1
1937,-1.32,1645174430.078125,P13,D03,1,1,1
1938,-0.99,1645174430.09375,P13,D03,1,1,1
1939,-0.64,1645174430.109375,P13,D03,1,1,1
1940,-0.39,1645174430.125,P13,D03,1,1,1
1941,-0.3,1645174430.140625,P13,D03,1,1,1
1942,-0.34,1645174430.15625,P13,D03,1,1,1
1943,-0.44,1645174430.171875,P13,D03,1,1,1
1944,-0.49,1645174430.1875,P13,D03,1,1,1
1945,-0.45,1645174430.203125,P13,D03,1,1,1
1946,-0.3,1645174430.21875,P13,D03,1,1,1
1947,-0.11,1645174430.234375,P13,D03,1,1,1
1948,0.05,1645174430.25,P13,D03,1,1,1
1949,0.11,1645174430.265625,P13,D03,1,1,1
1950,0.11,1645174430.28125,P13,D03,1,1,1
1951,0.09,1645174430.296875,P13,D03,1,1,1
1952,0.12,1645174430.3125,P13,D03,1,1,1
1953,0.23,1645174430.328125,P13,D03,1,1,1
1954,0.35,1645174430.34375,P13,D03,1,1,1
1955,0.42,1645174430.359375,P13,D03,1,1,1
1956,0.37,1645174430.375,P13,D03,1,1,1
1957,0.19,1645174430.390625,P13,D03,1,1,1
1958,-0.04,1645174430.40625,P13,D03,1,1,1
1959,-0.26,1645174430.421875,P13,D03,1,1,1
1960,-0.35,1645174430.4375,P13,D03,1,1,1
1961,-0.31,1645174430.453125,P13,D03,1,1,1
1962,-0.18,1645174430.46875,P13,D03,1,1,1
1963,-0.04,1645174430.484375,P13,D03,1,1,1
1964,-0.0,1645174430.5,P13,D03,1,1,1
1965,-0.1,1645174430.515625,P13,D03,1,1,1
1966,-0.31,1645174430.53125,P13,D03,1,1,1
1967,-0.54,1645174430.546875,P13,D03,1,1,1
1968,-0.72,1645174430.5625,P13,D03,1,1,1
1969,-0.78,1645174430.578125,P13,D03,1,1,1
1970,-0.72,1645174430.59375,P13,D03,1,1,1
1971,-0.58,1645174430.609375,P13,D03,1,1,1
1972,-0.4,1645174430.625,P13,D03,1,1,1
1973,-0.22,1645174430.640625,P13,D03,1,1,1
1974,-0.08,1645174430.65625,P13,D03,1,1,1
1975,-0.01,1645174430.671875,P13,D03,1,1,1
1976,-0.03,1645174430.6875,P13,D03,1,1,1
1977,-0.14,1645174430.703125,P13,D03,1,1,1
1978,-0.29,1645174430.71875,P13,D03,1,1,1
1979,-0.39,1645174430.734375,P13,D03,1,1,1
1980,-0.33,1645174430.75,P13,D03,1,1,1
1981,-0.01,1645174430.765625,P13,D03,1,1,1
1982,0.58,1645174430.78125,P13,D03,1,1,1
1983,1.33,1645174430.796875,P13,D03,1,1,1
1984,2.06,1645174430.8125,P13,D03,1,1,1
1985,2.56,1645174430.828125,P13,D03,1,1,1
1986,2.73,1645174430.84375,P13,D03,1,1,1
1987,2.54,1645174430.859375,P13,D03,1,1,1
1988,2.1,1645174430.875,P13,D03,1,1,1
1989,1.58,1645174430.890625,P13,D03,1,1,1
1990,1.15,1645174430.90625,P13,D03,1,1,1
1991,0.93,1645174430.921875,P13,D03,1,1,1
1992,0.94,1645174430.9375,P13,D03,1,1,1
1993,1.09,1645174430.953125,P13,D03,1,1,1
1994,1.23,1645174430.96875,P13,D03,1,1,1
1995,1.24,1645174430.984375,P13,D03,1,1,1
1996,1.09,1645174431.0,P13,D03,1,1,1
1997,0.84,1645174431.015625,P13,D03,1,1,1
1998,0.6,1645174431.03125,P13,D03,1,1,1
1999,0.46,1645174431.046875,P13,D03,1,1,1
2000,0.4,1645174431.0625,P13,D03,1,1,1
2001,0.38,1645174431.078125,P13,D03,1,1,1
2002,0.31,1645174431.09375,P13,D03,1,1,1
2003,0.16,1645174431.109375,P13,D03,1,1,1
2004,-0.02,1645174431.125,P13,D03,1,1,1
2005,-0.15,1645174431.140625,P13,D03,1,1,1
2006,-0.18,1645174431.15625,P13,D03,1,1,1
2007,-0.12,1645174431.171875,P13,D03,1,1,1
2008,-0.02,1645174431.1875,P13,D03,1,1,1
2009,0.04,1645174431.203125,P13,D03,1,1,1
2010,0.05,1645174431.21875,P13,D03,1,1,1
2011,0.04,1645174431.234375,P13,D03,1,1,1
2012,0.09,1645174431.25,P13,D03,1,1,1
2013,0.23,1645174431.265625,P13,D03,1,1,1
2014,0.48,1645174431.28125,P13,D03,1,1,1
2015,0.76,1645174431.296875,P13,D03,1,1,1
2016,0.97,1645174431.3125,P13,D03,1,1,1
2017,0.99,1645174431.328125,P13,D03,1,1,1
2018,0.79,1645174431.34375,P13,D03,1,1,1
2019,0.4,1645174431.359375,P13,D03,1,1,1
2020,-0.03,1645174431.375,P13,D03,1,1,1
2021,-0.35,1645174431.390625,P13,D03,1,1,1
2022,-0.47,1645174431.40625,P13,D03,1,1,1
2023,-0.42,1645174431.421875,P13,D03,1,1,1
2024,-0.29,1645174431.4375,P13,D03,1,1,1
2025,-0.2,1645174431.453125,P13,D03,1,1,1
2026,-0.24,1645174431.46875,P13,D03,1,1,1
2027,-0.37,1645174431.484375,P13,D03,1,1,1
2028,-0.53,1645174431.5,P13,D03,1,1,1
2029,-0.65,1645174431.515625,P13,D03,1,1,1
2030,-0.69,1645174431.53125,P13,D03,1,1,1
2031,-0.68,1645174431.546875,P13,D03,1,1,1
2032,-0.65,1645174431.5625,P13,D03,1,1,1
2033,-0.58,1645174431.578125,P13,D03,1,1,1
2034,-0.45,1645174431.59375,P13,D03,1,1,1
2035,-0.29,1645174431.609375,P13,D03,1,1,1
2036,-0.13,1645174431.625,P13,D03,1,1,1
2037,-0.05,1645174431.640625,P13,D03,1,1,1
2038,-0.08,1645174431.65625,P13,D03,1,1,1
2039,-0.18,1645174431.671875,P13,D03,1,1,1
2040,-0.28,1645174431.6875,P13,D03,1,1,1
2041,-0.28,1645174431.703125,P13,D03,1,1,1
2042,-0.17,1645174431.71875,P13,D03,1,1,1
2043,-0.0,1645174431.734375,P13,D03,1,1,1
2044,0.15,1645174431.75,P13,D03,1,1,1
2045,0.24,1645174431.765625,P13,D03,1,1,1
2046,0.24,1645174431.78125,P13,D03,1,1,1
2047,0.17,1645174431.796875,P13,D03,1,1,1
2048,0.05,1645174431.8125,P13,D03,1,1,1
2049,-0.13,1645174431.828125,P13,D03,1,1,1
2050,-0.36,1645174431.84375,P13,D03,1,1,1
2051,-0.55,1645174431.859375,P13,D03,1,1,1
2052,-0.61,1645174431.875,P13,D03,1,1,1
2053,-0.44,1645174431.890625,P13,D03,1,1,1
2054,-0.03,1645174431.90625,P13,D03,1,1,1
2055,0.49,1645174431.921875,P13,D03,1,1,1
2056,0.95,1645174431.9375,P13,D03,1,1,1
2057,1.21,1645174431.953125,P13,D03,1,1,1
2058,1.24,1645174431.96875,P13,D03,1,1,1
2059,1.1,1645174431.984375,P13,D03,1,1,1
2060,0.92,1645174432.0,P13,D03,1,1,1
2061,0.75,1645174432.015625,P13,D03,1,1,1
2062,0.62,1645174432.03125,P13,D03,1,1,1
2063,0.52,1645174432.046875,P13,D03,1,1,1
2064,0.45,1645174432.0625,P13,D03,1,1,1
2065,0.45,1645174432.078125,P13,D03,1,1,1
2066,0.53,1645174432.09375,P13,D03,1,1,1
2067,0.68,1645174432.109375,P13,D03,1,1,1
2068,0.81,1645174432.125,P13,D03,1,1,1
2069,0.84,1645174432.140625,P13,D03,1,1,1
2070,0.75,1645174432.15625,P13,D03,1,1,1
2071,0.58,1645174432.171875,P13,D03,1,1,1
2072,0.42,1645174432.1875,P13,D03,1,1,1
2073,0.35,1645174432.203125,P13,D03,1,1,1
2074,0.42,1645174432.21875,P13,D03,1,1,1
2075,0.61,1645174432.234375,P13,D03,1,1,1
2076,0.88,1645174432.25,P13,D03,1,1,1
2077,1.19,1645174432.265625,P13,D03,1,1,1
2078,1.49,1645174432.28125,P13,D03,1,1,1
2079,1.71,1645174432.296875,P13,D03,1,1,1
2080,1.79,1645174432.3125,P13,D03,1,1,1
2081,1.69,1645174432.328125,P13,D03,1,1,1
2082,1.45,1645174432.34375,P13,D03,1,1,1
2083,1.19,1645174432.359375,P13,D03,1,1,1
2084,1.03,1645174432.375,P13,D03,1,1,1
2085,1.07,1645174432.390625,P13,D03,1,1,1
2086,1.27,1645174432.40625,P13,D03,1,1,1
2087,1.5,1645174432.421875,P13,D03,1,1,1
2088,1.59,1645174432.4375,P13,D03,1,1,1
2089,1.45,1645174432.453125,P13,D03,1,1,1
2090,1.1,1645174432.46875,P13,D03,1,1,1
2091,0.65,1645174432.484375,P13,D03,1,1,1
2092,0.24,1645174432.5,P13,D03,1,1,1
2093,-0.03,1645174432.515625,P13,D03,1,1,1
2094,-0.13,1645174432.53125,P13,D03,1,1,1
2095,-0.04,1645174432.546875,P13,D03,1,1,1
2096,0.24,1645174432.5625,P13,D03,1,1,1
2097,0.7,1645174432.578125,P13,D03,1,1,1
2098,1.28,1645174432.59375,P13,D03,1,1,1
2099,1.87,1645174432.609375,P13,D03,1,1,1
2100,2.27,1645174432.625,P13,D03,1,1,1
2101,2.32,1645174432.640625,P13,D03,1,1,1
2102,1.96,1645174432.65625,P13,D03,1,1,1
2103,1.31,1645174432.671875,P13,D03,1,1,1
2104,0.57,1645174432.6875,P13,D03,1,1,1
2105,-0.02,1645174432.703125,P13,D03,1,1,1
2106,-0.34,1645174432.71875,P13,D03,1,1,1
2107,-0.39,1645174432.734375,P13,D03,1,1,1
2108,-0.26,1645174432.75,P13,D03,1,1,1
2109,-0.03,1645174432.765625,P13,D03,1,1,1
2110,0.26,1645174432.78125,P13,D03,1,1,1
2111,0.66,1645174432.796875,P13,D03,1,1,1
2112,1.23,1645174432.8125,P13,D03,1,1,1
2113,1.96,1645174432.828125,P13,D03,1,1,1
2114,2.74,1645174432.84375,P13,D03,1,1,1
2115,3.43,1645174432.859375,P13,D03,1,1,1
2116,3.91,1645174432.875,P13,D03,1,1,1
2117,4.15,1645174432.890625,P13,D03,1,1,1
2118,4.25,1645174432.90625,P13,D03,1,1,1
2119,4.37,1645174432.921875,P13,D03,1,1,1
2120,4.64,1645174432.9375,P13,D03,1,1,1
2121,5.13,1645174432.953125,P13,D03,1,1,1
2122,5.75,1645174432.96875,P13,D03,1,1,1
2123,6.37,1645174432.984375,P13,D03,1,1,1
2124,6.81,1645174433.0,P13,D03,1,1,1
2125,7.0,1645174433.015625,P13,D03,1,1,1
2126,6.97,1645174433.03125,P13,D03,1,1,1
2127,6.82,1645174433.046875,P13,D03,1,1,1
2128,6.73,1645174433.0625,P13,D03,1,1,1
2129,6.82,1645174433.078125,P13,D03,1,1,1
2130,7.14,1645174433.09375,P13,D03,1,1,1
2131,7.68,1645174433.109375,P13,D03,1,1,1
2132,8.39,1645174433.125,P13,D03,1,1,1
2133,9.16,1645174433.140625,P13,D03,1,1,1
2134,9.89,1645174433.15625,P13,D03,1,1,1
2135,10.46,1645174433.171875,P13,D03,1,1,1
2136,10.75,1645174433.1875,P13,D03,1,1,1
2137,10.59,1645174433.203125,P13,D03,1,1,1
2138,9.85,1645174433.21875,P13,D03,1,1,1
2139,8.42,1645174433.234375,P13,D03,1,1,1
2140,6.25,1645174433.25,P13,D03,1,1,1
2141,3.37,1645174433.265625,P13,D03,1,1,1
2142,0.01,1645174433.28125,P13,D03,1,1,1
2143,-3.51,1645174433.296875,P13,D03,1,1,1
2144,-6.8,1645174433.3125,P13,D03,1,1,1
2145,-9.51,1645174433.328125,P13,D03,1,1,1
2146,-11.42,1645174433.34375,P13,D03,1,1,1
2147,-12.54,1645174433.359375,P13,D03,1,1,1
2148,-13.02,1645174433.375,P13,D03,1,1,1
2149,-13.08,1645174433.390625,P13,D03,1,1,1
2150,-12.92,1645174433.40625,P13,D03,1,1,1
2151,-12.64,1645174433.421875,P13,D03,1,1,1
2152,-12.25,1645174433.4375,P13,D03,1,1,1
2153,-11.71,1645174433.453125,P13,D03,1,1,1
2154,-11.05,1645174433.46875,P13,D03,1,1,1
2155,-10.31,1645174433.484375,P13,D03,1,1,1
2156,-9.58,1645174433.5,P13,D03,1,1,1
2157,-8.93,1645174433.515625,P13,D03,1,1,1
2158,-8.36,1645174433.53125,P13,D03,1,1,1
2159,-7.84,1645174433.546875,P13,D03,1,1,1
2160,-7.3,1645174433.5625,P13,D03,1,1,1
2161,-6.7,1645174433.578125,P13,D03,1,1,1
2162,-6.04,1645174433.59375,P13,D03,1,1,1
2163,-5.36,1645174433.609375,P13,D03,1,1,1
2164,-4.71,1645174433.625,P13,D03,1,1,1
2165,-4.12,1645174433.640625,P13,D03,1,1,1
2166,-3.59,1645174433.65625,P13,D03,1,1,1
2167,-3.12,1645174433.671875,P13,D03,1,1,1
2168,-2.7,1645174433.6875,P13,D03,1,1,1
2169,-2.36,1645174433.703125,P13,D03,1,1,1
2170,-2.12,1645174433.71875,P13,D03,1,1,1
2171,-1.97,1645174433.734375,P13,D03,1,1,1
2172,-1.84,1645174433.75,P13,D03,1,1,1
2173,-1.66,1645174433.765625,P13,D03,1,1,1
2174,-1.36,1645174433.78125,P13,D03,1,1,1
2175,-0.96,1645174433.796875,P13,D03,1,1,1
2176,-0.52,1645174433.8125,P13,D03,1,1,1
2177,-0.18,1645174433.828125,P13,D03,1,1,1
2178,-0.03,1645174433.84375,P13,D03,1,1,1
2179,-0.08,1645174433.859375,P13,D03,1,1,1
2180,-0.27,1645174433.875,P13,D03,1,1,1
2181,-0.46,1645174433.890625,P13,D03,1,1,1
2182,-0.53,1645174433.90625,P13,D03,1,1,1
2183,-0.45,1645174433.921875,P13,D03,1,1,1
2184,-0.23,1645174433.9375,P13,D03,1,1,1
2185,0.07,1645174433.953125,P13,D03,1,1,1
2186,0.38,1645174433.96875,P13,D03,1,1,1
2187,0.63,1645174433.984375,P13,D03,1,1,1
2188,0.78,1645174434.0,P13,D03,1,1,1
2189,0.76,1645174434.015625,P13,D03,1,1,1
2190,0.54,1645174434.03125,P13,D03,1,1,1
2191,0.09,1645174434.046875,P13,D03,1,1,1
2192,-0.57,1645174434.0625,P13,D03,1,1,1
2193,-1.35,1645174434.078125,P13,D03,1,1,1
2194,-2.15,1645174434.09375,P13,D03,1,1,1
2195,-2.81,1645174434.109375,P13,D03,1,1,1
2196,-3.25,1645174434.125,P13,D03,1,1,1
2197,-3.38,1645174434.140625,P13,D03,1,1,1
2198,-3.23,1645174434.15625,P13,D03,1,1,1
2199,-2.85,1645174434.171875,P13,D03,1,1,1
2200,-2.36,1645174434.1875,P13,D03,1,1,1
2201,-1.87,1645174434.203125,P13,D03,1,1,1
2202,-1.48,1645174434.21875,P13,D03,1,1,1
2203,-1.25,1645174434.234375,P13,D03,1,1,1
2204,-1.14,1645174434.25,P13,D03,1,1,1
2205,-1.08,1645174434.265625,P13,D03,1,1,1
2206,-0.97,1645174434.28125,P13,D03,1,1,1
2207,-0.79,1645174434.296875,P13,D03,1,1,1
2208,-0.56,1645174434.3125,P13,D03,1,1,1
2209,-0.36,1645174434.328125,P13,D03,1,1,1
2210,-0.26,1645174434.34375,P13,D03,1,1,1
2211,-0.23,1645174434.359375,P13,D03,1,1,1
2212,-0.21,1645174434.375,P13,D03,1,1,1
2213,-0.14,1645174434.390625,P13,D03,1,1,1
2214,0.03,1645174434.40625,P13,D03,1,1,1
2215,0.24,1645174434.421875,P13,D03,1,1,1
2216,0.39,1645174434.4375,P13,D03,1,1,1
2217,0.42,1645174434.453125,P13,D03,1,1,1
2218,0.33,1645174434.46875,P13,D03,1,1,1
2219,0.19,1645174434.484375,P13,D03,1,1,1
2220,0.11,1645174434.5,P13,D03,1,1,1
2221,0.13,1645174434.515625,P13,D03,1,1,1
2222,0.23,1645174434.53125,P13,D03,1,1,1
2223,0.3,1645174434.546875,P13,D03,1,1,1
2224,0.27,1645174434.5625,P13,D03,1,1,1
2225,0.14,1645174434.578125,P13,D03,1,1,1
2226,-0.02,1645174434.59375,P13,D03,1,1,1
2227,-0.08,1645174434.609375,P13,D03,1,1,1
2228,0.02,1645174434.625,P13,D03,1,1,1
2229,0.24,1645174434.640625,P13,D03,1,1,1
2230,0.48,1645174434.65625,P13,D03,1,1,1
2231,0.61,1645174434.671875,P13,D03,1,1,1
2232,0.58,1645174434.6875,P13,D03,1,1,1
2233,0.45,1645174434.703125,P13,D03,1,1,1
2234,0.31,1645174434.71875,P13,D03,1,1,1
2235,0.28,1645174434.734375,P13,D03,1,1,1
2236,0.39,1645174434.75,P13,D03,1,1,1
2237,0.6,1645174434.765625,P13,D03,1,1,1
2238,0.79,1645174434.78125,P13,D03,1,1,1
2239,0.89,1645174434.796875,P13,D03,1,1,1
2240,0.84,1645174434.8125,P13,D03,1,1,1
2241,0.68,1645174434.828125,P13,D03,1,1,1
2242,0.44,1645174434.84375,P13,D03,1,1,1
2243,0.2,1645174434.859375,P13,D03,1,1,1
2244,-0.03,1645174434.875,P13,D03,1,1,1
2245,-0.19,1645174434.890625,P13,D03,1,1,1
2246,-0.28,1645174434.90625,P13,D03,1,1,1
2247,-0.27,1645174434.921875,P13,D03,1,1,1
2248,-0.17,1645174434.9375,P13,D03,1,1,1
2249,-0.0,1645174434.953125,P13,D03,1,1,1
2250,0.19,1645174434.96875,P13,D03,1,1,1
2251,0.35,1645174434.984375,P13,D03,1,1,1
2252,0.42,1645174435.0,P13,D03,1,1,1
2253,0.4,1645174435.015625,P13,D03,1,1,1
2254,0.31,1645174435.03125,P13,D03,1,1,1
2255,0.21,1645174435.046875,P13,D03,1,1,1
2256,0.15,1645174435.0625,P13,D03,1,1,1
2257,0.19,1645174435.078125,P13,D03,1,1,1
2258,0.32,1645174435.09375,P13,D03,1,1,1
2259,0.5,1645174435.109375,P13,D03,1,1,1
2260,0.67,1645174435.125,P13,D03,1,1,1
2261,0.77,1645174435.140625,P13,D03,1,1,1
2262,0.77,1645174435.15625,P13,D03,1,1,1
2263,0.67,1645174435.171875,P13,D03,1,1,1
2264,0.53,1645174435.1875,P13,D03,1,1,1
2265,0.41,1645174435.203125,P13,D03,1,1,1
2266,0.34,1645174435.21875,P13,D03,1,1,1
2267,0.33,1645174435.234375,P13,D03,1,1,1
2268,0.39,1645174435.25,P13,D03,1,1,1
2269,0.49,1645174435.265625,P13,D03,1,1,1
2270,0.63,1645174435.28125,P13,D03,1,1,1
2271,0.78,1645174435.296875,P13,D03,1,1,1
2272,0.89,1645174435.3125,P13,D03,1,1,1
2273,0.87,1645174435.328125,P13,D03,1,1,1
2274,0.69,1645174435.34375,P13,D03,1,1,1
2275,0.32,1645174435.359375,P13,D03,1,1,1
2276,-0.16,1645174435.375,P13,D03,1,1,1
2277,-0.64,1645174435.390625,P13,D03,1,1,1
2278,-1.0,1645174435.40625,P13,D03,1,1,1
2279,-1.19,1645174435.421875,P13,D03,1,1,1
2280,-1.22,1645174435.4375,P13,D03,1,1,1
2281,-1.13,1645174435.453125,P13,D03,1,1,1
2282,-0.99,1645174435.46875,P13,D03,1,1,1
2283,-0.85,1645174435.484375,P13,D03,1,1,1
2284,-0.7,1645174435.5,P13,D03,1,1,1
2285,-0.56,1645174435.515625,P13,D03,1,1,1
2286,-0.43,1645174435.53125,P13,D03,1,1,1
2287,-0.35,1645174435.546875,P13,D03,1,1,1
2288,-0.34,1645174435.5625,P13,D03,1,1,1
2289,-0.39,1645174435.578125,P13,D03,1,1,1
2290,-0.45,1645174435.59375,P13,D03,1,1,1
2291,-0.47,1645174435.609375,P13,D03,1,1,1
2292,-0.43,1645174435.625,P13,D03,1,1,1
2293,-0.32,1645174435.640625,P13,D03,1,1,1
2294,-0.18,1645174435.65625,P13,D03,1,1,1
2295,-0.05,1645174435.671875,P13,D03,1,1,1
2296,0.04,1645174435.6875,P13,D03,1,1,1
2297,0.08,1645174435.703125,P13,D03,1,1,1
2298,0.05,1645174435.71875,P13,D03,1,1,1
2299,-0.06,1645174435.734375,P13,D03,1,1,1
2300,-0.25,1645174435.75,P13,D03,1,1,1
2301,-0.49,1645174435.765625,P13,D03,1,1,1
2302,-0.7,1645174435.78125,P13,D03,1,1,1
2303,-0.81,1645174435.796875,P13,D03,1,1,1
2304,-0.76,1645174435.8125,P13,D03,1,1,1
2305,-0.58,1645174435.828125,P13,D03,1,1,1
2306,-0.33,1645174435.84375,P13,D03,1,1,1
2307,-0.09,1645174435.859375,P13,D03,1,1,1
2308,0.11,1645174435.875,P13,D03,1,1,1
2309,0.24,1645174435.890625,P13,D03,1,1,1
2310,0.33,1645174435.90625,P13,D03,1,1,1
2311,0.37,1645174435.921875,P13,D03,1,1,1
2312,0.35,1645174435.9375,P13,D03,1,1,1
2313,0.25,1645174435.953125,P13,D03,1,1,1
2314,0.1,1645174435.96875,P13,D03,1,1,1
2315,-0.06,1645174435.984375,P13,D03,1,1,1
2316,-0.17,1645174436.0,P13,D03,1,1,1
2317,-0.21,1645174436.015625,P13,D03,1,1,1
2318,-0.19,1645174436.03125,P13,D03,1,1,1
2319,-0.15,1645174436.046875,P13,D03,1,1,1
2320,-0.15,1645174436.0625,P13,D03,1,1,1
2321,-0.21,1645174436.078125,P13,D03,1,1,1
2322,-0.29,1645174436.09375,P13,D03,1,1,1
2323,-0.34,1645174436.109375,P13,D03,1,1,1
2324,-0.33,1645174436.125,P13,D03,1,1,1
2325,-0.23,1645174436.140625,P13,D03,1,1,1
2326,-0.1,1645174436.15625,P13,D03,1,1,1
2327,-0.0,1645174436.171875,P13,D03,1,1,1
2328,0.02,1645174436.1875,P13,D03,1,1,1
2329,-0.08,1645174436.203125,P13,D03,1,1,1
2330,-0.27,1645174436.21875,P13,D03,1,1,1
2331,-0.52,1645174436.234375,P13,D03,1,1,1
2332,-0.77,1645174436.25,P13,D03,1,1,1
2333,-0.97,1645174436.265625,P13,D03,1,1,1
2334,-1.07,1645174436.28125,P13,D03,1,1,1
2335,-1.08,1645174436.296875,P13,D03,1,1,1
2336,-1.0,1645174436.3125,P13,D03,1,1,1
2337,-0.84,1645174436.328125,P13,D03,1,1,1
2338,-0.61,1645174436.34375,P13,D03,1,1,1
2339,-0.3,1645174436.359375,P13,D03,1,1,1
2340,0.06,1645174436.375,P13,D03,1,1,1
2341,0.44,1645174436.390625,P13,D03,1,1,1
2342,0.76,1645174436.40625,P13,D03,1,1,1
2343,0.98,1645174436.421875,P13,D03,1,1,1
2344,1.07,1645174436.4375,P13,D03,1,1,1
2345,1.04,1645174436.453125,P13,D03,1,1,1
2346,0.93,1645174436.46875,P13,D03,1,1,1
2347,0.78,1645174436.484375,P13,D03,1,1,1
2348,0.62,1645174436.5,P13,D03,1,1,1
2349,0.45,1645174436.515625,P13,D03,1,1,1
2350,0.29,1645174436.53125,P13,D03,1,1,1
2351,0.14,1645174436.546875,P13,D03,1,1,1
2352,0.03,1645174436.5625,P13,D03,1,1,1
2353,-0.02,1645174436.578125,P13,D03,1,1,1
2354,-0.01,1645174436.59375,P13,D03,1,1,1
2355,0.05,1645174436.609375,P13,D03,1,1,1
2356,0.11,1645174436.625,P13,D03,1,1,1
2357,0.13,1645174436.640625,P13,D03,1,1,1
2358,0.09,1645174436.65625,P13,D03,1,1,1
2359,0.03,1645174436.671875,P13,D03,1,1,1
2360,-0.0,1645174436.6875,P13,D03,1,1,1
2361,0.06,1645174436.703125,P13,D03,1,1,1
2362,0.21,1645174436.71875,P13,D03,1,1,1
2363,0.4,1645174436.734375,P13,D03,1,1,1
2364,0.56,1645174436.75,P13,D03,1,1,1
2365,0.63,1645174436.765625,P13,D03,1,1,1
2366,0.58,1645174436.78125,P13,D03,1,1,1
2367,0.46,1645174436.796875,P13,D03,1,1,1
2368,0.33,1645174436.8125,P13,D03,1,1,1
2369,0.23,1645174436.828125,P13,D03,1,1,1
2370,0.14,1645174436.84375,P13,D03,1,1,1
2371,0.01,1645174436.859375,P13,D03,1,1,1
2372,-0.19,1645174436.875,P13,D03,1,1,1
2373,-0.44,1645174436.890625,P13,D03,1,1,1
2374,-0.67,1645174436.90625,P13,D03,1,1,1
2375,-0.78,1645174436.921875,P13,D03,1,1,1
2376,-0.73,1645174436.9375,P13,D03,1,1,1
2377,-0.55,1645174436.953125,P13,D03,1,1,1
2378,-0.33,1645174436.96875,P13,D03,1,1,1
2379,-0.16,1645174436.984375,P13,D03,1,1,1
2380,-0.11,1645174437.0,P13,D03,1,1,1
2381,-0.19,1645174437.015625,P13,D03,1,1,1
2382,-0.36,1645174437.03125,P13,D03,1,1,1
2383,-0.51,1645174437.046875,P13,D03,1,1,1
2384,-0.55,1645174437.0625,P13,D03,1,1,1
2385,-0.38,1645174437.078125,P13,D03,1,1,1
2386,0.02,1645174437.09375,P13,D03,1,1,1
2387,0.59,1645174437.109375,P13,D03,1,1,1
2388,1.17,1645174437.125,P13,D03,1,1,1
2389,1.58,1645174437.140625,P13,D03,1,1,1
2390,1.69,1645174437.15625,P13,D03,1,1,1
2391,1.47,1645174437.171875,P13,D03,1,1,1
2392,1.0,1645174437.1875,P13,D03,1,1,1
2393,0.45,1645174437.203125,P13,D03,1,1,1
2394,-0.01,1645174437.21875,P13,D03,1,1,1
2395,-0.26,1645174437.234375,P13,D03,1,1,1
2396,-0.26,1645174437.25,P13,D03,1,1,1
2397,-0.07,1645174437.265625,P13,D03,1,1,1
2398,0.21,1645174437.28125,P13,D03,1,1,1
2399,0.43,1645174437.296875,P13,D03,1,1,1
2400,0.5,1645174437.3125,P13,D03,1,1,1
2401,0.34,1645174437.328125,P13,D03,1,1,1
2402,-0.02,1645174437.34375,P13,D03,1,1,1
2403,-0.5,1645174437.359375,P13,D03,1,1,1
2404,-0.98,1645174437.375,P13,D03,1,1,1
2405,-1.32,1645174437.390625,P13,D03,1,1,1
2406,-1.42,1645174437.40625,P13,D03,1,1,1
2407,-1.21,1645174437.421875,P13,D03,1,1,1
2408,-0.74,1645174437.4375,P13,D03,1,1,1
2409,-0.15,1645174437.453125,P13,D03,1,1,1
2410,0.39,1645174437.46875,P13,D03,1,1,1
2411,0.69,1645174437.484375,P13,D03,1,1,1
2412,0.67,1645174437.5,P13,D03,1,1,1
2413,0.39,1645174437.515625,P13,D03,1,1,1
2414,-0.01,1645174437.53125,P13,D03,1,1,1
2415,-0.34,1645174437.546875,P13,D03,1,1,1
2416,-0.47,1645174437.5625,P13,D03,1,1,1
2417,-0.37,1645174437.578125,P13,D03,1,1,1
2418,-0.11,1645174437.59375,P13,D03,1,1,1
2419,0.2,1645174437.609375,P13,D03,1,1,1
2420,0.48,1645174437.625,P13,D03,1,1,1
2421,0.67,1645174437.640625,P13,D03,1,1,1
2422,0.79,1645174437.65625,P13,D03,1,1,1
2423,0.84,1645174437.671875,P13,D03,1,1,1
2424,0.82,1645174437.6875,P13,D03,1,1,1
2425,0.73,1645174437.703125,P13,D03,1,1,1
2426,0.56,1645174437.71875,P13,D03,1,1,1
2427,0.32,1645174437.734375,P13,D03,1,1,1
2428,0.07,1645174437.75,P13,D03,1,1,1
2429,-0.17,1645174437.765625,P13,D03,1,1,1
2430,-0.35,1645174437.78125,P13,D03,1,1,1
2431,-0.44,1645174437.796875,P13,D03,1,1,1
2432,-0.46,1645174437.8125,P13,D03,1,1,1
2433,-0.43,1645174437.828125,P13,D03,1,1,1
2434,-0.38,1645174437.84375,P13,D03,1,1,1
2435,-0.36,1645174437.859375,P13,D03,1,1,1
2436,-0.38,1645174437.875,P13,D03,1,1,1
2437,-0.44,1645174437.890625,P13,D03,1,1,1
2438,-0.51,1645174437.90625,P13,D03,1,1,1
2439,-0.59,1645174437.921875,P13,D03,1,1,1
2440,-0.68,1645174437.9375,P13,D03,1,1,1
2441,-0.77,1645174437.953125,P13,D03,1,1,1
2442,-0.83,1645174437.96875,P13,D03,1,1,1
2443,-0.81,1645174437.984375,P13,D03,1,1,1
2444,-0.66,1645174438.0,P13,D03,1,1,1
2445,-0.34,1645174438.015625,P13,D03,1,1,1
2446,0.09,1645174438.03125,P13,D03,1,1,1
2447,0.52,1645174438.046875,P13,D03,1,1,1
2448,0.81,1645174438.0625,P13,D03,1,1,1
2449,0.83,1645174438.078125,P13,D03,1,1,1
2450,0.6,1645174438.09375,P13,D03,1,1,1
2451,0.2,1645174438.109375,P13,D03,1,1,1
2452,-0.19,1645174438.125,P13,D03,1,1,1
2453,-0.41,1645174438.140625,P13,D03,1,1,1
2454,-0.39,1645174438.15625,P13,D03,1,1,1
2455,-0.15,1645174438.171875,P13,D03,1,1,1
2456,0.17,1645174438.1875,P13,D03,1,1,1
2457,0.45,1645174438.203125,P13,D03,1,1,1
2458,0.63,1645174438.21875,P13,D03,1,1,1
2459,0.66,1645174438.234375,P13,D03,1,1,1
2460,0.61,1645174438.25,P13,D03,1,1,1
2461,0.52,1645174438.265625,P13,D03,1,1,1
2462,0.41,1645174438.28125,P13,D03,1,1,1
2463,0.27,1645174438.296875,P13,D03,1,1,1
2464,0.11,1645174438.3125,P13,D03,1,1,1
2465,-0.04,1645174438.328125,P13,D03,1,1,1
2466,-0.15,1645174438.34375,P13,D03,1,1,1
2467,-0.17,1645174438.359375,P13,D03,1,1,1
2468,-0.1,1645174438.375,P13,D03,1,1,1
2469,0.04,1645174438.390625,P13,D03,1,1,1
2470,0.17,1645174438.40625,P13,D03,1,1,1
2471,0.24,1645174438.421875,P13,D03,1,1,1
2472,0.23,1645174438.4375,P13,D03,1,1,1
2473,0.14,1645174438.453125,P13,D03,1,1,1
2474,-0.0,1645174438.46875,P13,D03,1,1,1
2475,-0.17,1645174438.484375,P13,D03,1,1,1
2476,-0.34,1645174438.5,P13,D03,1,1,1
2477,-0.49,1645174438.515625,P13,D03,1,1,1
2478,-0.59,1645174438.53125,P13,D03,1,1,1
2479,-0.59,1645174438.546875,P13,D03,1,1,1
2480,-0.49,1645174438.5625,P13,D03,1,1,1
2481,-0.31,1645174438.578125,P13,D03,1,1,1
2482,-0.14,1645174438.59375,P13,D03,1,1,1
2483,-0.07,1645174438.609375,P13,D03,1,1,1
2484,-0.15,1645174438.625,P13,D03,1,1,1
2485,-0.36,1645174438.640625,P13,D03,1,1,1
2486,-0.6,1645174438.65625,P13,D03,1,1,1
2487,-0.71,1645174438.671875,P13,D03,1,1,1
2488,-0.6,1645174438.6875,P13,D03,1,1,1
2489,-0.26,1645174438.703125,P13,D03,1,1,1
2490,0.2,1645174438.71875,P13,D03,1,1,1
2491,0.65,1645174438.734375,P13,D03,1,1,1
2492,0.95,1645174438.75,P13,D03,1,1,1
2493,1.04,1645174438.765625,P13,D03,1,1,1
2494,0.95,1645174438.78125,P13,D03,1,1,1
2495,0.76,1645174438.796875,P13,D03,1,1,1
2496,0.58,1645174438.8125,P13,D03,1,1,1
2497,0.46,1645174438.828125,P13,D03,1,1,1
2498,0.42,1645174438.84375,P13,D03,1,1,1
2499,0.41,1645174438.859375,P13,D03,1,1,1
2500,0.37,1645174438.875,P13,D03,1,1,1
2501,0.24,1645174438.890625,P13,D03,1,1,1
2502,0.04,1645174438.90625,P13,D03,1,1,1
2503,-0.17,1645174438.921875,P13,D03,1,1,1
2504,-0.32,1645174438.9375,P13,D03,1,1,1
2505,-0.34,1645174438.953125,P13,D03,1,1,1
2506,-0.19,1645174438.96875,P13,D03,1,1,1
2507,0.07,1645174438.984375,P13,D03,1,1,1
2508,0.34,1645174439.0,P13,D03,1,1,1
2509,0.5,1645174439.015625,P13,D03,1,1,1
2510,0.48,1645174439.03125,P13,D03,1,1,1
2511,0.28,1645174439.046875,P13,D03,1,1,1
2512,-0.02,1645174439.0625,P13,D03,1,1,1
2513,-0.3,1645174439.078125,P13,D03,1,1,1
2514,-0.48,1645174439.09375,P13,D03,1,1,1
2515,-0.51,1645174439.109375,P13,D03,1,1,1
2516,-0.46,1645174439.125,P13,D03,1,1,1
2517,-0.4,1645174439.140625,P13,D03,1,1,1
2518,-0.4,1645174439.15625,P13,D03,1,1,1
2519,-0.47,1645174439.171875,P13,D03,1,1,1
2520,-0.57,1645174439.1875,P13,D03,1,1,1
2521,-0.63,1645174439.203125,P13,D03,1,1,1
2522,-0.61,1645174439.21875,P13,D03,1,1,1
2523,-0.51,1645174439.234375,P13,D03,1,1,1
2524,-0.38,1645174439.25,P13,D03,1,1,1
2525,-0.31,1645174439.265625,P13,D03,1,1,1
2526,-0.35,1645174439.28125,P13,D03,1,1,1
2527,-0.54,1645174439.296875,P13,D03,1,1,1
2528,-0.83,1645174439.3125,P13,D03,1,1,1
2529,-1.16,1645174439.328125,P13,D03,1,1,1
2530,-1.41,1645174439.34375,P13,D03,1,1,1
2531,-1.51,1645174439.359375,P13,D03,1,1,1
2532,-1.42,1645174439.375,P13,D03,1,1,1
2533,-1.15,1645174439.390625,P13,D03,1,1,1
2534,-0.79,1645174439.40625,P13,D03,1,1,1
2535,-0.44,1645174439.421875,P13,D03,1,1,1
2536,-0.16,1645174439.4375,P13,D03,1,1,1
2537,0.02,1645174439.453125,P13,D03,1,1,1
2538,0.12,1645174439.46875,P13,D03,1,1,1
2539,0.15,1645174439.484375,P13,D03,1,1,1
2540,0.09,1645174439.5,P13,D03,1,1,1
2541,-0.04,1645174439.515625,P13,D03,1,1,1
2542,-0.25,1645174439.53125,P13,D03,1,1,1
2543,-0.47,1645174439.546875,P13,D03,1,1,1
2544,-0.65,1645174439.5625,P13,D03,1,1,1
2545,-0.7,1645174439.578125,P13,D03,1,1,1
2546,-0.62,1645174439.59375,P13,D03,1,1,1
2547,-0.44,1645174439.609375,P13,D03,1,1,1
2548,-0.24,1645174439.625,P13,D03,1,1,1
2549,-0.09,1645174439.640625,P13,D03,1,1,1
2550,-0.03,1645174439.65625,P13,D03,1,1,1
2551,-0.03,1645174439.671875,P13,D03,1,1,1
2552,-0.02,1645174439.6875,P13,D03,1,1,1
2553,0.07,1645174439.703125,P13,D03,1,1,1
2554,0.29,1645174439.71875,P13,D03,1,1,1
2555,0.61,1645174439.734375,P13,D03,1,1,1
2556,0.98,1645174439.75,P13,D03,1,1,1
2557,1.28,1645174439.765625,P13,D03,1,1,1
2558,1.4,1645174439.78125,P13,D03,1,1,1
2559,1.29,1645174439.796875,P13,D03,1,1,1
2560,0.97,1645174439.8125,P13,D03,1,1,1
2561,0.54,1645174439.828125,P13,D03,1,1,1
2562,0.18,1645174439.84375,P13,D03,1,1,1
2563,0.04,1645174439.859375,P13,D03,1,1,1
2564,0.17,1645174439.875,P13,D03,1,1,1
2565,0.51,1645174439.890625,P13,D03,1,1,1
2566,0.9,1645174439.90625,P13,D03,1,1,1
2567,1.14,1645174439.921875,P13,D03,1,1,1
2568,1.13,1645174439.9375,P13,D03,1,1,1
2569,0.89,1645174439.953125,P13,D03,1,1,1
2570,0.53,1645174439.96875,P13,D03,1,1,1
2571,0.18,1645174439.984375,P13,D03,1,1,1
2572,-0.07,1645174440.0,P13,D03,1,1,1
2573,-0.22,1645174440.015625,P13,D03,1,1,1
2574,-0.28,1645174440.03125,P13,D03,1,1,1
2575,-0.3,1645174440.046875,P13,D03,1,1,1
2576,-0.27,1645174440.0625,P13,D03,1,1,1
2577,-0.18,1645174440.078125,P13,D03,1,1,1
2578,-0.05,1645174440.09375,P13,D03,1,1,1
2579,0.09,1645174440.109375,P13,D03,1,1,1
2580,0.14,1645174440.125,P13,D03,1,1,1
2581,0.06,1645174440.140625,P13,D03,1,1,1
2582,-0.13,1645174440.15625,P13,D03,1,1,1
2583,-0.34,1645174440.171875,P13,D03,1,1,1
2584,-0.47,1645174440.1875,P13,D03,1,1,1
2585,-0.46,1645174440.203125,P13,D03,1,1,1
2586,-0.34,1645174440.21875,P13,D03,1,1,1
2587,-0.18,1645174440.234375,P13,D03,1,1,1
2588,-0.05,1645174440.25,P13,D03,1,1,1
2589,0.01,1645174440.265625,P13,D03,1,1,1
2590,0.05,1645174440.28125,P13,D03,1,1,1
2591,0.12,1645174440.296875,P13,D03,1,1,1
2592,0.23,1645174440.3125,P13,D03,1,1,1
2593,0.34,1645174440.328125,P13,D03,1,1,1
2594,0.37,1645174440.34375,P13,D03,1,1,1
2595,0.26,1645174440.359375,P13,D03,1,1,1
2596,0.03,1645174440.375,P13,D03,1,1,1
2597,-0.21,1645174440.390625,P13,D03,1,1,1
2598,-0.3,1645174440.40625,P13,D03,1,1,1
2599,-0.16,1645174440.421875,P13,D03,1,1,1
2600,0.2,1645174440.4375,P13,D03,1,1,1
2601,0.64,1645174440.453125,P13,D03,1,1,1
2602,0.96,1645174440.46875,P13,D03,1,1,1
2603,1.0,1645174440.484375,P13,D03,1,1,1
2604,0.74,1645174440.5,P13,D03,1,1,1
2605,0.27,1645174440.515625,P13,D03,1,1,1
2606,-0.2,1645174440.53125,P13,D03,1,1,1
2607,-0.47,1645174440.546875,P13,D03,1,1,1
2608,-0.45,1645174440.5625,P13,D03,1,1,1
2609,-0.19,1645174440.578125,P13,D03,1,1,1
2610,0.15,1645174440.59375,P13,D03,1,1,1
2611,0.4,1645174440.609375,P13,D03,1,1,1
2612,0.46,1645174440.625,P13,D03,1,1,1
2613,0.35,1645174440.640625,P13,D03,1,1,1
2614,0.16,1645174440.65625,P13,D03,1,1,1
2615,-0.0,1645174440.671875,P13,D03,1,1,1
2616,-0.11,1645174440.6875,P13,D03,1,1,1
2617,-0.19,1645174440.703125,P13,D03,1,1,1
2618,-0.3,1645174440.71875,P13,D03,1,1,1
2619,-0.47,1645174440.734375,P13,D03,1,1,1
2620,-0.64,1645174440.75,P13,D03,1,1,1
2621,-0.73,1645174440.765625,P13,D03,1,1,1
2622,-0.66,1645174440.78125,P13,D03,1,1,1
2623,-0.42,1645174440.796875,P13,D03,1,1,1
2624,-0.09,1645174440.8125,P13,D03,1,1,1
2625,0.22,1645174440.828125,P13,D03,1,1,1
2626,0.44,1645174440.84375,P13,D03,1,1,1
2627,0.56,1645174440.859375,P13,D03,1,1,1
2628,0.62,1645174440.875,P13,D03,1,1,1
2629,0.67,1645174440.890625,P13,D03,1,1,1
2630,0.7,1645174440.90625,P13,D03,1,1,1
2631,0.67,1645174440.921875,P13,D03,1,1,1
2632,0.51,1645174440.9375,P13,D03,1,1,1
2633,0.22,1645174440.953125,P13,D03,1,1,1
2634,-0.15,1645174440.96875,P13,D03,1,1,1
2635,-0.47,1645174440.984375,P13,D03,1,1,1
2636,-0.61,1645174441.0,P13,D03,1,1,1
2637,-0.49,1645174441.015625,P13,D03,1,1,1
2638,-0.12,1645174441.03125,P13,D03,1,1,1
2639,0.39,1645174441.046875,P13,D03,1,1,1
2640,0.87,1645174441.0625,P13,D03,1,1,1
2641,1.21,1645174441.078125,P13,D03,1,1,1
2642,1.32,1645174441.09375,P13,D03,1,1,1
2643,1.19,1645174441.109375,P13,D03,1,1,1
2644,0.9,1645174441.125,P13,D03,1,1,1
2645,0.51,1645174441.140625,P13,D03,1,1,1
2646,0.13,1645174441.15625,P13,D03,1,1,1
2647,-0.19,1645174441.171875,P13,D03,1,1,1
2648,-0.39,1645174441.1875,P13,D03,1,1,1
2649,-0.46,1645174441.203125,P13,D03,1,1,1
2650,-0.42,1645174441.21875,P13,D03,1,1,1
2651,-0.3,1645174441.234375,P13,D03,1,1,1
2652,-0.14,1645174441.25,P13,D03,1,1,1
2653,0.03,1645174441.265625,P13,D03,1,1,1
2654,0.18,1645174441.28125,P13,D03,1,1,1
2655,0.31,1645174441.296875,P13,D03,1,1,1
2656,0.4,1645174441.3125,P13,D03,1,1,1
2657,0.45,1645174441.328125,P13,D03,1,1,1
2658,0.45,1645174441.34375,P13,D03,1,1,1
2659,0.37,1645174441.359375,P13,D03,1,1,1
2660,0.22,1645174441.375,P13,D03,1,1,1
2661,0.01,1645174441.390625,P13,D03,1,1,1
2662,-0.19,1645174441.40625,P13,D03,1,1,1
2663,-0.36,1645174441.421875,P13,D03,1,1,1
2664,-0.45,1645174441.4375,P13,D03,1,1,1
2665,-0.46,1645174441.453125,P13,D03,1,1,1
2666,-0.39,1645174441.46875,P13,D03,1,1,1
2667,-0.32,1645174441.484375,P13,D03,1,1,1
2668,-0.28,1645174441.5,P13,D03,1,1,1
2669,-0.32,1645174441.515625,P13,D03,1,1,1
2670,-0.43,1645174441.53125,P13,D03,1,1,1
2671,-0.55,1645174441.546875,P13,D03,1,1,1
2672,-0.62,1645174441.5625,P13,D03,1,1,1
2673,-0.57,1645174441.578125,P13,D03,1,1,1
2674,-0.43,1645174441.59375,P13,D03,1,1,1
2675,-0.22,1645174441.609375,P13,D03,1,1,1
2676,0.01,1645174441.625,P13,D03,1,1,1
2677,0.24,1645174441.640625,P13,D03,1,1,1
2678,0.47,1645174441.65625,P13,D03,1,1,1
2679,0.69,1645174441.671875,P13,D03,1,1,1
2680,0.89,1645174441.6875,P13,D03,1,1,1
2681,1.04,1645174441.703125,P13,D03,1,1,1
2682,1.08,1645174441.71875,P13,D03,1,1,1
2683,0.97,1645174441.734375,P13,D03,1,1,1
2684,0.7,1645174441.75,P13,D03,1,1,1
2685,0.32,1645174441.765625,P13,D03,1,1,1
2686,-0.09,1645174441.78125,P13,D03,1,1,1
2687,-0.45,1645174441.796875,P13,D03,1,1,1
2688,-0.67,1645174441.8125,P13,D03,1,1,1
2689,-0.74,1645174441.828125,P13,D03,1,1,1
2690,-0.7,1645174441.84375,P13,D03,1,1,1
2691,-0.6,1645174441.859375,P13,D03,1,1,1
2692,-0.46,1645174441.875,P13,D03,1,1,1
2693,-0.32,1645174441.890625,P13,D03,1,1,1
2694,-0.17,1645174441.90625,P13,D03,1,1,1
2695,0.01,1645174441.921875,P13,D03,1,1,1
2696,0.23,1645174441.9375,P13,D03,1,1,1
2697,0.49,1645174441.953125,P13,D03,1,1,1
2698,0.74,1645174441.96875,P13,D03,1,1,1
2699,0.96,1645174441.984375,P13,D03,1,1,1
2700,1.11,1645174442.0,P13,D03,1,1,1
2701,1.18,1645174442.015625,P13,D03,1,1,1
2702,1.21,1645174442.03125,P13,D03,1,1,1
2703,1.2,1645174442.046875,P13,D03,1,1,1
2704,1.15,1645174442.0625,P13,D03,1,1,1
2705,1.07,1645174442.078125,P13,D03,1,1,1
2706,0.92,1645174442.09375,P13,D03,1,1,1
2707,0.73,1645174442.109375,P13,D03,1,1,1
2708,0.49,1645174442.125,P13,D03,1,1,1
2709,0.26,1645174442.140625,P13,D03,1,1,1
2710,0.04,1645174442.15625,P13,D03,1,1,1
2711,-0.16,1645174442.171875,P13,D03,1,1,1
2712,-0.34,1645174442.1875,P13,D03,1,1,1
2713,-0.54,1645174442.203125,P13,D03,1,1,1
2714,-0.74,1645174442.21875,P13,D03,1,1,1
2715,-0.91,1645174442.234375,P13,D03,1,1,1
2716,-1.02,1645174442.25,P13,D03,1,1,1
2717,-1.05,1645174442.265625,P13,D03,1,1,1
2718,-1.03,1645174442.28125,P13,D03,1,1,1
2719,-0.97,1645174442.296875,P13,D03,1,1,1
2720,-0.89,1645174442.3125,P13,D03,1,1,1
2721,-0.79,1645174442.328125,P13,D03,1,1,1
2722,-0.66,1645174442.34375,P13,D03,1,1,1
2723,-0.49,1645174442.359375,P13,D03,1,1,1
2724,-0.33,1645174442.375,P13,D03,1,1,1
2725,-0.2,1645174442.390625,P13,D03,1,1,1
2726,-0.13,1645174442.40625,P13,D03,1,1,1
2727,-0.13,1645174442.421875,P13,D03,1,1,1
2728,-0.17,1645174442.4375,P13,D03,1,1,1
2729,-0.22,1645174442.453125,P13,D03,1,1,1
2730,-0.27,1645174442.46875,P13,D03,1,1,1
2731,-0.32,1645174442.484375,P13,D03,1,1,1
2732,-0.39,1645174442.5,P13,D03,1,1,1
2733,-0.46,1645174442.515625,P13,D03,1,1,1
2734,-0.52,1645174442.53125,P13,D03,1,1,1
2735,-0.52,1645174442.546875,P13,D03,1,1,1
2736,-0.45,1645174442.5625,P13,D03,1,1,1
2737,-0.33,1645174442.578125,P13,D03,1,1,1
2738,-0.19,1645174442.59375,P13,D03,1,1,1
2739,-0.08,1645174442.609375,P13,D03,1,1,1
2740,-0.03,1645174442.625,P13,D03,1,1,1
2741,-0.03,1645174442.640625,P13,D03,1,1,1
2742,-0.08,1645174442.65625,P13,D03,1,1,1
2743,-0.14,1645174442.671875,P13,D03,1,1,1
2744,-0.19,1645174442.6875,P13,D03,1,1,1
2745,-0.18,1645174442.703125,P13,D03,1,1,1
2746,-0.09,1645174442.71875,P13,D03,1,1,1
2747,0.08,1645174442.734375,P13,D03,1,1,1
2748,0.28,1645174442.75,P13,D03,1,1,1
2749,0.43,1645174442.765625,P13,D03,1,1,1
2750,0.47,1645174442.78125,P13,D03,1,1,1
2751,0.37,1645174442.796875,P13,D03,1,1,1
2752,0.16,1645174442.8125,P13,D03,1,1,1
2753,-0.12,1645174442.828125,P13,D03,1,1,1
2754,-0.37,1645174442.84375,P13,D03,1,1,1
2755,-0.55,1645174442.859375,P13,D03,1,1,1
2756,-0.62,1645174442.875,P13,D03,1,1,1
2757,-0.56,1645174442.890625,P13,D03,1,1,1
2758,-0.39,1645174442.90625,P13,D03,1,1,1
2759,-0.18,1645174442.921875,P13,D03,1,1,1
2760,0.03,1645174442.9375,P13,D03,1,1,1
2761,0.18,1645174442.953125,P13,D03,1,1,1
2762,0.2,1645174442.96875,P13,D03,1,1,1
2763,0.09,1645174442.984375,P13,D03,1,1,1
2764,-0.11,1645174443.0,P13,D03,1,1,1
2765,-0.31,1645174443.015625,P13,D03,1,1,1
2766,-0.44,1645174443.03125,P13,D03,1,1,1
2767,-0.46,1645174443.046875,P13,D03,1,1,1
2768,-0.41,1645174443.0625,P13,D03,1,1,1
2769,-0.36,1645174443.078125,P13,D03,1,1,1
2770,-0.39,1645174443.09375,P13,D03,1,1,1
2771,-0.51,1645174443.109375,P13,D03,1,1,1
2772,-0.67,1645174443.125,P13,D03,1,1,1
2773,-0.8,1645174443.140625,P13,D03,1,1,1
2774,-0.83,1645174443.15625,P13,D03,1,1,1
2775,-0.77,1645174443.171875,P13,D03,1,1,1
2776,-0.71,1645174443.1875,P13,D03,1,1,1
2777,-0.76,1645174443.203125,P13,D03,1,1,1
2778,-1.0,1645174443.21875,P13,D03,1,1,1
2779,-1.4,1645174443.234375,P13,D03,1,1,1
2780,-1.84,1645174443.25,P13,D03,1,1,1
2781,-2.18,1645174443.265625,P13,D03,1,1,1
2782,-2.32,1645174443.28125,P13,D03,1,1,1
2783,-2.28,1645174443.296875,P13,D03,1,1,1
2784,-2.2,1645174443.3125,P13,D03,1,1,1
2785,-2.2,1645174443.328125,P13,D03,1,1,1
2786,-2.37,1645174443.34375,P13,D03,1,1,1
2787,-2.74,1645174443.359375,P13,D03,1,1,1
2788,-3.26,1645174443.375,P13,D03,1,1,1
2789,-3.85,1645174443.390625,P13,D03,1,1,1
2790,-4.48,1645174443.40625,P13,D03,1,1,1
2791,-5.09,1645174443.421875,P13,D03,1,1,1
2792,-5.63,1645174443.4375,P13,D03,1,1,1
2793,-6.06,1645174443.453125,P13,D03,1,1,1
2794,-6.35,1645174443.46875,P13,D03,1,1,1
2795,-6.48,1645174443.484375,P13,D03,1,1,1
2796,-6.54,1645174443.5,P13,D03,1,1,1
2797,-6.65,1645174443.515625,P13,D03,1,1,1
2798,-6.94,1645174443.53125,P13,D03,1,1,1
2799,-7.47,1645174443.546875,P13,D03,1,1,1
2800,-8.18,1645174443.5625,P13,D03,1,1,1
2801,-8.96,1645174443.578125,P13,D03,1,1,1
2802,-9.67,1645174443.59375,P13,D03,1,1,1
2803,-10.22,1645174443.609375,P13,D03,1,1,1
2804,-10.64,1645174443.625,P13,D03,1,1,1
2805,-11.02,1645174443.640625,P13,D03,1,1,1
2806,-11.52,1645174443.65625,P13,D03,1,1,1
2807,-12.27,1645174443.671875,P13,D03,1,1,1
2808,-13.36,1645174443.6875,P13,D03,1,1,1
2809,-14.8,1645174443.703125,P13,D03,1,1,1
2810,-16.4,1645174443.71875,P13,D03,1,1,1
2811,-17.82,1645174443.734375,P13,D03,1,1,1
2812,-18.56,1645174443.75,P13,D03,1,1,1
2813,-18.07,1645174443.765625,P13,D03,1,1,1
2814,-15.98,1645174443.78125,P13,D03,1,1,1
2815,-12.24,1645174443.796875,P13,D03,1,1,1
2816,-7.2,1645174443.8125,P13,D03,1,1,1
2817,-1.51,1645174443.828125,P13,D03,1,1,1
2818,4.08,1645174443.84375,P13,D03,1,1,1
2819,9.0,1645174443.859375,P13,D03,1,1,1
2820,12.96,1645174443.875,P13,D03,1,1,1
2821,15.93,1645174443.890625,P13,D03,1,1,1
2822,18.01,1645174443.90625,P13,D03,1,1,1
2823,19.29,1645174443.921875,P13,D03,1,1,1
2824,19.81,1645174443.9375,P13,D03,1,1,1
2825,19.6,1645174443.953125,P13,D03,1,1,1
2826,18.78,1645174443.96875,P13,D03,1,1,1
2827,17.61,1645174443.984375,P13,D03,1,1,1
2828,16.37,1645174444.0,P13,D03,1,1,1
2829,15.31,1645174444.015625,P13,D03,1,1,1
2830,14.53,1645174444.03125,P13,D03,1,1,1
2831,13.95,1645174444.046875,P13,D03,1,1,1
2832,13.4,1645174444.0625,P13,D03,1,1,1
2833,12.73,1645174444.078125,P13,D03,1,1,1
2834,11.87,1645174444.09375,P13,D03,1,1,1
2835,10.84,1645174444.109375,P13,D03,1,1,1
2836,9.78,1645174444.125,P13,D03,1,1,1
2837,8.84,1645174444.140625,P13,D03,1,1,1
2838,8.13,1645174444.15625,P13,D03,1,1,1
2839,7.69,1645174444.171875,P13,D03,1,1,1
2840,7.46,1645174444.1875,P13,D03,1,1,1
2841,7.3,1645174444.203125,P13,D03,1,1,1
2842,7.08,1645174444.21875,P13,D03,1,1,1
2843,6.73,1645174444.234375,P13,D03,1,1,1
2844,6.23,1645174444.25,P13,D03,1,1,1
2845,5.65,1645174444.265625,P13,D03,1,1,1
2846,5.05,1645174444.28125,P13,D03,1,1,1
2847,4.47,1645174444.296875,P13,D03,1,1,1
2848,3.9,1645174444.3125,P13,D03,1,1,1
2849,3.36,1645174444.328125,P13,D03,1,1,1
2850,2.88,1645174444.34375,P13,D03,1,1,1
2851,2.5,1645174444.359375,P13,D03,1,1,1
2852,2.3,1645174444.375,P13,D03,1,1,1
2853,2.28,1645174444.390625,P13,D03,1,1,1
2854,2.37,1645174444.40625,P13,D03,1,1,1
2855,2.46,1645174444.421875,P13,D03,1,1,1
2856,2.43,1645174444.4375,P13,D03,1,1,1
2857,2.23,1645174444.453125,P13,D03,1,1,1
2858,1.88,1645174444.46875,P13,D03,1,1,1
2859,1.46,1645174444.484375,P13,D03,1,1,1
2860,1.05,1645174444.5,P13,D03,1,1,1
2861,0.68,1645174444.515625,P13,D03,1,1,1
2862,0.38,1645174444.53125,P13,D03,1,1,1
2863,0.12,1645174444.546875,P13,D03,1,1,1
2864,-0.09,1645174444.5625,P13,D03,1,1,1
2865,-0.22,1645174444.578125,P13,D03,1,1,1
2866,-0.25,1645174444.59375,P13,D03,1,1,1
2867,-0.18,1645174444.609375,P13,D03,1,1,1
2868,-0.1,1645174444.625,P13,D03,1,1,1
2869,-0.12,1645174444.640625,P13,D03,1,1,1
2870,-0.37,1645174444.65625,P13,D03,1,1,1
2871,-0.9,1645174444.671875,P13,D03,1,1,1
2872,-1.66,1645174444.6875,P13,D03,1,1,1
2873,-2.48,1645174444.703125,P13,D03,1,1,1
2874,-3.18,1645174444.71875,P13,D03,1,1,1
2875,-3.65,1645174444.734375,P13,D03,1,1,1
2876,-3.85,1645174444.75,P13,D03,1,1,1
2877,-3.86,1645174444.765625,P13,D03,1,1,1
2878,-3.76,1645174444.78125,P13,D03,1,1,1
2879,-3.63,1645174444.796875,P13,D03,1,1,1
2880,-3.51,1645174444.8125,P13,D03,1,1,1
2881,-3.37,1645174444.828125,P13,D03,1,1,1
2882,-3.18,1645174444.84375,P13,D03,1,1,1
2883,-2.93,1645174444.859375,P13,D03,1,1,1
2884,-2.67,1645174444.875,P13,D03,1,1,1
2885,-2.46,1645174444.890625,P13,D03,1,1,1
2886,-2.32,1645174444.90625,P13,D03,1,1,1
2887,-2.25,1645174444.921875,P13,D03,1,1,1
2888,-2.19,1645174444.9375,P13,D03,1,1,1
2889,-2.08,1645174444.953125,P13,D03,1,1,1
2890,-1.88,1645174444.96875,P13,D03,1,1,1
2891,-1.61,1645174444.984375,P13,D03,1,1,1
2892,-1.31,1645174445.0,P13,D03,1,1,1
2893,-1.04,1645174445.015625,P13,D03,1,1,1
2894,-0.82,1645174445.03125,P13,D03,1,1,1
2895,-0.65,1645174445.046875,P13,D03,1,1,1
2896,-0.49,1645174445.0625,P13,D03,1,1,1
2897,-0.31,1645174445.078125,P13,D03,1,1,1
2898,-0.11,1645174445.09375,P13,D03,1,1,1
2899,0.05,1645174445.109375,P13,D03,1,1,1
2900,0.14,1645174445.125,P13,D03,1,1,1
2901,0.14,1645174445.140625,P13,D03,1,1,1
2902,0.1,1645174445.15625,P13,D03,1,1,1
2903,0.12,1645174445.171875,P13,D03,1,1,1
2904,0.25,1645174445.1875,P13,D03,1,1,1
2905,0.52,1645174445.203125,P13,D03,1,1,1
