,data,timestamp,participant,document,val,arou,eng
0,-0.88,1645175614.859375,P13,D07,1,0,1
1,-1.07,1645175614.875,P13,D07,1,0,1
2,-1.22,1645175614.890625,P13,D07,1,0,1
3,-1.3,1645175614.90625,P13,D07,1,0,1
4,-1.3,1645175614.921875,P13,D07,1,0,1
5,-1.22,1645175614.9375,P13,D07,1,0,1
6,-1.07,1645175614.953125,P13,D07,1,0,1
7,-0.84,1645175614.96875,P13,D07,1,0,1
8,-0.55,1645175614.984375,P13,D07,1,0,1
9,-0.26,1645175615.0,P13,D07,1,0,1
10,-0.03,1645175615.015625,P13,D07,1,0,1
11,0.1,1645175615.03125,P13,D07,1,0,1
12,0.11,1645175615.046875,P13,D07,1,0,1
13,0.02,1645175615.0625,P13,D07,1,0,1
14,-0.09,1645175615.078125,P13,D07,1,0,1
15,-0.16,1645175615.09375,P13,D07,1,0,1
16,-0.12,1645175615.109375,P13,D07,1,0,1
17,0.05,1645175615.125,P13,D07,1,0,1
18,0.32,1645175615.140625,P13,D07,1,0,1
19,0.62,1645175615.15625,P13,D07,1,0,1
20,0.83,1645175615.171875,P13,D07,1,0,1
21,0.87,1645175615.1875,P13,D07,1,0,1
22,0.7,1645175615.203125,P13,D07,1,0,1
23,0.34,1645175615.21875,P13,D07,1,0,1
24,-0.11,1645175615.234375,P13,D07,1,0,1
25,-0.52,1645175615.25,P13,D07,1,0,1
26,-0.78,1645175615.265625,P13,D07,1,0,1
27,-0.88,1645175615.28125,P13,D07,1,0,1
28,-0.85,1645175615.296875,P13,D07,1,0,1
29,-0.78,1645175615.3125,P13,D07,1,0,1
30,-0.72,1645175615.328125,P13,D07,1,0,1
31,-0.67,1645175615.34375,P13,D07,1,0,1
32,-0.59,1645175615.359375,P13,D07,1,0,1
33,-0.42,1645175615.375,P13,D07,1,0,1
34,-0.1,1645175615.390625,P13,D07,1,0,1
35,0.35,1645175615.40625,P13,D07,1,0,1
36,0.87,1645175615.421875,P13,D07,1,0,1
37,1.38,1645175615.4375,P13,D07,1,0,1
38,1.77,1645175615.453125,P13,D07,1,0,1
39,1.99,1645175615.46875,P13,D07,1,0,1
40,2.01,1645175615.484375,P13,D07,1,0,1
41,1.85,1645175615.5,P13,D07,1,0,1
42,1.55,1645175615.515625,P13,D07,1,0,1
43,1.19,1645175615.53125,P13,D07,1,0,1
44,0.83,1645175615.546875,P13,D07,1,0,1
45,0.53,1645175615.5625,P13,D07,1,0,1
46,0.32,1645175615.578125,P13,D07,1,0,1
47,0.2,1645175615.59375,P13,D07,1,0,1
48,0.16,1645175615.609375,P13,D07,1,0,1
49,0.17,1645175615.625,P13,D07,1,0,1
50,0.21,1645175615.640625,P13,D07,1,0,1
51,0.3,1645175615.65625,P13,D07,1,0,1
52,0.47,1645175615.671875,P13,D07,1,0,1
53,0.74,1645175615.6875,P13,D07,1,0,1
54,1.09,1645175615.703125,P13,D07,1,0,1
55,1.48,1645175615.71875,P13,D07,1,0,1
56,1.81,1645175615.734375,P13,D07,1,0,1
57,2.0,1645175615.75,P13,D07,1,0,1
58,2.01,1645175615.765625,P13,D07,1,0,1
59,1.84,1645175615.78125,P13,D07,1,0,1
60,1.55,1645175615.796875,P13,D07,1,0,1
61,1.2,1645175615.8125,P13,D07,1,0,1
62,0.88,1645175615.828125,P13,D07,1,0,1
63,0.66,1645175615.84375,P13,D07,1,0,1
64,0.59,1645175615.859375,P13,D07,1,0,1
65,0.65,1645175615.875,P13,D07,1,0,1
66,0.78,1645175615.890625,P13,D07,1,0,1
67,0.92,1645175615.90625,P13,D07,1,0,1
68,1.01,1645175615.921875,P13,D07,1,0,1
69,1.01,1645175615.9375,P13,D07,1,0,1
70,0.94,1645175615.953125,P13,D07,1,0,1
71,0.82,1645175615.96875,P13,D07,1,0,1
72,0.7,1645175615.984375,P13,D07,1,0,1
73,0.58,1645175616.0,P13,D07,1,0,1
74,0.48,1645175616.015625,P13,D07,1,0,1
75,0.41,1645175616.03125,P13,D07,1,0,1
76,0.38,1645175616.046875,P13,D07,1,0,1
77,0.39,1645175616.0625,P13,D07,1,0,1
78,0.44,1645175616.078125,P13,D07,1,0,1
79,0.49,1645175616.09375,P13,D07,1,0,1
80,0.51,1645175616.109375,P13,D07,1,0,1
81,0.47,1645175616.125,P13,D07,1,0,1
82,0.41,1645175616.140625,P13,D07,1,0,1
83,0.36,1645175616.15625,P13,D07,1,0,1
84,0.38,1645175616.171875,P13,D07,1,0,1
85,0.52,1645175616.1875,P13,D07,1,0,1
86,0.73,1645175616.203125,P13,D07,1,0,1
87,0.99,1645175616.21875,P13,D07,1,0,1
88,1.22,1645175616.234375,P13,D07,1,0,1
89,1.36,1645175616.25,P13,D07,1,0,1
90,1.37,1645175616.265625,P13,D07,1,0,1
91,1.24,1645175616.28125,P13,D07,1,0,1
92,0.98,1645175616.296875,P13,D07,1,0,1
93,0.65,1645175616.3125,P13,D07,1,0,1
94,0.32,1645175616.328125,P13,D07,1,0,1
95,0.08,1645175616.34375,P13,D07,1,0,1
96,-0.04,1645175616.359375,P13,D07,1,0,1
97,-0.04,1645175616.375,P13,D07,1,0,1
98,0.01,1645175616.390625,P13,D07,1,0,1
99,0.01,1645175616.40625,P13,D07,1,0,1
100,-0.08,1645175616.421875,P13,D07,1,0,1
101,-0.28,1645175616.4375,P13,D07,1,0,1
102,-0.53,1645175616.453125,P13,D07,1,0,1
103,-0.74,1645175616.46875,P13,D07,1,0,1
104,-0.85,1645175616.484375,P13,D07,1,0,1
105,-0.84,1645175616.5,P13,D07,1,0,1
106,-0.77,1645175616.515625,P13,D07,1,0,1
107,-0.71,1645175616.53125,P13,D07,1,0,1
108,-0.7,1645175616.546875,P13,D07,1,0,1
109,-0.73,1645175616.5625,P13,D07,1,0,1
110,-0.73,1645175616.578125,P13,D07,1,0,1
111,-0.66,1645175616.59375,P13,D07,1,0,1
112,-0.49,1645175616.609375,P13,D07,1,0,1
113,-0.27,1645175616.625,P13,D07,1,0,1
114,-0.05,1645175616.640625,P13,D07,1,0,1
115,0.13,1645175616.65625,P13,D07,1,0,1
116,0.24,1645175616.671875,P13,D07,1,0,1
117,0.29,1645175616.6875,P13,D07,1,0,1
118,0.32,1645175616.703125,P13,D07,1,0,1
119,0.34,1645175616.71875,P13,D07,1,0,1
120,0.34,1645175616.734375,P13,D07,1,0,1
121,0.29,1645175616.75,P13,D07,1,0,1
122,0.14,1645175616.765625,P13,D07,1,0,1
123,-0.12,1645175616.78125,P13,D07,1,0,1
124,-0.5,1645175616.796875,P13,D07,1,0,1
125,-0.98,1645175616.8125,P13,D07,1,0,1
126,-1.47,1645175616.828125,P13,D07,1,0,1
127,-1.85,1645175616.84375,P13,D07,1,0,1
128,-2.01,1645175616.859375,P13,D07,1,0,1
129,-1.92,1645175616.875,P13,D07,1,0,1
130,-1.64,1645175616.890625,P13,D07,1,0,1
131,-1.3,1645175616.90625,P13,D07,1,0,1
132,-1.05,1645175616.921875,P13,D07,1,0,1
133,-0.96,1645175616.9375,P13,D07,1,0,1
134,-0.98,1645175616.953125,P13,D07,1,0,1
135,-0.98,1645175616.96875,P13,D07,1,0,1
136,-0.85,1645175616.984375,P13,D07,1,0,1
137,-0.52,1645175617.0,P13,D07,1,0,1
138,-0.07,1645175617.015625,P13,D07,1,0,1
139,0.4,1645175617.03125,P13,D07,1,0,1
140,0.77,1645175617.046875,P13,D07,1,0,1
141,0.99,1645175617.0625,P13,D07,1,0,1
142,1.07,1645175617.078125,P13,D07,1,0,1
143,1.03,1645175617.09375,P13,D07,1,0,1
144,0.91,1645175617.109375,P13,D07,1,0,1
145,0.69,1645175617.125,P13,D07,1,0,1
146,0.4,1645175617.140625,P13,D07,1,0,1
147,0.07,1645175617.15625,P13,D07,1,0,1
148,-0.23,1645175617.171875,P13,D07,1,0,1
149,-0.44,1645175617.1875,P13,D07,1,0,1
150,-0.53,1645175617.203125,P13,D07,1,0,1
151,-0.55,1645175617.21875,P13,D07,1,0,1
152,-0.56,1645175617.234375,P13,D07,1,0,1
153,-0.62,1645175617.25,P13,D07,1,0,1
154,-0.76,1645175617.265625,P13,D07,1,0,1
155,-0.95,1645175617.28125,P13,D07,1,0,1
156,-1.12,1645175617.296875,P13,D07,1,0,1
157,-1.23,1645175617.3125,P13,D07,1,0,1
158,-1.25,1645175617.328125,P13,D07,1,0,1
159,-1.17,1645175617.34375,P13,D07,1,0,1
160,-1.03,1645175617.359375,P13,D07,1,0,1
161,-0.82,1645175617.375,P13,D07,1,0,1
162,-0.54,1645175617.390625,P13,D07,1,0,1
163,-0.17,1645175617.40625,P13,D07,1,0,1
164,0.26,1645175617.421875,P13,D07,1,0,1
165,0.69,1645175617.4375,P13,D07,1,0,1
166,1.05,1645175617.453125,P13,D07,1,0,1
167,1.23,1645175617.46875,P13,D07,1,0,1
168,1.2,1645175617.484375,P13,D07,1,0,1
169,0.99,1645175617.5,P13,D07,1,0,1
170,0.69,1645175617.515625,P13,D07,1,0,1
171,0.38,1645175617.53125,P13,D07,1,0,1
172,0.1,1645175617.546875,P13,D07,1,0,1
173,-0.15,1645175617.5625,P13,D07,1,0,1
174,-0.41,1645175617.578125,P13,D07,1,0,1
175,-0.7,1645175617.59375,P13,D07,1,0,1
176,-0.99,1645175617.609375,P13,D07,1,0,1
177,-1.23,1645175617.625,P13,D07,1,0,1
178,-1.37,1645175617.640625,P13,D07,1,0,1
179,-1.41,1645175617.65625,P13,D07,1,0,1
180,-1.37,1645175617.671875,P13,D07,1,0,1
181,-1.27,1645175617.6875,P13,D07,1,0,1
182,-1.14,1645175617.703125,P13,D07,1,0,1
183,-0.95,1645175617.71875,P13,D07,1,0,1
184,-0.68,1645175617.734375,P13,D07,1,0,1
185,-0.34,1645175617.75,P13,D07,1,0,1
186,-0.01,1645175617.765625,P13,D07,1,0,1
187,0.25,1645175617.78125,P13,D07,1,0,1
188,0.36,1645175617.796875,P13,D07,1,0,1
189,0.33,1645175617.8125,P13,D07,1,0,1
190,0.19,1645175617.828125,P13,D07,1,0,1
191,0.05,1645175617.84375,P13,D07,1,0,1
192,-0.07,1645175617.859375,P13,D07,1,0,1
193,-0.13,1645175617.875,P13,D07,1,0,1
194,-0.18,1645175617.890625,P13,D07,1,0,1
195,-0.24,1645175617.90625,P13,D07,1,0,1
196,-0.33,1645175617.921875,P13,D07,1,0,1
197,-0.43,1645175617.9375,P13,D07,1,0,1
198,-0.49,1645175617.953125,P13,D07,1,0,1
199,-0.48,1645175617.96875,P13,D07,1,0,1
200,-0.38,1645175617.984375,P13,D07,1,0,1
201,-0.24,1645175618.0,P13,D07,1,0,1
202,-0.11,1645175618.015625,P13,D07,1,0,1
203,-0.02,1645175618.03125,P13,D07,1,0,1
204,-0.01,1645175618.046875,P13,D07,1,0,1
205,-0.07,1645175618.0625,P13,D07,1,0,1
206,-0.14,1645175618.078125,P13,D07,1,0,1
207,-0.16,1645175618.09375,P13,D07,1,0,1
208,-0.07,1645175618.109375,P13,D07,1,0,1
209,0.15,1645175618.125,P13,D07,1,0,1
210,0.44,1645175618.140625,P13,D07,1,0,1
211,0.7,1645175618.15625,P13,D07,1,0,1
212,0.82,1645175618.171875,P13,D07,1,0,1
213,0.73,1645175618.1875,P13,D07,1,0,1
214,0.43,1645175618.203125,P13,D07,1,0,1
215,0.03,1645175618.21875,P13,D07,1,0,1
216,-0.34,1645175618.234375,P13,D07,1,0,1
217,-0.55,1645175618.25,P13,D07,1,0,1
218,-0.55,1645175618.265625,P13,D07,1,0,1
219,-0.37,1645175618.28125,P13,D07,1,0,1
220,-0.11,1645175618.296875,P13,D07,1,0,1
221,0.14,1645175618.3125,P13,D07,1,0,1
222,0.31,1645175618.328125,P13,D07,1,0,1
223,0.36,1645175618.34375,P13,D07,1,0,1
224,0.28,1645175618.359375,P13,D07,1,0,1
225,0.08,1645175618.375,P13,D07,1,0,1
226,-0.19,1645175618.390625,P13,D07,1,0,1
227,-0.44,1645175618.40625,P13,D07,1,0,1
228,-0.57,1645175618.421875,P13,D07,1,0,1
229,-0.52,1645175618.4375,P13,D07,1,0,1
230,-0.28,1645175618.453125,P13,D07,1,0,1
231,0.1,1645175618.46875,P13,D07,1,0,1
232,0.46,1645175618.484375,P13,D07,1,0,1
233,0.69,1645175618.5,P13,D07,1,0,1
234,0.69,1645175618.515625,P13,D07,1,0,1
235,0.5,1645175618.53125,P13,D07,1,0,1
236,0.2,1645175618.546875,P13,D07,1,0,1
237,-0.07,1645175618.5625,P13,D07,1,0,1
238,-0.24,1645175618.578125,P13,D07,1,0,1
239,-0.28,1645175618.59375,P13,D07,1,0,1
240,-0.24,1645175618.609375,P13,D07,1,0,1
241,-0.18,1645175618.625,P13,D07,1,0,1
242,-0.11,1645175618.640625,P13,D07,1,0,1
243,0.03,1645175618.65625,P13,D07,1,0,1
244,0.29,1645175618.671875,P13,D07,1,0,1
245,0.68,1645175618.6875,P13,D07,1,0,1
246,1.15,1645175618.703125,P13,D07,1,0,1
247,1.56,1645175618.71875,P13,D07,1,0,1
248,1.79,1645175618.734375,P13,D07,1,0,1
249,1.77,1645175618.75,P13,D07,1,0,1
250,1.53,1645175618.765625,P13,D07,1,0,1
251,1.2,1645175618.78125,P13,D07,1,0,1
252,0.87,1645175618.796875,P13,D07,1,0,1
253,0.63,1645175618.8125,P13,D07,1,0,1
254,0.5,1645175618.828125,P13,D07,1,0,1
255,0.47,1645175618.84375,P13,D07,1,0,1
256,0.53,1645175618.859375,P13,D07,1,0,1
257,0.66,1645175618.875,P13,D07,1,0,1
258,0.82,1645175618.890625,P13,D07,1,0,1
259,0.95,1645175618.90625,P13,D07,1,0,1
260,0.94,1645175618.921875,P13,D07,1,0,1
261,0.77,1645175618.9375,P13,D07,1,0,1
262,0.49,1645175618.953125,P13,D07,1,0,1
263,0.2,1645175618.96875,P13,D07,1,0,1
264,0.02,1645175618.984375,P13,D07,1,0,1
265,-0.01,1645175619.0,P13,D07,1,0,1
266,0.07,1645175619.015625,P13,D07,1,0,1
267,0.12,1645175619.03125,P13,D07,1,0,1
268,0.05,1645175619.046875,P13,D07,1,0,1
269,-0.18,1645175619.0625,P13,D07,1,0,1
270,-0.49,1645175619.078125,P13,D07,1,0,1
271,-0.77,1645175619.09375,P13,D07,1,0,1
272,-0.93,1645175619.109375,P13,D07,1,0,1
273,-0.94,1645175619.125,P13,D07,1,0,1
274,-0.81,1645175619.140625,P13,D07,1,0,1
275,-0.61,1645175619.15625,P13,D07,1,0,1
276,-0.37,1645175619.171875,P13,D07,1,0,1
277,-0.1,1645175619.1875,P13,D07,1,0,1
278,0.16,1645175619.203125,P13,D07,1,0,1
279,0.37,1645175619.21875,P13,D07,1,0,1
280,0.47,1645175619.234375,P13,D07,1,0,1
281,0.43,1645175619.25,P13,D07,1,0,1
282,0.31,1645175619.265625,P13,D07,1,0,1
283,0.21,1645175619.28125,P13,D07,1,0,1
284,0.25,1645175619.296875,P13,D07,1,0,1
285,0.46,1645175619.3125,P13,D07,1,0,1
286,0.77,1645175619.328125,P13,D07,1,0,1
287,0.99,1645175619.34375,P13,D07,1,0,1
288,0.93,1645175619.359375,P13,D07,1,0,1
289,0.52,1645175619.375,P13,D07,1,0,1
290,-0.12,1645175619.390625,P13,D07,1,0,1
291,-0.76,1645175619.40625,P13,D07,1,0,1
292,-1.13,1645175619.421875,P13,D07,1,0,1
293,-1.11,1645175619.4375,P13,D07,1,0,1
294,-0.78,1645175619.453125,P13,D07,1,0,1
295,-0.32,1645175619.46875,P13,D07,1,0,1
296,0.08,1645175619.484375,P13,D07,1,0,1
297,0.32,1645175619.5,P13,D07,1,0,1
298,0.45,1645175619.515625,P13,D07,1,0,1
299,0.54,1645175619.53125,P13,D07,1,0,1
300,0.65,1645175619.546875,P13,D07,1,0,1
301,0.72,1645175619.5625,P13,D07,1,0,1
302,0.68,1645175619.578125,P13,D07,1,0,1
303,0.45,1645175619.59375,P13,D07,1,0,1
304,0.09,1645175619.609375,P13,D07,1,0,1
305,-0.24,1645175619.625,P13,D07,1,0,1
306,-0.34,1645175619.640625,P13,D07,1,0,1
307,-0.1,1645175619.65625,P13,D07,1,0,1
308,0.41,1645175619.671875,P13,D07,1,0,1
309,0.98,1645175619.6875,P13,D07,1,0,1
310,1.36,1645175619.703125,P13,D07,1,0,1
311,1.35,1645175619.71875,P13,D07,1,0,1
312,0.93,1645175619.734375,P13,D07,1,0,1
313,0.16,1645175619.75,P13,D07,1,0,1
314,-0.79,1645175619.765625,P13,D07,1,0,1
315,-1.81,1645175619.78125,P13,D07,1,0,1
316,-2.85,1645175619.796875,P13,D07,1,0,1
317,-3.92,1645175619.8125,P13,D07,1,0,1
318,-5.0,1645175619.828125,P13,D07,1,0,1
319,-6.01,1645175619.84375,P13,D07,1,0,1
320,-6.76,1645175619.859375,P13,D07,1,0,1
321,-7.05,1645175619.875,P13,D07,1,0,1
322,-6.71,1645175619.890625,P13,D07,1,0,1
323,-5.77,1645175619.90625,P13,D07,1,0,1
324,-4.39,1645175619.921875,P13,D07,1,0,1
325,-2.83,1645175619.9375,P13,D07,1,0,1
326,-1.32,1645175619.953125,P13,D07,1,0,1
327,0.05,1645175619.96875,P13,D07,1,0,1
328,1.28,1645175619.984375,P13,D07,1,0,1
329,2.42,1645175620.0,P13,D07,1,0,1
330,3.49,1645175620.015625,P13,D07,1,0,1
331,4.44,1645175620.03125,P13,D07,1,0,1
332,5.16,1645175620.046875,P13,D07,1,0,1
333,5.62,1645175620.0625,P13,D07,1,0,1
334,5.83,1645175620.078125,P13,D07,1,0,1
335,5.89,1645175620.09375,P13,D07,1,0,1
336,5.9,1645175620.109375,P13,D07,1,0,1
337,5.93,1645175620.125,P13,D07,1,0,1
338,6.03,1645175620.140625,P13,D07,1,0,1
339,6.2,1645175620.15625,P13,D07,1,0,1
340,6.42,1645175620.171875,P13,D07,1,0,1
341,6.63,1645175620.1875,P13,D07,1,0,1
342,6.66,1645175620.203125,P13,D07,1,0,1
343,6.32,1645175620.21875,P13,D07,1,0,1
344,5.44,1645175620.234375,P13,D07,1,0,1
345,3.99,1645175620.25,P13,D07,1,0,1
346,2.11,1645175620.265625,P13,D07,1,0,1
347,0.09,1645175620.28125,P13,D07,1,0,1
348,-1.76,1645175620.296875,P13,D07,1,0,1
349,-3.22,1645175620.3125,P13,D07,1,0,1
350,-4.3,1645175620.328125,P13,D07,1,0,1
351,-5.14,1645175620.34375,P13,D07,1,0,1
352,-5.93,1645175620.359375,P13,D07,1,0,1
353,-6.79,1645175620.375,P13,D07,1,0,1
354,-7.68,1645175620.390625,P13,D07,1,0,1
355,-8.45,1645175620.40625,P13,D07,1,0,1
356,-8.86,1645175620.421875,P13,D07,1,0,1
357,-8.73,1645175620.4375,P13,D07,1,0,1
358,-7.96,1645175620.453125,P13,D07,1,0,1
359,-6.63,1645175620.46875,P13,D07,1,0,1
360,-4.95,1645175620.484375,P13,D07,1,0,1
361,-3.19,1645175620.5,P13,D07,1,0,1
362,-1.62,1645175620.515625,P13,D07,1,0,1
363,-0.39,1645175620.53125,P13,D07,1,0,1
364,0.5,1645175620.546875,P13,D07,1,0,1
365,1.14,1645175620.5625,P13,D07,1,0,1
366,1.68,1645175620.578125,P13,D07,1,0,1
367,2.25,1645175620.59375,P13,D07,1,0,1
368,2.85,1645175620.609375,P13,D07,1,0,1
369,3.4,1645175620.625,P13,D07,1,0,1
370,3.78,1645175620.640625,P13,D07,1,0,1
371,3.92,1645175620.65625,P13,D07,1,0,1
372,3.83,1645175620.671875,P13,D07,1,0,1
373,3.62,1645175620.6875,P13,D07,1,0,1
374,3.39,1645175620.703125,P13,D07,1,0,1
375,3.24,1645175620.71875,P13,D07,1,0,1
376,3.16,1645175620.734375,P13,D07,1,0,1
377,3.09,1645175620.75,P13,D07,1,0,1
378,2.97,1645175620.765625,P13,D07,1,0,1
379,2.77,1645175620.78125,P13,D07,1,0,1
380,2.54,1645175620.796875,P13,D07,1,0,1
381,2.36,1645175620.8125,P13,D07,1,0,1
382,2.32,1645175620.828125,P13,D07,1,0,1
383,2.41,1645175620.84375,P13,D07,1,0,1
384,2.57,1645175620.859375,P13,D07,1,0,1
385,2.67,1645175620.875,P13,D07,1,0,1
386,2.59,1645175620.890625,P13,D07,1,0,1
387,2.32,1645175620.90625,P13,D07,1,0,1
388,1.95,1645175620.921875,P13,D07,1,0,1
389,1.59,1645175620.9375,P13,D07,1,0,1
390,1.37,1645175620.953125,P13,D07,1,0,1
391,1.36,1645175620.96875,P13,D07,1,0,1
392,1.51,1645175620.984375,P13,D07,1,0,1
393,1.73,1645175621.0,P13,D07,1,0,1
394,1.94,1645175621.015625,P13,D07,1,0,1
395,2.06,1645175621.03125,P13,D07,1,0,1
396,2.06,1645175621.046875,P13,D07,1,0,1
397,1.92,1645175621.0625,P13,D07,1,0,1
398,1.63,1645175621.078125,P13,D07,1,0,1
399,1.17,1645175621.09375,P13,D07,1,0,1
400,0.56,1645175621.109375,P13,D07,1,0,1
401,-0.13,1645175621.125,P13,D07,1,0,1
402,-0.81,1645175621.140625,P13,D07,1,0,1
403,-1.38,1645175621.15625,P13,D07,1,0,1
404,-1.79,1645175621.171875,P13,D07,1,0,1
405,-2.01,1645175621.1875,P13,D07,1,0,1
406,-2.11,1645175621.203125,P13,D07,1,0,1
407,-2.14,1645175621.21875,P13,D07,1,0,1
408,-2.16,1645175621.234375,P13,D07,1,0,1
409,-2.19,1645175621.25,P13,D07,1,0,1
410,-2.24,1645175621.265625,P13,D07,1,0,1
411,-2.28,1645175621.28125,P13,D07,1,0,1
412,-2.29,1645175621.296875,P13,D07,1,0,1
413,-2.24,1645175621.3125,P13,D07,1,0,1
414,-2.12,1645175621.328125,P13,D07,1,0,1
415,-1.91,1645175621.34375,P13,D07,1,0,1
416,-1.58,1645175621.359375,P13,D07,1,0,1
417,-1.12,1645175621.375,P13,D07,1,0,1
418,-0.54,1645175621.390625,P13,D07,1,0,1
419,0.14,1645175621.40625,P13,D07,1,0,1
420,0.87,1645175621.421875,P13,D07,1,0,1
421,1.55,1645175621.4375,P13,D07,1,0,1
422,2.06,1645175621.453125,P13,D07,1,0,1
423,2.32,1645175621.46875,P13,D07,1,0,1
424,2.27,1645175621.484375,P13,D07,1,0,1
425,1.93,1645175621.5,P13,D07,1,0,1
426,1.36,1645175621.515625,P13,D07,1,0,1
427,0.71,1645175621.53125,P13,D07,1,0,1
428,0.11,1645175621.546875,P13,D07,1,0,1
429,-0.31,1645175621.5625,P13,D07,1,0,1
430,-0.46,1645175621.578125,P13,D07,1,0,1
431,-0.37,1645175621.59375,P13,D07,1,0,1
432,-0.14,1645175621.609375,P13,D07,1,0,1
433,0.11,1645175621.625,P13,D07,1,0,1
434,0.24,1645175621.640625,P13,D07,1,0,1
435,0.19,1645175621.65625,P13,D07,1,0,1
436,-0.03,1645175621.671875,P13,D07,1,0,1
437,-0.36,1645175621.6875,P13,D07,1,0,1
438,-0.71,1645175621.703125,P13,D07,1,0,1
439,-1.01,1645175621.71875,P13,D07,1,0,1
440,-1.24,1645175621.734375,P13,D07,1,0,1
441,-1.4,1645175621.75,P13,D07,1,0,1
442,-1.52,1645175621.765625,P13,D07,1,0,1
443,-1.62,1645175621.78125,P13,D07,1,0,1
444,-1.71,1645175621.796875,P13,D07,1,0,1
445,-1.79,1645175621.8125,P13,D07,1,0,1
446,-1.85,1645175621.828125,P13,D07,1,0,1
447,-1.89,1645175621.84375,P13,D07,1,0,1
448,-1.89,1645175621.859375,P13,D07,1,0,1
449,-1.81,1645175621.875,P13,D07,1,0,1
450,-1.64,1645175621.890625,P13,D07,1,0,1
451,-1.37,1645175621.90625,P13,D07,1,0,1
452,-1.01,1645175621.921875,P13,D07,1,0,1
453,-0.58,1645175621.9375,P13,D07,1,0,1
454,-0.11,1645175621.953125,P13,D07,1,0,1
455,0.37,1645175621.96875,P13,D07,1,0,1
456,0.84,1645175621.984375,P13,D07,1,0,1
457,1.27,1645175622.0,P13,D07,1,0,1
458,1.63,1645175622.015625,P13,D07,1,0,1
459,1.9,1645175622.03125,P13,D07,1,0,1
460,2.04,1645175622.046875,P13,D07,1,0,1
461,2.02,1645175622.0625,P13,D07,1,0,1
462,1.85,1645175622.078125,P13,D07,1,0,1
463,1.58,1645175622.09375,P13,D07,1,0,1
464,1.32,1645175622.109375,P13,D07,1,0,1
465,1.16,1645175622.125,P13,D07,1,0,1
466,1.16,1645175622.140625,P13,D07,1,0,1
467,1.29,1645175622.15625,P13,D07,1,0,1
468,1.45,1645175622.171875,P13,D07,1,0,1
469,1.55,1645175622.1875,P13,D07,1,0,1
470,1.49,1645175622.203125,P13,D07,1,0,1
471,1.31,1645175622.21875,P13,D07,1,0,1
472,1.07,1645175622.234375,P13,D07,1,0,1
473,0.87,1645175622.25,P13,D07,1,0,1
474,0.76,1645175622.265625,P13,D07,1,0,1
475,0.73,1645175622.28125,P13,D07,1,0,1
476,0.72,1645175622.296875,P13,D07,1,0,1
477,0.66,1645175622.3125,P13,D07,1,0,1
478,0.57,1645175622.328125,P13,D07,1,0,1
479,0.48,1645175622.34375,P13,D07,1,0,1
480,0.44,1645175622.359375,P13,D07,1,0,1
481,0.42,1645175622.375,P13,D07,1,0,1
482,0.35,1645175622.390625,P13,D07,1,0,1
483,0.13,1645175622.40625,P13,D07,1,0,1
484,-0.33,1645175622.421875,P13,D07,1,0,1
485,-1.0,1645175622.4375,P13,D07,1,0,1
486,-1.82,1645175622.453125,P13,D07,1,0,1
487,-2.65,1645175622.46875,P13,D07,1,0,1
488,-3.41,1645175622.484375,P13,D07,1,0,1
489,-4.03,1645175622.5,P13,D07,1,0,1
490,-4.48,1645175622.515625,P13,D07,1,0,1
491,-4.72,1645175622.53125,P13,D07,1,0,1
492,-4.74,1645175622.546875,P13,D07,1,0,1
493,-4.56,1645175622.5625,P13,D07,1,0,1
494,-4.22,1645175622.578125,P13,D07,1,0,1
495,-3.81,1645175622.59375,P13,D07,1,0,1
496,-3.46,1645175622.609375,P13,D07,1,0,1
497,-3.23,1645175622.625,P13,D07,1,0,1
498,-3.16,1645175622.640625,P13,D07,1,0,1
499,-3.18,1645175622.65625,P13,D07,1,0,1
500,-3.21,1645175622.671875,P13,D07,1,0,1
501,-3.11,1645175622.6875,P13,D07,1,0,1
502,-2.82,1645175622.703125,P13,D07,1,0,1
503,-2.29,1645175622.71875,P13,D07,1,0,1
504,-1.54,1645175622.734375,P13,D07,1,0,1
505,-0.68,1645175622.75,P13,D07,1,0,1
506,0.15,1645175622.765625,P13,D07,1,0,1
507,0.8,1645175622.78125,P13,D07,1,0,1
508,1.16,1645175622.796875,P13,D07,1,0,1
509,1.21,1645175622.8125,P13,D07,1,0,1
510,1.01,1645175622.828125,P13,D07,1,0,1
511,0.67,1645175622.84375,P13,D07,1,0,1
512,0.29,1645175622.859375,P13,D07,1,0,1
513,-0.09,1645175622.875,P13,D07,1,0,1
514,-0.47,1645175622.890625,P13,D07,1,0,1
515,-0.85,1645175622.90625,P13,D07,1,0,1
516,-1.18,1645175622.921875,P13,D07,1,0,1
517,-1.41,1645175622.9375,P13,D07,1,0,1
518,-1.45,1645175622.953125,P13,D07,1,0,1
519,-1.31,1645175622.96875,P13,D07,1,0,1
520,-1.05,1645175622.984375,P13,D07,1,0,1
521,-0.81,1645175623.0,P13,D07,1,0,1
522,-0.68,1645175623.015625,P13,D07,1,0,1
523,-0.7,1645175623.03125,P13,D07,1,0,1
524,-0.8,1645175623.046875,P13,D07,1,0,1
525,-0.9,1645175623.0625,P13,D07,1,0,1
526,-0.92,1645175623.078125,P13,D07,1,0,1
527,-0.82,1645175623.09375,P13,D07,1,0,1
528,-0.66,1645175623.109375,P13,D07,1,0,1
529,-0.48,1645175623.125,P13,D07,1,0,1
530,-0.34,1645175623.140625,P13,D07,1,0,1
531,-0.22,1645175623.15625,P13,D07,1,0,1
532,-0.12,1645175623.171875,P13,D07,1,0,1
533,-0.01,1645175623.1875,P13,D07,1,0,1
534,0.14,1645175623.203125,P13,D07,1,0,1
535,0.36,1645175623.21875,P13,D07,1,0,1
536,0.69,1645175623.234375,P13,D07,1,0,1
537,1.16,1645175623.25,P13,D07,1,0,1
538,1.76,1645175623.265625,P13,D07,1,0,1
539,2.41,1645175623.28125,P13,D07,1,0,1
540,2.95,1645175623.296875,P13,D07,1,0,1
541,3.25,1645175623.3125,P13,D07,1,0,1
542,3.24,1645175623.328125,P13,D07,1,0,1
543,2.97,1645175623.34375,P13,D07,1,0,1
544,2.59,1645175623.359375,P13,D07,1,0,1
545,2.3,1645175623.375,P13,D07,1,0,1
546,2.22,1645175623.390625,P13,D07,1,0,1
547,2.39,1645175623.40625,P13,D07,1,0,1
548,2.7,1645175623.421875,P13,D07,1,0,1
549,3.0,1645175623.4375,P13,D07,1,0,1
550,3.14,1645175623.453125,P13,D07,1,0,1
551,3.04,1645175623.46875,P13,D07,1,0,1
552,2.72,1645175623.484375,P13,D07,1,0,1
553,2.27,1645175623.5,P13,D07,1,0,1
554,1.83,1645175623.515625,P13,D07,1,0,1
555,1.48,1645175623.53125,P13,D07,1,0,1
556,1.24,1645175623.546875,P13,D07,1,0,1
557,1.08,1645175623.5625,P13,D07,1,0,1
558,0.96,1645175623.578125,P13,D07,1,0,1
559,0.82,1645175623.59375,P13,D07,1,0,1
560,0.62,1645175623.609375,P13,D07,1,0,1
561,0.34,1645175623.625,P13,D07,1,0,1
562,0.01,1645175623.640625,P13,D07,1,0,1
563,-0.3,1645175623.65625,P13,D07,1,0,1
564,-0.53,1645175623.671875,P13,D07,1,0,1
565,-0.61,1645175623.6875,P13,D07,1,0,1
566,-0.56,1645175623.703125,P13,D07,1,0,1
567,-0.46,1645175623.71875,P13,D07,1,0,1
568,-0.44,1645175623.734375,P13,D07,1,0,1
569,-0.59,1645175623.75,P13,D07,1,0,1
570,-0.88,1645175623.765625,P13,D07,1,0,1
571,-1.21,1645175623.78125,P13,D07,1,0,1
572,-1.41,1645175623.796875,P13,D07,1,0,1
573,-1.42,1645175623.8125,P13,D07,1,0,1
574,-1.29,1645175623.828125,P13,D07,1,0,1
575,-1.17,1645175623.84375,P13,D07,1,0,1
576,-1.21,1645175623.859375,P13,D07,1,0,1
577,-1.48,1645175623.875,P13,D07,1,0,1
578,-1.92,1645175623.890625,P13,D07,1,0,1
579,-2.35,1645175623.90625,P13,D07,1,0,1
580,-2.59,1645175623.921875,P13,D07,1,0,1
581,-2.52,1645175623.9375,P13,D07,1,0,1
582,-2.14,1645175623.953125,P13,D07,1,0,1
583,-1.54,1645175623.96875,P13,D07,1,0,1
584,-0.91,1645175623.984375,P13,D07,1,0,1
585,-0.4,1645175624.0,P13,D07,1,0,1
586,-0.1,1645175624.015625,P13,D07,1,0,1
587,0.0,1645175624.03125,P13,D07,1,0,1
588,0.05,1645175624.046875,P13,D07,1,0,1
589,0.19,1645175624.0625,P13,D07,1,0,1
590,0.54,1645175624.078125,P13,D07,1,0,1
591,1.03,1645175624.09375,P13,D07,1,0,1
592,1.49,1645175624.109375,P13,D07,1,0,1
593,1.71,1645175624.125,P13,D07,1,0,1
594,1.57,1645175624.140625,P13,D07,1,0,1
595,1.1,1645175624.15625,P13,D07,1,0,1
596,0.5,1645175624.171875,P13,D07,1,0,1
597,-0.01,1645175624.1875,P13,D07,1,0,1
598,-0.29,1645175624.203125,P13,D07,1,0,1
599,-0.33,1645175624.21875,P13,D07,1,0,1
600,-0.21,1645175624.234375,P13,D07,1,0,1
601,-0.05,1645175624.25,P13,D07,1,0,1
602,0.04,1645175624.265625,P13,D07,1,0,1
603,0.0,1645175624.28125,P13,D07,1,0,1
604,-0.17,1645175624.296875,P13,D07,1,0,1
605,-0.47,1645175624.3125,P13,D07,1,0,1
606,-0.82,1645175624.328125,P13,D07,1,0,1
607,-1.15,1645175624.34375,P13,D07,1,0,1
608,-1.37,1645175624.359375,P13,D07,1,0,1
609,-1.41,1645175624.375,P13,D07,1,0,1
610,-1.3,1645175624.390625,P13,D07,1,0,1
611,-1.1,1645175624.40625,P13,D07,1,0,1
612,-0.89,1645175624.421875,P13,D07,1,0,1
613,-0.7,1645175624.4375,P13,D07,1,0,1
614,-0.52,1645175624.453125,P13,D07,1,0,1
615,-0.32,1645175624.46875,P13,D07,1,0,1
616,-0.11,1645175624.484375,P13,D07,1,0,1
617,0.09,1645175624.5,P13,D07,1,0,1
618,0.19,1645175624.515625,P13,D07,1,0,1
619,0.15,1645175624.53125,P13,D07,1,0,1
620,-0.03,1645175624.546875,P13,D07,1,0,1
621,-0.31,1645175624.5625,P13,D07,1,0,1
622,-0.59,1645175624.578125,P13,D07,1,0,1
623,-0.83,1645175624.59375,P13,D07,1,0,1
624,-0.96,1645175624.609375,P13,D07,1,0,1
625,-0.96,1645175624.625,P13,D07,1,0,1
626,-0.83,1645175624.640625,P13,D07,1,0,1
627,-0.6,1645175624.65625,P13,D07,1,0,1
628,-0.34,1645175624.671875,P13,D07,1,0,1
629,-0.1,1645175624.6875,P13,D07,1,0,1
630,0.02,1645175624.703125,P13,D07,1,0,1
631,0.01,1645175624.71875,P13,D07,1,0,1
632,-0.13,1645175624.734375,P13,D07,1,0,1
633,-0.39,1645175624.75,P13,D07,1,0,1
634,-0.73,1645175624.765625,P13,D07,1,0,1
635,-1.13,1645175624.78125,P13,D07,1,0,1
636,-1.57,1645175624.796875,P13,D07,1,0,1
637,-1.96,1645175624.8125,P13,D07,1,0,1
638,-2.2,1645175624.828125,P13,D07,1,0,1
639,-2.18,1645175624.84375,P13,D07,1,0,1
640,-1.85,1645175624.859375,P13,D07,1,0,1
641,-1.25,1645175624.875,P13,D07,1,0,1
642,-0.51,1645175624.890625,P13,D07,1,0,1
643,0.2,1645175624.90625,P13,D07,1,0,1
644,0.75,1645175624.921875,P13,D07,1,0,1
645,1.06,1645175624.9375,P13,D07,1,0,1
646,1.17,1645175624.953125,P13,D07,1,0,1
647,1.15,1645175624.96875,P13,D07,1,0,1
648,1.07,1645175624.984375,P13,D07,1,0,1
649,1.01,1645175625.0,P13,D07,1,0,1
650,1.01,1645175625.015625,P13,D07,1,0,1
651,1.06,1645175625.03125,P13,D07,1,0,1
652,1.15,1645175625.046875,P13,D07,1,0,1
653,1.24,1645175625.0625,P13,D07,1,0,1
654,1.29,1645175625.078125,P13,D07,1,0,1
655,1.28,1645175625.09375,P13,D07,1,0,1
656,1.18,1645175625.109375,P13,D07,1,0,1
657,1.01,1645175625.125,P13,D07,1,0,1
658,0.82,1645175625.140625,P13,D07,1,0,1
659,0.63,1645175625.15625,P13,D07,1,0,1
660,0.45,1645175625.171875,P13,D07,1,0,1
661,0.25,1645175625.1875,P13,D07,1,0,1
662,-0.0,1645175625.203125,P13,D07,1,0,1
663,-0.35,1645175625.21875,P13,D07,1,0,1
664,-0.79,1645175625.234375,P13,D07,1,0,1
665,-1.26,1645175625.25,P13,D07,1,0,1
666,-1.66,1645175625.265625,P13,D07,1,0,1
667,-1.94,1645175625.28125,P13,D07,1,0,1
668,-2.07,1645175625.296875,P13,D07,1,0,1
669,-2.1,1645175625.3125,P13,D07,1,0,1
670,-2.12,1645175625.328125,P13,D07,1,0,1
671,-2.22,1645175625.34375,P13,D07,1,0,1
672,-2.43,1645175625.359375,P13,D07,1,0,1
673,-2.76,1645175625.375,P13,D07,1,0,1
674,-3.15,1645175625.390625,P13,D07,1,0,1
675,-3.55,1645175625.40625,P13,D07,1,0,1
676,-3.88,1645175625.421875,P13,D07,1,0,1
677,-4.14,1645175625.4375,P13,D07,1,0,1
678,-4.34,1645175625.453125,P13,D07,1,0,1
679,-4.52,1645175625.46875,P13,D07,1,0,1
680,-4.73,1645175625.484375,P13,D07,1,0,1
681,-4.93,1645175625.5,P13,D07,1,0,1
682,-5.05,1645175625.515625,P13,D07,1,0,1
683,-5.0,1645175625.53125,P13,D07,1,0,1
684,-4.74,1645175625.546875,P13,D07,1,0,1
685,-4.34,1645175625.5625,P13,D07,1,0,1
686,-3.92,1645175625.578125,P13,D07,1,0,1
687,-3.62,1645175625.59375,P13,D07,1,0,1
688,-3.53,1645175625.609375,P13,D07,1,0,1
689,-3.63,1645175625.625,P13,D07,1,0,1
690,-3.81,1645175625.640625,P13,D07,1,0,1
691,-3.97,1645175625.65625,P13,D07,1,0,1
692,-4.07,1645175625.671875,P13,D07,1,0,1
693,-4.1,1645175625.6875,P13,D07,1,0,1
694,-4.11,1645175625.703125,P13,D07,1,0,1
695,-4.14,1645175625.71875,P13,D07,1,0,1
696,-4.2,1645175625.734375,P13,D07,1,0,1
697,-4.34,1645175625.75,P13,D07,1,0,1
698,-4.61,1645175625.765625,P13,D07,1,0,1
699,-5.0,1645175625.78125,P13,D07,1,0,1
700,-5.4,1645175625.796875,P13,D07,1,0,1
701,-5.51,1645175625.8125,P13,D07,1,0,1
702,-4.96,1645175625.828125,P13,D07,1,0,1
703,-3.43,1645175625.84375,P13,D07,1,0,1
704,-0.82,1645175625.859375,P13,D07,1,0,1
705,2.67,1645175625.875,P13,D07,1,0,1
706,6.52,1645175625.890625,P13,D07,1,0,1
707,10.11,1645175625.90625,P13,D07,1,0,1
708,12.89,1645175625.921875,P13,D07,1,0,1
709,14.53,1645175625.9375,P13,D07,1,0,1
710,14.96,1645175625.953125,P13,D07,1,0,1
711,14.37,1645175625.96875,P13,D07,1,0,1
712,13.03,1645175625.984375,P13,D07,1,0,1
713,11.24,1645175626.0,P13,D07,1,0,1
714,9.27,1645175626.015625,P13,D07,1,0,1
715,7.33,1645175626.03125,P13,D07,1,0,1
716,5.61,1645175626.046875,P13,D07,1,0,1
717,4.25,1645175626.0625,P13,D07,1,0,1
718,3.3,1645175626.078125,P13,D07,1,0,1
719,2.74,1645175626.09375,P13,D07,1,0,1
720,2.47,1645175626.109375,P13,D07,1,0,1
721,2.35,1645175626.125,P13,D07,1,0,1
722,2.29,1645175626.140625,P13,D07,1,0,1
723,2.25,1645175626.15625,P13,D07,1,0,1
724,2.2,1645175626.171875,P13,D07,1,0,1
725,2.16,1645175626.1875,P13,D07,1,0,1
726,2.15,1645175626.203125,P13,D07,1,0,1
727,2.15,1645175626.21875,P13,D07,1,0,1
728,2.15,1645175626.234375,P13,D07,1,0,1
729,2.12,1645175626.25,P13,D07,1,0,1
730,2.03,1645175626.265625,P13,D07,1,0,1
731,1.83,1645175626.28125,P13,D07,1,0,1
732,1.47,1645175626.296875,P13,D07,1,0,1
733,0.91,1645175626.3125,P13,D07,1,0,1
734,0.2,1645175626.328125,P13,D07,1,0,1
735,-0.59,1645175626.34375,P13,D07,1,0,1
736,-1.32,1645175626.359375,P13,D07,1,0,1
737,-1.91,1645175626.375,P13,D07,1,0,1
738,-2.35,1645175626.390625,P13,D07,1,0,1
739,-2.68,1645175626.40625,P13,D07,1,0,1
740,-2.98,1645175626.421875,P13,D07,1,0,1
741,-3.3,1645175626.4375,P13,D07,1,0,1
742,-3.68,1645175626.453125,P13,D07,1,0,1
743,-4.11,1645175626.46875,P13,D07,1,0,1
744,-4.53,1645175626.484375,P13,D07,1,0,1
745,-4.83,1645175626.5,P13,D07,1,0,1
746,-4.86,1645175626.515625,P13,D07,1,0,1
747,-4.43,1645175626.53125,P13,D07,1,0,1
748,-3.43,1645175626.546875,P13,D07,1,0,1
749,-1.91,1645175626.5625,P13,D07,1,0,1
750,-0.08,1645175626.578125,P13,D07,1,0,1
751,1.74,1645175626.59375,P13,D07,1,0,1
752,3.21,1645175626.609375,P13,D07,1,0,1
753,4.13,1645175626.625,P13,D07,1,0,1
754,4.46,1645175626.640625,P13,D07,1,0,1
755,4.32,1645175626.65625,P13,D07,1,0,1
756,3.91,1645175626.671875,P13,D07,1,0,1
757,3.43,1645175626.6875,P13,D07,1,0,1
758,3.03,1645175626.703125,P13,D07,1,0,1
759,2.85,1645175626.71875,P13,D07,1,0,1
760,2.94,1645175626.734375,P13,D07,1,0,1
761,3.36,1645175626.75,P13,D07,1,0,1
762,4.06,1645175626.765625,P13,D07,1,0,1
763,4.92,1645175626.78125,P13,D07,1,0,1
764,5.76,1645175626.796875,P13,D07,1,0,1
765,6.37,1645175626.8125,P13,D07,1,0,1
766,6.62,1645175626.828125,P13,D07,1,0,1
767,6.47,1645175626.84375,P13,D07,1,0,1
768,5.98,1645175626.859375,P13,D07,1,0,1
769,5.29,1645175626.875,P13,D07,1,0,1
770,4.52,1645175626.890625,P13,D07,1,0,1
771,3.8,1645175626.90625,P13,D07,1,0,1
772,3.25,1645175626.921875,P13,D07,1,0,1
773,2.94,1645175626.9375,P13,D07,1,0,1
774,2.9,1645175626.953125,P13,D07,1,0,1
775,3.13,1645175626.96875,P13,D07,1,0,1
776,3.56,1645175626.984375,P13,D07,1,0,1
777,4.03,1645175627.0,P13,D07,1,0,1
778,4.36,1645175627.015625,P13,D07,1,0,1
779,4.39,1645175627.03125,P13,D07,1,0,1
780,4.05,1645175627.046875,P13,D07,1,0,1
781,3.36,1645175627.0625,P13,D07,1,0,1
782,2.44,1645175627.078125,P13,D07,1,0,1
783,1.47,1645175627.09375,P13,D07,1,0,1
784,0.58,1645175627.109375,P13,D07,1,0,1
785,-0.13,1645175627.125,P13,D07,1,0,1
786,-0.65,1645175627.140625,P13,D07,1,0,1
787,-0.99,1645175627.15625,P13,D07,1,0,1
788,-1.22,1645175627.171875,P13,D07,1,0,1
789,-1.41,1645175627.1875,P13,D07,1,0,1
790,-1.58,1645175627.203125,P13,D07,1,0,1
791,-1.73,1645175627.21875,P13,D07,1,0,1
792,-1.83,1645175627.234375,P13,D07,1,0,1
793,-1.82,1645175627.25,P13,D07,1,0,1
794,-1.68,1645175627.265625,P13,D07,1,0,1
795,-1.47,1645175627.28125,P13,D07,1,0,1
796,-1.29,1645175627.296875,P13,D07,1,0,1
797,-1.26,1645175627.3125,P13,D07,1,0,1
798,-1.46,1645175627.328125,P13,D07,1,0,1
799,-1.87,1645175627.34375,P13,D07,1,0,1
800,-2.38,1645175627.359375,P13,D07,1,0,1
801,-2.81,1645175627.375,P13,D07,1,0,1
802,-3.05,1645175627.390625,P13,D07,1,0,1
803,-3.03,1645175627.40625,P13,D07,1,0,1
804,-2.83,1645175627.421875,P13,D07,1,0,1
805,-2.55,1645175627.4375,P13,D07,1,0,1
806,-2.3,1645175627.453125,P13,D07,1,0,1
807,-2.17,1645175627.46875,P13,D07,1,0,1
808,-2.16,1645175627.484375,P13,D07,1,0,1
809,-2.24,1645175627.5,P13,D07,1,0,1
810,-2.35,1645175627.515625,P13,D07,1,0,1
811,-2.41,1645175627.53125,P13,D07,1,0,1
812,-2.39,1645175627.546875,P13,D07,1,0,1
813,-2.27,1645175627.5625,P13,D07,1,0,1
814,-2.07,1645175627.578125,P13,D07,1,0,1
815,-1.83,1645175627.59375,P13,D07,1,0,1
816,-1.58,1645175627.609375,P13,D07,1,0,1
817,-1.35,1645175627.625,P13,D07,1,0,1
818,-1.17,1645175627.640625,P13,D07,1,0,1
819,-1.05,1645175627.65625,P13,D07,1,0,1
820,-1.05,1645175627.671875,P13,D07,1,0,1
821,-1.18,1645175627.6875,P13,D07,1,0,1
822,-1.42,1645175627.703125,P13,D07,1,0,1
823,-1.72,1645175627.71875,P13,D07,1,0,1
824,-1.96,1645175627.734375,P13,D07,1,0,1
825,-2.02,1645175627.75,P13,D07,1,0,1
826,-1.87,1645175627.765625,P13,D07,1,0,1
827,-1.55,1645175627.78125,P13,D07,1,0,1
828,-1.17,1645175627.796875,P13,D07,1,0,1
829,-0.89,1645175627.8125,P13,D07,1,0,1
830,-0.78,1645175627.828125,P13,D07,1,0,1
831,-0.8,1645175627.84375,P13,D07,1,0,1
832,-0.86,1645175627.859375,P13,D07,1,0,1
833,-0.83,1645175627.875,P13,D07,1,0,1
834,-0.66,1645175627.890625,P13,D07,1,0,1
835,-0.4,1645175627.90625,P13,D07,1,0,1
836,-0.14,1645175627.921875,P13,D07,1,0,1
837,-0.02,1645175627.9375,P13,D07,1,0,1
838,-0.09,1645175627.953125,P13,D07,1,0,1
839,-0.31,1645175627.96875,P13,D07,1,0,1
840,-0.6,1645175627.984375,P13,D07,1,0,1
841,-0.85,1645175628.0,P13,D07,1,0,1
842,-1.01,1645175628.015625,P13,D07,1,0,1
843,-1.05,1645175628.03125,P13,D07,1,0,1
844,-1.02,1645175628.046875,P13,D07,1,0,1
845,-0.91,1645175628.0625,P13,D07,1,0,1
846,-0.74,1645175628.078125,P13,D07,1,0,1
847,-0.46,1645175628.09375,P13,D07,1,0,1
848,-0.07,1645175628.109375,P13,D07,1,0,1
849,0.4,1645175628.125,P13,D07,1,0,1
850,0.86,1645175628.140625,P13,D07,1,0,1
851,1.22,1645175628.15625,P13,D07,1,0,1
852,1.38,1645175628.171875,P13,D07,1,0,1
853,1.32,1645175628.1875,P13,D07,1,0,1
854,1.05,1645175628.203125,P13,D07,1,0,1
855,0.64,1645175628.21875,P13,D07,1,0,1
856,0.19,1645175628.234375,P13,D07,1,0,1
857,-0.23,1645175628.25,P13,D07,1,0,1
858,-0.54,1645175628.265625,P13,D07,1,0,1
859,-0.7,1645175628.28125,P13,D07,1,0,1
860,-0.65,1645175628.296875,P13,D07,1,0,1
861,-0.39,1645175628.3125,P13,D07,1,0,1
862,0.05,1645175628.328125,P13,D07,1,0,1
863,0.58,1645175628.34375,P13,D07,1,0,1
864,1.06,1645175628.359375,P13,D07,1,0,1
865,1.33,1645175628.375,P13,D07,1,0,1
866,1.35,1645175628.390625,P13,D07,1,0,1
867,1.14,1645175628.40625,P13,D07,1,0,1
868,0.85,1645175628.421875,P13,D07,1,0,1
869,0.61,1645175628.4375,P13,D07,1,0,1
870,0.51,1645175628.453125,P13,D07,1,0,1
871,0.54,1645175628.46875,P13,D07,1,0,1
872,0.62,1645175628.484375,P13,D07,1,0,1
873,0.64,1645175628.5,P13,D07,1,0,1
874,0.59,1645175628.515625,P13,D07,1,0,1
875,0.49,1645175628.53125,P13,D07,1,0,1
876,0.43,1645175628.546875,P13,D07,1,0,1
877,0.44,1645175628.5625,P13,D07,1,0,1
878,0.5,1645175628.578125,P13,D07,1,0,1
879,0.52,1645175628.59375,P13,D07,1,0,1
880,0.43,1645175628.609375,P13,D07,1,0,1
881,0.2,1645175628.625,P13,D07,1,0,1
882,-0.1,1645175628.640625,P13,D07,1,0,1
883,-0.38,1645175628.65625,P13,D07,1,0,1
884,-0.52,1645175628.671875,P13,D07,1,0,1
885,-0.5,1645175628.6875,P13,D07,1,0,1
886,-0.35,1645175628.703125,P13,D07,1,0,1
887,-0.16,1645175628.71875,P13,D07,1,0,1
888,-0.04,1645175628.734375,P13,D07,1,0,1
889,-0.03,1645175628.75,P13,D07,1,0,1
890,-0.12,1645175628.765625,P13,D07,1,0,1
891,-0.26,1645175628.78125,P13,D07,1,0,1
892,-0.38,1645175628.796875,P13,D07,1,0,1
893,-0.47,1645175628.8125,P13,D07,1,0,1
894,-0.5,1645175628.828125,P13,D07,1,0,1
895,-0.5,1645175628.84375,P13,D07,1,0,1
896,-0.47,1645175628.859375,P13,D07,1,0,1
897,-0.44,1645175628.875,P13,D07,1,0,1
898,-0.43,1645175628.890625,P13,D07,1,0,1
899,-0.49,1645175628.90625,P13,D07,1,0,1
900,-0.63,1645175628.921875,P13,D07,1,0,1
901,-0.8,1645175628.9375,P13,D07,1,0,1
902,-0.9,1645175628.953125,P13,D07,1,0,1
903,-0.82,1645175628.96875,P13,D07,1,0,1
904,-0.5,1645175628.984375,P13,D07,1,0,1
905,-0.01,1645175629.0,P13,D07,1,0,1
906,0.48,1645175629.015625,P13,D07,1,0,1
907,0.77,1645175629.03125,P13,D07,1,0,1
908,0.78,1645175629.046875,P13,D07,1,0,1
909,0.53,1645175629.0625,P13,D07,1,0,1
910,0.13,1645175629.078125,P13,D07,1,0,1
911,-0.27,1645175629.09375,P13,D07,1,0,1
912,-0.6,1645175629.109375,P13,D07,1,0,1
913,-0.86,1645175629.125,P13,D07,1,0,1
914,-1.08,1645175629.140625,P13,D07,1,0,1
915,-1.26,1645175629.15625,P13,D07,1,0,1
916,-1.32,1645175629.171875,P13,D07,1,0,1
917,-1.2,1645175629.1875,P13,D07,1,0,1
918,-0.83,1645175629.203125,P13,D07,1,0,1
919,-0.23,1645175629.21875,P13,D07,1,0,1
920,0.48,1645175629.234375,P13,D07,1,0,1
921,1.16,1645175629.25,P13,D07,1,0,1
922,1.67,1645175629.265625,P13,D07,1,0,1
923,1.93,1645175629.28125,P13,D07,1,0,1
924,1.93,1645175629.296875,P13,D07,1,0,1
925,1.71,1645175629.3125,P13,D07,1,0,1
926,1.33,1645175629.328125,P13,D07,1,0,1
927,0.83,1645175629.34375,P13,D07,1,0,1
928,0.27,1645175629.359375,P13,D07,1,0,1
929,-0.29,1645175629.375,P13,D07,1,0,1
930,-0.79,1645175629.390625,P13,D07,1,0,1
931,-1.14,1645175629.40625,P13,D07,1,0,1
932,-1.27,1645175629.421875,P13,D07,1,0,1
933,-1.12,1645175629.4375,P13,D07,1,0,1
934,-0.74,1645175629.453125,P13,D07,1,0,1
935,-0.24,1645175629.46875,P13,D07,1,0,1
936,0.21,1645175629.484375,P13,D07,1,0,1
937,0.47,1645175629.5,P13,D07,1,0,1
938,0.47,1645175629.515625,P13,D07,1,0,1
939,0.25,1645175629.53125,P13,D07,1,0,1
940,-0.09,1645175629.546875,P13,D07,1,0,1
941,-0.44,1645175629.5625,P13,D07,1,0,1
942,-0.75,1645175629.578125,P13,D07,1,0,1
943,-1.0,1645175629.59375,P13,D07,1,0,1
944,-1.22,1645175629.609375,P13,D07,1,0,1
945,-1.41,1645175629.625,P13,D07,1,0,1
946,-1.56,1645175629.640625,P13,D07,1,0,1
947,-1.66,1645175629.65625,P13,D07,1,0,1
948,-1.7,1645175629.671875,P13,D07,1,0,1
949,-1.71,1645175629.6875,P13,D07,1,0,1
950,-1.7,1645175629.703125,P13,D07,1,0,1
951,-1.66,1645175629.71875,P13,D07,1,0,1
952,-1.56,1645175629.734375,P13,D07,1,0,1
953,-1.36,1645175629.75,P13,D07,1,0,1
954,-1.07,1645175629.765625,P13,D07,1,0,1
955,-0.73,1645175629.78125,P13,D07,1,0,1
956,-0.44,1645175629.796875,P13,D07,1,0,1
957,-0.29,1645175629.8125,P13,D07,1,0,1
958,-0.32,1645175629.828125,P13,D07,1,0,1
959,-0.48,1645175629.84375,P13,D07,1,0,1
960,-0.68,1645175629.859375,P13,D07,1,0,1
961,-0.82,1645175629.875,P13,D07,1,0,1
962,-0.83,1645175629.890625,P13,D07,1,0,1
963,-0.68,1645175629.90625,P13,D07,1,0,1
964,-0.39,1645175629.921875,P13,D07,1,0,1
965,-0.02,1645175629.9375,P13,D07,1,0,1
966,0.32,1645175629.953125,P13,D07,1,0,1
967,0.57,1645175629.96875,P13,D07,1,0,1
968,0.67,1645175629.984375,P13,D07,1,0,1
969,0.57,1645175630.0,P13,D07,1,0,1
970,0.33,1645175630.015625,P13,D07,1,0,1
971,-0.0,1645175630.03125,P13,D07,1,0,1
972,-0.35,1645175630.046875,P13,D07,1,0,1
973,-0.63,1645175630.0625,P13,D07,1,0,1
974,-0.82,1645175630.078125,P13,D07,1,0,1
975,-0.93,1645175630.09375,P13,D07,1,0,1
976,-0.99,1645175630.109375,P13,D07,1,0,1
977,-1.03,1645175630.125,P13,D07,1,0,1
978,-1.05,1645175630.140625,P13,D07,1,0,1
979,-1.03,1645175630.15625,P13,D07,1,0,1
980,-0.89,1645175630.171875,P13,D07,1,0,1
981,-0.58,1645175630.1875,P13,D07,1,0,1
982,-0.12,1645175630.203125,P13,D07,1,0,1
983,0.41,1645175630.21875,P13,D07,1,0,1
984,0.87,1645175630.234375,P13,D07,1,0,1
985,1.11,1645175630.25,P13,D07,1,0,1
986,1.09,1645175630.265625,P13,D07,1,0,1
987,0.82,1645175630.28125,P13,D07,1,0,1
988,0.44,1645175630.296875,P13,D07,1,0,1
989,0.08,1645175630.3125,P13,D07,1,0,1
990,-0.17,1645175630.328125,P13,D07,1,0,1
991,-0.29,1645175630.34375,P13,D07,1,0,1
992,-0.32,1645175630.359375,P13,D07,1,0,1
993,-0.29,1645175630.375,P13,D07,1,0,1
994,-0.23,1645175630.390625,P13,D07,1,0,1
995,-0.19,1645175630.40625,P13,D07,1,0,1
996,-0.19,1645175630.421875,P13,D07,1,0,1
997,-0.28,1645175630.4375,P13,D07,1,0,1
998,-0.51,1645175630.453125,P13,D07,1,0,1
999,-0.83,1645175630.46875,P13,D07,1,0,1
1000,-1.14,1645175630.484375,P13,D07,1,0,1
1001,-1.3,1645175630.5,P13,D07,1,0,1
1002,-1.19,1645175630.515625,P13,D07,1,0,1
1003,-0.8,1645175630.53125,P13,D07,1,0,1
1004,-0.17,1645175630.546875,P13,D07,1,0,1
1005,0.54,1645175630.5625,P13,D07,1,0,1
1006,1.22,1645175630.578125,P13,D07,1,0,1
1007,1.73,1645175630.59375,P13,D07,1,0,1
1008,2.05,1645175630.609375,P13,D07,1,0,1
1009,2.16,1645175630.625,P13,D07,1,0,1
1010,2.12,1645175630.640625,P13,D07,1,0,1
1011,1.99,1645175630.65625,P13,D07,1,0,1
1012,1.82,1645175630.671875,P13,D07,1,0,1
1013,1.65,1645175630.6875,P13,D07,1,0,1
1014,1.49,1645175630.703125,P13,D07,1,0,1
1015,1.33,1645175630.71875,P13,D07,1,0,1
1016,1.18,1645175630.734375,P13,D07,1,0,1
1017,1.05,1645175630.75,P13,D07,1,0,1
1018,0.96,1645175630.765625,P13,D07,1,0,1
1019,0.9,1645175630.78125,P13,D07,1,0,1
1020,0.83,1645175630.796875,P13,D07,1,0,1
1021,0.71,1645175630.8125,P13,D07,1,0,1
1022,0.52,1645175630.828125,P13,D07,1,0,1
1023,0.27,1645175630.84375,P13,D07,1,0,1
1024,0.04,1645175630.859375,P13,D07,1,0,1
1025,-0.13,1645175630.875,P13,D07,1,0,1
1026,-0.18,1645175630.890625,P13,D07,1,0,1
1027,-0.17,1645175630.90625,P13,D07,1,0,1
1028,-0.12,1645175630.921875,P13,D07,1,0,1
1029,-0.11,1645175630.9375,P13,D07,1,0,1
1030,-0.13,1645175630.953125,P13,D07,1,0,1
1031,-0.15,1645175630.96875,P13,D07,1,0,1
1032,-0.13,1645175630.984375,P13,D07,1,0,1
1033,-0.02,1645175631.0,P13,D07,1,0,1
1034,0.16,1645175631.015625,P13,D07,1,0,1
1035,0.4,1645175631.03125,P13,D07,1,0,1
1036,0.68,1645175631.046875,P13,D07,1,0,1
1037,0.95,1645175631.0625,P13,D07,1,0,1
1038,1.19,1645175631.078125,P13,D07,1,0,1
1039,1.35,1645175631.09375,P13,D07,1,0,1
1040,1.4,1645175631.109375,P13,D07,1,0,1
1041,1.39,1645175631.125,P13,D07,1,0,1
1042,1.38,1645175631.140625,P13,D07,1,0,1
1043,1.44,1645175631.15625,P13,D07,1,0,1
1044,1.59,1645175631.171875,P13,D07,1,0,1
1045,1.75,1645175631.1875,P13,D07,1,0,1
1046,1.82,1645175631.203125,P13,D07,1,0,1
1047,1.69,1645175631.21875,P13,D07,1,0,1
1048,1.35,1645175631.234375,P13,D07,1,0,1
1049,0.9,1645175631.25,P13,D07,1,0,1
1050,0.48,1645175631.265625,P13,D07,1,0,1
1051,0.23,1645175631.28125,P13,D07,1,0,1
1052,0.22,1645175631.296875,P13,D07,1,0,1
1053,0.4,1645175631.3125,P13,D07,1,0,1
1054,0.7,1645175631.328125,P13,D07,1,0,1
1055,0.99,1645175631.34375,P13,D07,1,0,1
1056,1.2,1645175631.359375,P13,D07,1,0,1
1057,1.29,1645175631.375,P13,D07,1,0,1
1058,1.27,1645175631.390625,P13,D07,1,0,1
1059,1.15,1645175631.40625,P13,D07,1,0,1
1060,1.0,1645175631.421875,P13,D07,1,0,1
1061,0.82,1645175631.4375,P13,D07,1,0,1
1062,0.63,1645175631.453125,P13,D07,1,0,1
1063,0.42,1645175631.46875,P13,D07,1,0,1
1064,0.16,1645175631.484375,P13,D07,1,0,1
1065,-0.16,1645175631.5,P13,D07,1,0,1
1066,-0.52,1645175631.515625,P13,D07,1,0,1
1067,-0.88,1645175631.53125,P13,D07,1,0,1
1068,-1.21,1645175631.546875,P13,D07,1,0,1
1069,-1.49,1645175631.5625,P13,D07,1,0,1
1070,-1.72,1645175631.578125,P13,D07,1,0,1
1071,-1.9,1645175631.59375,P13,D07,1,0,1
1072,-2.01,1645175631.609375,P13,D07,1,0,1
1073,-1.99,1645175631.625,P13,D07,1,0,1
1074,-1.79,1645175631.640625,P13,D07,1,0,1
1075,-1.45,1645175631.65625,P13,D07,1,0,1
1076,-1.08,1645175631.671875,P13,D07,1,0,1
1077,-0.83,1645175631.6875,P13,D07,1,0,1
1078,-0.81,1645175631.703125,P13,D07,1,0,1
1079,-1.02,1645175631.71875,P13,D07,1,0,1
1080,-1.34,1645175631.734375,P13,D07,1,0,1
1081,-1.57,1645175631.75,P13,D07,1,0,1
1082,-1.57,1645175631.765625,P13,D07,1,0,1
1083,-1.28,1645175631.78125,P13,D07,1,0,1
1084,-0.74,1645175631.796875,P13,D07,1,0,1
1085,-0.08,1645175631.8125,P13,D07,1,0,1
1086,0.55,1645175631.828125,P13,D07,1,0,1
1087,1.03,1645175631.84375,P13,D07,1,0,1
1088,1.28,1645175631.859375,P13,D07,1,0,1
1089,1.3,1645175631.875,P13,D07,1,0,1
1090,1.16,1645175631.890625,P13,D07,1,0,1
1091,0.98,1645175631.90625,P13,D07,1,0,1
1092,0.88,1645175631.921875,P13,D07,1,0,1
1093,0.89,1645175631.9375,P13,D07,1,0,1
1094,0.99,1645175631.953125,P13,D07,1,0,1
1095,1.05,1645175631.96875,P13,D07,1,0,1
1096,1.01,1645175631.984375,P13,D07,1,0,1
1097,0.83,1645175632.0,P13,D07,1,0,1
1098,0.61,1645175632.015625,P13,D07,1,0,1
1099,0.43,1645175632.03125,P13,D07,1,0,1
1100,0.37,1645175632.046875,P13,D07,1,0,1
1101,0.39,1645175632.0625,P13,D07,1,0,1
1102,0.4,1645175632.078125,P13,D07,1,0,1
1103,0.32,1645175632.09375,P13,D07,1,0,1
1104,0.13,1645175632.109375,P13,D07,1,0,1
1105,-0.1,1645175632.125,P13,D07,1,0,1
1106,-0.27,1645175632.140625,P13,D07,1,0,1
1107,-0.33,1645175632.15625,P13,D07,1,0,1
1108,-0.32,1645175632.171875,P13,D07,1,0,1
1109,-0.28,1645175632.1875,P13,D07,1,0,1
1110,-0.24,1645175632.203125,P13,D07,1,0,1
1111,-0.18,1645175632.21875,P13,D07,1,0,1
1112,-0.05,1645175632.234375,P13,D07,1,0,1
1113,0.2,1645175632.25,P13,D07,1,0,1
1114,0.5,1645175632.265625,P13,D07,1,0,1
1115,0.75,1645175632.28125,P13,D07,1,0,1
1116,0.85,1645175632.296875,P13,D07,1,0,1
1117,0.77,1645175632.3125,P13,D07,1,0,1
1118,0.58,1645175632.328125,P13,D07,1,0,1
1119,0.4,1645175632.34375,P13,D07,1,0,1
1120,0.31,1645175632.359375,P13,D07,1,0,1
1121,0.32,1645175632.375,P13,D07,1,0,1
1122,0.34,1645175632.390625,P13,D07,1,0,1
1123,0.29,1645175632.40625,P13,D07,1,0,1
1124,0.16,1645175632.421875,P13,D07,1,0,1
1125,0.03,1645175632.4375,P13,D07,1,0,1
1126,-0.01,1645175632.453125,P13,D07,1,0,1
1127,0.09,1645175632.46875,P13,D07,1,0,1
1128,0.3,1645175632.484375,P13,D07,1,0,1
1129,0.49,1645175632.5,P13,D07,1,0,1
1130,0.54,1645175632.515625,P13,D07,1,0,1
1131,0.41,1645175632.53125,P13,D07,1,0,1
1132,0.18,1645175632.546875,P13,D07,1,0,1
1133,-0.05,1645175632.5625,P13,D07,1,0,1
1134,-0.2,1645175632.578125,P13,D07,1,0,1
1135,-0.22,1645175632.59375,P13,D07,1,0,1
1136,-0.15,1645175632.609375,P13,D07,1,0,1
1137,-0.04,1645175632.625,P13,D07,1,0,1
1138,0.07,1645175632.640625,P13,D07,1,0,1
1139,0.14,1645175632.65625,P13,D07,1,0,1
1140,0.13,1645175632.671875,P13,D07,1,0,1
1141,0.01,1645175632.6875,P13,D07,1,0,1
1142,-0.24,1645175632.703125,P13,D07,1,0,1
1143,-0.56,1645175632.71875,P13,D07,1,0,1
1144,-0.86,1645175632.734375,P13,D07,1,0,1
1145,-1.0,1645175632.75,P13,D07,1,0,1
1146,-0.92,1645175632.765625,P13,D07,1,0,1
1147,-0.63,1645175632.78125,P13,D07,1,0,1
1148,-0.26,1645175632.796875,P13,D07,1,0,1
1149,0.05,1645175632.8125,P13,D07,1,0,1
1150,0.17,1645175632.828125,P13,D07,1,0,1
1151,0.09,1645175632.84375,P13,D07,1,0,1
1152,-0.11,1645175632.859375,P13,D07,1,0,1
1153,-0.32,1645175632.875,P13,D07,1,0,1
1154,-0.45,1645175632.890625,P13,D07,1,0,1
1155,-0.48,1645175632.90625,P13,D07,1,0,1
1156,-0.44,1645175632.921875,P13,D07,1,0,1
1157,-0.4,1645175632.9375,P13,D07,1,0,1
1158,-0.39,1645175632.953125,P13,D07,1,0,1
1159,-0.4,1645175632.96875,P13,D07,1,0,1
1160,-0.38,1645175632.984375,P13,D07,1,0,1
1161,-0.29,1645175633.0,P13,D07,1,0,1
1162,-0.15,1645175633.015625,P13,D07,1,0,1
1163,-0.02,1645175633.03125,P13,D07,1,0,1
1164,0.01,1645175633.046875,P13,D07,1,0,1
1165,-0.08,1645175633.0625,P13,D07,1,0,1
1166,-0.25,1645175633.078125,P13,D07,1,0,1
1167,-0.42,1645175633.09375,P13,D07,1,0,1
1168,-0.52,1645175633.109375,P13,D07,1,0,1
1169,-0.54,1645175633.125,P13,D07,1,0,1
1170,-0.5,1645175633.140625,P13,D07,1,0,1
1171,-0.47,1645175633.15625,P13,D07,1,0,1
1172,-0.48,1645175633.171875,P13,D07,1,0,1
1173,-0.48,1645175633.1875,P13,D07,1,0,1
1174,-0.4,1645175633.203125,P13,D07,1,0,1
1175,-0.2,1645175633.21875,P13,D07,1,0,1
1176,0.11,1645175633.234375,P13,D07,1,0,1
1177,0.47,1645175633.25,P13,D07,1,0,1
1178,0.79,1645175633.265625,P13,D07,1,0,1
1179,1.01,1645175633.28125,P13,D07,1,0,1
1180,1.1,1645175633.296875,P13,D07,1,0,1
1181,1.05,1645175633.3125,P13,D07,1,0,1
1182,0.89,1645175633.328125,P13,D07,1,0,1
1183,0.64,1645175633.34375,P13,D07,1,0,1
1184,0.34,1645175633.359375,P13,D07,1,0,1
1185,0.05,1645175633.375,P13,D07,1,0,1
1186,-0.18,1645175633.390625,P13,D07,1,0,1
1187,-0.34,1645175633.40625,P13,D07,1,0,1
1188,-0.46,1645175633.421875,P13,D07,1,0,1
1189,-0.6,1645175633.4375,P13,D07,1,0,1
1190,-0.78,1645175633.453125,P13,D07,1,0,1
1191,-0.97,1645175633.46875,P13,D07,1,0,1
1192,-1.1,1645175633.484375,P13,D07,1,0,1
1193,-1.08,1645175633.5,P13,D07,1,0,1
1194,-0.9,1645175633.515625,P13,D07,1,0,1
1195,-0.59,1645175633.53125,P13,D07,1,0,1
1196,-0.27,1645175633.546875,P13,D07,1,0,1
1197,-0.04,1645175633.5625,P13,D07,1,0,1
1198,0.08,1645175633.578125,P13,D07,1,0,1
1199,0.14,1645175633.59375,P13,D07,1,0,1
1200,0.22,1645175633.609375,P13,D07,1,0,1
1201,0.37,1645175633.625,P13,D07,1,0,1
1202,0.59,1645175633.640625,P13,D07,1,0,1
1203,0.8,1645175633.65625,P13,D07,1,0,1
1204,0.89,1645175633.671875,P13,D07,1,0,1
1205,0.8,1645175633.6875,P13,D07,1,0,1
1206,0.54,1645175633.703125,P13,D07,1,0,1
1207,0.18,1645175633.71875,P13,D07,1,0,1
1208,-0.15,1645175633.734375,P13,D07,1,0,1
1209,-0.37,1645175633.75,P13,D07,1,0,1
1210,-0.45,1645175633.765625,P13,D07,1,0,1
1211,-0.42,1645175633.78125,P13,D07,1,0,1
1212,-0.34,1645175633.796875,P13,D07,1,0,1
1213,-0.28,1645175633.8125,P13,D07,1,0,1
1214,-0.27,1645175633.828125,P13,D07,1,0,1
1215,-0.27,1645175633.84375,P13,D07,1,0,1
1216,-0.27,1645175633.859375,P13,D07,1,0,1
1217,-0.24,1645175633.875,P13,D07,1,0,1
1218,-0.19,1645175633.890625,P13,D07,1,0,1
1219,-0.17,1645175633.90625,P13,D07,1,0,1
1220,-0.2,1645175633.921875,P13,D07,1,0,1
1221,-0.29,1645175633.9375,P13,D07,1,0,1
1222,-0.41,1645175633.953125,P13,D07,1,0,1
1223,-0.49,1645175633.96875,P13,D07,1,0,1
1224,-0.47,1645175633.984375,P13,D07,1,0,1
1225,-0.37,1645175634.0,P13,D07,1,0,1
1226,-0.2,1645175634.015625,P13,D07,1,0,1
1227,-0.02,1645175634.03125,P13,D07,1,0,1
1228,0.13,1645175634.046875,P13,D07,1,0,1
1229,0.24,1645175634.0625,P13,D07,1,0,1
1230,0.29,1645175634.078125,P13,D07,1,0,1
1231,0.27,1645175634.09375,P13,D07,1,0,1
1232,0.18,1645175634.109375,P13,D07,1,0,1
1233,-0.01,1645175634.125,P13,D07,1,0,1
1234,-0.29,1645175634.140625,P13,D07,1,0,1
1235,-0.6,1645175634.15625,P13,D07,1,0,1
1236,-0.89,1645175634.171875,P13,D07,1,0,1
1237,-1.12,1645175634.1875,P13,D07,1,0,1
1238,-1.28,1645175634.203125,P13,D07,1,0,1
1239,-1.42,1645175634.21875,P13,D07,1,0,1
1240,-1.57,1645175634.234375,P13,D07,1,0,1
1241,-1.76,1645175634.25,P13,D07,1,0,1
1242,-1.95,1645175634.265625,P13,D07,1,0,1
1243,-2.08,1645175634.28125,P13,D07,1,0,1
1244,-2.07,1645175634.296875,P13,D07,1,0,1
1245,-1.89,1645175634.3125,P13,D07,1,0,1
1246,-1.55,1645175634.328125,P13,D07,1,0,1
1247,-1.1,1645175634.34375,P13,D07,1,0,1
1248,-0.63,1645175634.359375,P13,D07,1,0,1
1249,-0.2,1645175634.375,P13,D07,1,0,1
1250,0.15,1645175634.390625,P13,D07,1,0,1
1251,0.41,1645175634.40625,P13,D07,1,0,1
1252,0.62,1645175634.421875,P13,D07,1,0,1
1253,0.8,1645175634.4375,P13,D07,1,0,1
1254,0.97,1645175634.453125,P13,D07,1,0,1
1255,1.08,1645175634.46875,P13,D07,1,0,1
1256,1.12,1645175634.484375,P13,D07,1,0,1
1257,1.08,1645175634.5,P13,D07,1,0,1
1258,1.02,1645175634.515625,P13,D07,1,0,1
1259,1.0,1645175634.53125,P13,D07,1,0,1
1260,1.1,1645175634.546875,P13,D07,1,0,1
1261,1.33,1645175634.5625,P13,D07,1,0,1
1262,1.65,1645175634.578125,P13,D07,1,0,1
1263,1.98,1645175634.59375,P13,D07,1,0,1
1264,2.26,1645175634.609375,P13,D07,1,0,1
1265,2.45,1645175634.625,P13,D07,1,0,1
1266,2.52,1645175634.640625,P13,D07,1,0,1
1267,2.43,1645175634.65625,P13,D07,1,0,1
1268,2.17,1645175634.671875,P13,D07,1,0,1
1269,1.74,1645175634.6875,P13,D07,1,0,1
1270,1.19,1645175634.703125,P13,D07,1,0,1
1271,0.59,1645175634.71875,P13,D07,1,0,1
1272,0.03,1645175634.734375,P13,D07,1,0,1
1273,-0.43,1645175634.75,P13,D07,1,0,1
1274,-0.79,1645175634.765625,P13,D07,1,0,1
1275,-1.07,1645175634.78125,P13,D07,1,0,1
1276,-1.23,1645175634.796875,P13,D07,1,0,1
1277,-1.24,1645175634.8125,P13,D07,1,0,1
1278,-1.07,1645175634.828125,P13,D07,1,0,1
1279,-0.77,1645175634.84375,P13,D07,1,0,1
1280,-0.48,1645175634.859375,P13,D07,1,0,1
1281,-0.37,1645175634.875,P13,D07,1,0,1
1282,-0.51,1645175634.890625,P13,D07,1,0,1
1283,-0.81,1645175634.90625,P13,D07,1,0,1
1284,-1.07,1645175634.921875,P13,D07,1,0,1
1285,-1.09,1645175634.9375,P13,D07,1,0,1
1286,-0.8,1645175634.953125,P13,D07,1,0,1
1287,-0.28,1645175634.96875,P13,D07,1,0,1
1288,0.25,1645175634.984375,P13,D07,1,0,1
1289,0.62,1645175635.0,P13,D07,1,0,1
1290,0.74,1645175635.015625,P13,D07,1,0,1
1291,0.68,1645175635.03125,P13,D07,1,0,1
1292,0.59,1645175635.046875,P13,D07,1,0,1
1293,0.57,1645175635.0625,P13,D07,1,0,1
1294,0.69,1645175635.078125,P13,D07,1,0,1
1295,0.91,1645175635.09375,P13,D07,1,0,1
1296,1.17,1645175635.109375,P13,D07,1,0,1
1297,1.41,1645175635.125,P13,D07,1,0,1
1298,1.59,1645175635.140625,P13,D07,1,0,1
1299,1.7,1645175635.15625,P13,D07,1,0,1
1300,1.75,1645175635.171875,P13,D07,1,0,1
1301,1.74,1645175635.1875,P13,D07,1,0,1
1302,1.68,1645175635.203125,P13,D07,1,0,1
1303,1.56,1645175635.21875,P13,D07,1,0,1
1304,1.37,1645175635.234375,P13,D07,1,0,1
1305,1.11,1645175635.25,P13,D07,1,0,1
1306,0.83,1645175635.265625,P13,D07,1,0,1
1307,0.58,1645175635.28125,P13,D07,1,0,1
1308,0.43,1645175635.296875,P13,D07,1,0,1
1309,0.4,1645175635.3125,P13,D07,1,0,1
1310,0.44,1645175635.328125,P13,D07,1,0,1
1311,0.47,1645175635.34375,P13,D07,1,0,1
1312,0.39,1645175635.359375,P13,D07,1,0,1
1313,0.18,1645175635.375,P13,D07,1,0,1
1314,-0.16,1645175635.390625,P13,D07,1,0,1
1315,-0.53,1645175635.40625,P13,D07,1,0,1
1316,-0.89,1645175635.421875,P13,D07,1,0,1
1317,-1.19,1645175635.4375,P13,D07,1,0,1
1318,-1.44,1645175635.453125,P13,D07,1,0,1
1319,-1.63,1645175635.46875,P13,D07,1,0,1
1320,-1.71,1645175635.484375,P13,D07,1,0,1
1321,-1.6,1645175635.5,P13,D07,1,0,1
1322,-1.25,1645175635.515625,P13,D07,1,0,1
1323,-0.7,1645175635.53125,P13,D07,1,0,1
1324,-0.11,1645175635.546875,P13,D07,1,0,1
1325,0.31,1645175635.5625,P13,D07,1,0,1
1326,0.4,1645175635.578125,P13,D07,1,0,1
1327,0.15,1645175635.59375,P13,D07,1,0,1
1328,-0.32,1645175635.609375,P13,D07,1,0,1
1329,-0.78,1645175635.625,P13,D07,1,0,1
1330,-1.06,1645175635.640625,P13,D07,1,0,1
1331,-1.07,1645175635.65625,P13,D07,1,0,1
1332,-0.86,1645175635.671875,P13,D07,1,0,1
1333,-0.53,1645175635.6875,P13,D07,1,0,1
1334,-0.2,1645175635.703125,P13,D07,1,0,1
1335,0.05,1645175635.71875,P13,D07,1,0,1
1336,0.22,1645175635.734375,P13,D07,1,0,1
1337,0.29,1645175635.75,P13,D07,1,0,1
1338,0.29,1645175635.765625,P13,D07,1,0,1
1339,0.2,1645175635.78125,P13,D07,1,0,1
1340,0.04,1645175635.796875,P13,D07,1,0,1
1341,-0.19,1645175635.8125,P13,D07,1,0,1
1342,-0.45,1645175635.828125,P13,D07,1,0,1
1343,-0.67,1645175635.84375,P13,D07,1,0,1
1344,-0.8,1645175635.859375,P13,D07,1,0,1
1345,-0.81,1645175635.875,P13,D07,1,0,1
1346,-0.67,1645175635.890625,P13,D07,1,0,1
1347,-0.4,1645175635.90625,P13,D07,1,0,1
1348,-0.06,1645175635.921875,P13,D07,1,0,1
1349,0.26,1645175635.9375,P13,D07,1,0,1
1350,0.49,1645175635.953125,P13,D07,1,0,1
1351,0.58,1645175635.96875,P13,D07,1,0,1
1352,0.54,1645175635.984375,P13,D07,1,0,1
1353,0.44,1645175636.0,P13,D07,1,0,1
1354,0.34,1645175636.015625,P13,D07,1,0,1
1355,0.29,1645175636.03125,P13,D07,1,0,1
1356,0.26,1645175636.046875,P13,D07,1,0,1
1357,0.21,1645175636.0625,P13,D07,1,0,1
1358,0.09,1645175636.078125,P13,D07,1,0,1
1359,-0.09,1645175636.09375,P13,D07,1,0,1
1360,-0.29,1645175636.109375,P13,D07,1,0,1
1361,-0.43,1645175636.125,P13,D07,1,0,1
1362,-0.49,1645175636.140625,P13,D07,1,0,1
1363,-0.48,1645175636.15625,P13,D07,1,0,1
1364,-0.43,1645175636.171875,P13,D07,1,0,1
1365,-0.39,1645175636.1875,P13,D07,1,0,1
1366,-0.35,1645175636.203125,P13,D07,1,0,1
1367,-0.29,1645175636.21875,P13,D07,1,0,1
1368,-0.15,1645175636.234375,P13,D07,1,0,1
1369,0.07,1645175636.25,P13,D07,1,0,1
1370,0.3,1645175636.265625,P13,D07,1,0,1
1371,0.47,1645175636.28125,P13,D07,1,0,1
1372,0.5,1645175636.296875,P13,D07,1,0,1
1373,0.36,1645175636.3125,P13,D07,1,0,1
1374,0.1,1645175636.328125,P13,D07,1,0,1
1375,-0.22,1645175636.34375,P13,D07,1,0,1
1376,-0.49,1645175636.359375,P13,D07,1,0,1
1377,-0.64,1645175636.375,P13,D07,1,0,1
1378,-0.63,1645175636.390625,P13,D07,1,0,1
1379,-0.43,1645175636.40625,P13,D07,1,0,1
1380,-0.08,1645175636.421875,P13,D07,1,0,1
1381,0.37,1645175636.4375,P13,D07,1,0,1
1382,0.83,1645175636.453125,P13,D07,1,0,1
1383,1.19,1645175636.46875,P13,D07,1,0,1
1384,1.34,1645175636.484375,P13,D07,1,0,1
1385,1.24,1645175636.5,P13,D07,1,0,1
1386,0.92,1645175636.515625,P13,D07,1,0,1
1387,0.48,1645175636.53125,P13,D07,1,0,1
1388,0.1,1645175636.546875,P13,D07,1,0,1
1389,-0.11,1645175636.5625,P13,D07,1,0,1
1390,-0.06,1645175636.578125,P13,D07,1,0,1
1391,0.21,1645175636.59375,P13,D07,1,0,1
1392,0.6,1645175636.609375,P13,D07,1,0,1
1393,1.01,1645175636.625,P13,D07,1,0,1
1394,1.32,1645175636.640625,P13,D07,1,0,1
1395,1.48,1645175636.65625,P13,D07,1,0,1
1396,1.41,1645175636.671875,P13,D07,1,0,1
1397,1.11,1645175636.6875,P13,D07,1,0,1
1398,0.6,1645175636.703125,P13,D07,1,0,1
1399,-0.04,1645175636.71875,P13,D07,1,0,1
1400,-0.69,1645175636.734375,P13,D07,1,0,1
1401,-1.2,1645175636.75,P13,D07,1,0,1
1402,-1.43,1645175636.765625,P13,D07,1,0,1
1403,-1.37,1645175636.78125,P13,D07,1,0,1
1404,-1.06,1645175636.796875,P13,D07,1,0,1
1405,-0.68,1645175636.8125,P13,D07,1,0,1
1406,-0.39,1645175636.828125,P13,D07,1,0,1
1407,-0.32,1645175636.84375,P13,D07,1,0,1
1408,-0.5,1645175636.859375,P13,D07,1,0,1
1409,-0.84,1645175636.875,P13,D07,1,0,1
1410,-1.2,1645175636.890625,P13,D07,1,0,1
1411,-1.42,1645175636.90625,P13,D07,1,0,1
1412,-1.42,1645175636.921875,P13,D07,1,0,1
1413,-1.21,1645175636.9375,P13,D07,1,0,1
1414,-0.87,1645175636.953125,P13,D07,1,0,1
1415,-0.59,1645175636.96875,P13,D07,1,0,1
1416,-0.48,1645175636.984375,P13,D07,1,0,1
1417,-0.6,1645175637.0,P13,D07,1,0,1
1418,-0.87,1645175637.015625,P13,D07,1,0,1
1419,-1.13,1645175637.03125,P13,D07,1,0,1
1420,-1.24,1645175637.046875,P13,D07,1,0,1
1421,-1.1,1645175637.0625,P13,D07,1,0,1
1422,-0.7,1645175637.078125,P13,D07,1,0,1
1423,-0.12,1645175637.09375,P13,D07,1,0,1
1424,0.51,1645175637.109375,P13,D07,1,0,1
1425,1.03,1645175637.125,P13,D07,1,0,1
1426,1.34,1645175637.140625,P13,D07,1,0,1
1427,1.37,1645175637.15625,P13,D07,1,0,1
1428,1.14,1645175637.171875,P13,D07,1,0,1
1429,0.72,1645175637.1875,P13,D07,1,0,1
1430,0.22,1645175637.203125,P13,D07,1,0,1
1431,-0.23,1645175637.21875,P13,D07,1,0,1
1432,-0.49,1645175637.234375,P13,D07,1,0,1
1433,-0.5,1645175637.25,P13,D07,1,0,1
1434,-0.23,1645175637.265625,P13,D07,1,0,1
1435,0.22,1645175637.28125,P13,D07,1,0,1
1436,0.72,1645175637.296875,P13,D07,1,0,1
1437,1.05,1645175637.3125,P13,D07,1,0,1
1438,1.06,1645175637.328125,P13,D07,1,0,1
1439,0.7,1645175637.34375,P13,D07,1,0,1
1440,0.08,1645175637.359375,P13,D07,1,0,1
1441,-0.58,1645175637.375,P13,D07,1,0,1
1442,-1.04,1645175637.390625,P13,D07,1,0,1
1443,-1.14,1645175637.40625,P13,D07,1,0,1
1444,-0.9,1645175637.421875,P13,D07,1,0,1
1445,-0.46,1645175637.4375,P13,D07,1,0,1
1446,-0.04,1645175637.453125,P13,D07,1,0,1
1447,0.2,1645175637.46875,P13,D07,1,0,1
1448,0.23,1645175637.484375,P13,D07,1,0,1
1449,0.14,1645175637.5,P13,D07,1,0,1
1450,0.04,1645175637.515625,P13,D07,1,0,1
1451,-0.0,1645175637.53125,P13,D07,1,0,1
1452,0.04,1645175637.546875,P13,D07,1,0,1
1453,0.14,1645175637.5625,P13,D07,1,0,1
1454,0.25,1645175637.578125,P13,D07,1,0,1
1455,0.35,1645175637.59375,P13,D07,1,0,1
1456,0.4,1645175637.609375,P13,D07,1,0,1
1457,0.35,1645175637.625,P13,D07,1,0,1
1458,0.15,1645175637.640625,P13,D07,1,0,1
1459,-0.22,1645175637.65625,P13,D07,1,0,1
1460,-0.72,1645175637.671875,P13,D07,1,0,1
1461,-1.24,1645175637.6875,P13,D07,1,0,1
1462,-1.58,1645175637.703125,P13,D07,1,0,1
1463,-1.61,1645175637.71875,P13,D07,1,0,1
1464,-1.25,1645175637.734375,P13,D07,1,0,1
1465,-0.6,1645175637.75,P13,D07,1,0,1
1466,0.16,1645175637.765625,P13,D07,1,0,1
1467,0.79,1645175637.78125,P13,D07,1,0,1
1468,1.13,1645175637.796875,P13,D07,1,0,1
1469,1.16,1645175637.8125,P13,D07,1,0,1
1470,0.96,1645175637.828125,P13,D07,1,0,1
1471,0.69,1645175637.84375,P13,D07,1,0,1
1472,0.48,1645175637.859375,P13,D07,1,0,1
1473,0.37,1645175637.875,P13,D07,1,0,1
1474,0.32,1645175637.890625,P13,D07,1,0,1
1475,0.22,1645175637.90625,P13,D07,1,0,1
1476,0.04,1645175637.921875,P13,D07,1,0,1
1477,-0.25,1645175637.9375,P13,D07,1,0,1
1478,-0.59,1645175637.953125,P13,D07,1,0,1
1479,-0.92,1645175637.96875,P13,D07,1,0,1
1480,-1.18,1645175637.984375,P13,D07,1,0,1
1481,-1.35,1645175638.0,P13,D07,1,0,1
1482,-1.38,1645175638.015625,P13,D07,1,0,1
1483,-1.24,1645175638.03125,P13,D07,1,0,1
1484,-0.9,1645175638.046875,P13,D07,1,0,1
1485,-0.37,1645175638.0625,P13,D07,1,0,1
1486,0.3,1645175638.078125,P13,D07,1,0,1
1487,0.96,1645175638.09375,P13,D07,1,0,1
1488,1.46,1645175638.109375,P13,D07,1,0,1
1489,1.63,1645175638.125,P13,D07,1,0,1
1490,1.4,1645175638.140625,P13,D07,1,0,1
1491,0.81,1645175638.15625,P13,D07,1,0,1
1492,-0.0,1645175638.171875,P13,D07,1,0,1
1493,-0.81,1645175638.1875,P13,D07,1,0,1
1494,-1.4,1645175638.203125,P13,D07,1,0,1
1495,-1.62,1645175638.21875,P13,D07,1,0,1
1496,-1.43,1645175638.234375,P13,D07,1,0,1
1497,-0.91,1645175638.25,P13,D07,1,0,1
1498,-0.22,1645175638.265625,P13,D07,1,0,1
1499,0.44,1645175638.28125,P13,D07,1,0,1
1500,0.87,1645175638.296875,P13,D07,1,0,1
1501,0.97,1645175638.3125,P13,D07,1,0,1
1502,0.76,1645175638.328125,P13,D07,1,0,1
1503,0.35,1645175638.34375,P13,D07,1,0,1
1504,-0.08,1645175638.359375,P13,D07,1,0,1
1505,-0.37,1645175638.375,P13,D07,1,0,1
1506,-0.46,1645175638.390625,P13,D07,1,0,1
1507,-0.36,1645175638.40625,P13,D07,1,0,1
1508,-0.18,1645175638.421875,P13,D07,1,0,1
1509,0.01,1645175638.4375,P13,D07,1,0,1
1510,0.17,1645175638.453125,P13,D07,1,0,1
1511,0.32,1645175638.46875,P13,D07,1,0,1
1512,0.49,1645175638.484375,P13,D07,1,0,1
1513,0.67,1645175638.5,P13,D07,1,0,1
1514,0.82,1645175638.515625,P13,D07,1,0,1
1515,0.85,1645175638.53125,P13,D07,1,0,1
1516,0.71,1645175638.546875,P13,D07,1,0,1
1517,0.43,1645175638.5625,P13,D07,1,0,1
1518,0.11,1645175638.578125,P13,D07,1,0,1
1519,-0.16,1645175638.59375,P13,D07,1,0,1
1520,-0.28,1645175638.609375,P13,D07,1,0,1
1521,-0.26,1645175638.625,P13,D07,1,0,1
1522,-0.16,1645175638.640625,P13,D07,1,0,1
1523,-0.08,1645175638.65625,P13,D07,1,0,1
1524,-0.03,1645175638.671875,P13,D07,1,0,1
1525,-0.0,1645175638.6875,P13,D07,1,0,1
1526,0.05,1645175638.703125,P13,D07,1,0,1
1527,0.21,1645175638.71875,P13,D07,1,0,1
1528,0.46,1645175638.734375,P13,D07,1,0,1
1529,0.76,1645175638.75,P13,D07,1,0,1
1530,0.98,1645175638.765625,P13,D07,1,0,1
1531,1.0,1645175638.78125,P13,D07,1,0,1
1532,0.76,1645175638.796875,P13,D07,1,0,1
1533,0.29,1645175638.8125,P13,D07,1,0,1
1534,-0.28,1645175638.828125,P13,D07,1,0,1
1535,-0.79,1645175638.84375,P13,D07,1,0,1
1536,-1.13,1645175638.859375,P13,D07,1,0,1
1537,-1.24,1645175638.875,P13,D07,1,0,1
1538,-1.16,1645175638.890625,P13,D07,1,0,1
1539,-0.98,1645175638.90625,P13,D07,1,0,1
1540,-0.78,1645175638.921875,P13,D07,1,0,1
1541,-0.57,1645175638.9375,P13,D07,1,0,1
1542,-0.4,1645175638.953125,P13,D07,1,0,1
1543,-0.27,1645175638.96875,P13,D07,1,0,1
1544,-0.21,1645175638.984375,P13,D07,1,0,1
1545,-0.27,1645175639.0,P13,D07,1,0,1
1546,-0.41,1645175639.015625,P13,D07,1,0,1
1547,-0.57,1645175639.03125,P13,D07,1,0,1
1548,-0.61,1645175639.046875,P13,D07,1,0,1
1549,-0.45,1645175639.0625,P13,D07,1,0,1
1550,-0.1,1645175639.078125,P13,D07,1,0,1
1551,0.32,1645175639.09375,P13,D07,1,0,1
1552,0.64,1645175639.109375,P13,D07,1,0,1
1553,0.72,1645175639.125,P13,D07,1,0,1
1554,0.55,1645175639.140625,P13,D07,1,0,1
1555,0.22,1645175639.15625,P13,D07,1,0,1
1556,-0.1,1645175639.171875,P13,D07,1,0,1
1557,-0.26,1645175639.1875,P13,D07,1,0,1
1558,-0.24,1645175639.203125,P13,D07,1,0,1
1559,-0.09,1645175639.21875,P13,D07,1,0,1
1560,0.11,1645175639.234375,P13,D07,1,0,1
1561,0.26,1645175639.25,P13,D07,1,0,1
1562,0.35,1645175639.265625,P13,D07,1,0,1
1563,0.4,1645175639.28125,P13,D07,1,0,1
1564,0.43,1645175639.296875,P13,D07,1,0,1
1565,0.47,1645175639.3125,P13,D07,1,0,1
1566,0.49,1645175639.328125,P13,D07,1,0,1
1567,0.5,1645175639.34375,P13,D07,1,0,1
1568,0.5,1645175639.359375,P13,D07,1,0,1
1569,0.47,1645175639.375,P13,D07,1,0,1
1570,0.42,1645175639.390625,P13,D07,1,0,1
1571,0.34,1645175639.40625,P13,D07,1,0,1
1572,0.2,1645175639.421875,P13,D07,1,0,1
1573,0.01,1645175639.4375,P13,D07,1,0,1
1574,-0.21,1645175639.453125,P13,D07,1,0,1
1575,-0.38,1645175639.46875,P13,D07,1,0,1
1576,-0.45,1645175639.484375,P13,D07,1,0,1
1577,-0.36,1645175639.5,P13,D07,1,0,1
1578,-0.13,1645175639.515625,P13,D07,1,0,1
1579,0.16,1645175639.53125,P13,D07,1,0,1
1580,0.39,1645175639.546875,P13,D07,1,0,1
1581,0.45,1645175639.5625,P13,D07,1,0,1
1582,0.29,1645175639.578125,P13,D07,1,0,1
1583,-0.04,1645175639.59375,P13,D07,1,0,1
1584,-0.41,1645175639.609375,P13,D07,1,0,1
1585,-0.69,1645175639.625,P13,D07,1,0,1
1586,-0.78,1645175639.640625,P13,D07,1,0,1
1587,-0.71,1645175639.65625,P13,D07,1,0,1
1588,-0.55,1645175639.671875,P13,D07,1,0,1
1589,-0.42,1645175639.6875,P13,D07,1,0,1
1590,-0.38,1645175639.703125,P13,D07,1,0,1
1591,-0.4,1645175639.71875,P13,D07,1,0,1
1592,-0.44,1645175639.734375,P13,D07,1,0,1
1593,-0.45,1645175639.75,P13,D07,1,0,1
1594,-0.44,1645175639.765625,P13,D07,1,0,1
1595,-0.48,1645175639.78125,P13,D07,1,0,1
1596,-0.61,1645175639.796875,P13,D07,1,0,1
1597,-0.83,1645175639.8125,P13,D07,1,0,1
1598,-1.04,1645175639.828125,P13,D07,1,0,1
1599,-1.1,1645175639.84375,P13,D07,1,0,1
1600,-0.94,1645175639.859375,P13,D07,1,0,1
1601,-0.57,1645175639.875,P13,D07,1,0,1
1602,-0.11,1645175639.890625,P13,D07,1,0,1
1603,0.27,1645175639.90625,P13,D07,1,0,1
1604,0.44,1645175639.921875,P13,D07,1,0,1
1605,0.36,1645175639.9375,P13,D07,1,0,1
1606,0.12,1645175639.953125,P13,D07,1,0,1
1607,-0.13,1645175639.96875,P13,D07,1,0,1
1608,-0.27,1645175639.984375,P13,D07,1,0,1
1609,-0.22,1645175640.0,P13,D07,1,0,1
1610,-0.01,1645175640.015625,P13,D07,1,0,1
1611,0.24,1645175640.03125,P13,D07,1,0,1
1612,0.44,1645175640.046875,P13,D07,1,0,1
1613,0.54,1645175640.0625,P13,D07,1,0,1
1614,0.58,1645175640.078125,P13,D07,1,0,1
1615,0.63,1645175640.09375,P13,D07,1,0,1
1616,0.76,1645175640.109375,P13,D07,1,0,1
1617,0.97,1645175640.125,P13,D07,1,0,1
1618,1.19,1645175640.140625,P13,D07,1,0,1
1619,1.31,1645175640.15625,P13,D07,1,0,1
1620,1.26,1645175640.171875,P13,D07,1,0,1
1621,1.05,1645175640.1875,P13,D07,1,0,1
1622,0.74,1645175640.203125,P13,D07,1,0,1
1623,0.41,1645175640.21875,P13,D07,1,0,1
1624,0.12,1645175640.234375,P13,D07,1,0,1
1625,-0.06,1645175640.25,P13,D07,1,0,1
1626,-0.11,1645175640.265625,P13,D07,1,0,1
1627,-0.02,1645175640.28125,P13,D07,1,0,1
1628,0.24,1645175640.296875,P13,D07,1,0,1
1629,0.63,1645175640.3125,P13,D07,1,0,1
1630,1.06,1645175640.328125,P13,D07,1,0,1
1631,1.41,1645175640.34375,P13,D07,1,0,1
1632,1.57,1645175640.359375,P13,D07,1,0,1
1633,1.48,1645175640.375,P13,D07,1,0,1
1634,1.22,1645175640.390625,P13,D07,1,0,1
1635,0.89,1645175640.40625,P13,D07,1,0,1
1636,0.64,1645175640.421875,P13,D07,1,0,1
1637,0.51,1645175640.4375,P13,D07,1,0,1
1638,0.5,1645175640.453125,P13,D07,1,0,1
1639,0.52,1645175640.46875,P13,D07,1,0,1
1640,0.49,1645175640.484375,P13,D07,1,0,1
1641,0.36,1645175640.5,P13,D07,1,0,1
1642,0.13,1645175640.515625,P13,D07,1,0,1
1643,-0.11,1645175640.53125,P13,D07,1,0,1
1644,-0.3,1645175640.546875,P13,D07,1,0,1
1645,-0.37,1645175640.5625,P13,D07,1,0,1
1646,-0.31,1645175640.578125,P13,D07,1,0,1
1647,-0.17,1645175640.59375,P13,D07,1,0,1
1648,0.0,1645175640.609375,P13,D07,1,0,1
1649,0.13,1645175640.625,P13,D07,1,0,1
1650,0.19,1645175640.640625,P13,D07,1,0,1
1651,0.18,1645175640.65625,P13,D07,1,0,1
1652,0.13,1645175640.671875,P13,D07,1,0,1
1653,0.08,1645175640.6875,P13,D07,1,0,1
1654,0.07,1645175640.703125,P13,D07,1,0,1
1655,0.1,1645175640.71875,P13,D07,1,0,1
1656,0.18,1645175640.734375,P13,D07,1,0,1
1657,0.3,1645175640.75,P13,D07,1,0,1
1658,0.45,1645175640.765625,P13,D07,1,0,1
1659,0.63,1645175640.78125,P13,D07,1,0,1
1660,0.79,1645175640.796875,P13,D07,1,0,1
1661,0.84,1645175640.8125,P13,D07,1,0,1
1662,0.71,1645175640.828125,P13,D07,1,0,1
1663,0.39,1645175640.84375,P13,D07,1,0,1
1664,-0.05,1645175640.859375,P13,D07,1,0,1
1665,-0.45,1645175640.875,P13,D07,1,0,1
1666,-0.66,1645175640.890625,P13,D07,1,0,1
1667,-0.58,1645175640.90625,P13,D07,1,0,1
1668,-0.22,1645175640.921875,P13,D07,1,0,1
1669,0.27,1645175640.9375,P13,D07,1,0,1
1670,0.73,1645175640.953125,P13,D07,1,0,1
1671,1.02,1645175640.96875,P13,D07,1,0,1
1672,1.09,1645175640.984375,P13,D07,1,0,1
1673,0.99,1645175641.0,P13,D07,1,0,1
1674,0.78,1645175641.015625,P13,D07,1,0,1
1675,0.55,1645175641.03125,P13,D07,1,0,1
1676,0.36,1645175641.046875,P13,D07,1,0,1
1677,0.24,1645175641.0625,P13,D07,1,0,1
1678,0.2,1645175641.078125,P13,D07,1,0,1
1679,0.21,1645175641.09375,P13,D07,1,0,1
1680,0.26,1645175641.109375,P13,D07,1,0,1
1681,0.24,1645175641.125,P13,D07,1,0,1
1682,0.08,1645175641.140625,P13,D07,1,0,1
1683,-0.24,1645175641.15625,P13,D07,1,0,1
1684,-0.72,1645175641.171875,P13,D07,1,0,1
1685,-1.25,1645175641.1875,P13,D07,1,0,1
1686,-1.7,1645175641.203125,P13,D07,1,0,1
1687,-1.95,1645175641.21875,P13,D07,1,0,1
1688,-1.91,1645175641.234375,P13,D07,1,0,1
1689,-1.59,1645175641.25,P13,D07,1,0,1
1690,-1.09,1645175641.265625,P13,D07,1,0,1
1691,-0.56,1645175641.28125,P13,D07,1,0,1
1692,-0.17,1645175641.296875,P13,D07,1,0,1
1693,-0.07,1645175641.3125,P13,D07,1,0,1
1694,-0.25,1645175641.328125,P13,D07,1,0,1
1695,-0.63,1645175641.34375,P13,D07,1,0,1
1696,-1.08,1645175641.359375,P13,D07,1,0,1
1697,-1.47,1645175641.375,P13,D07,1,0,1
1698,-1.79,1645175641.390625,P13,D07,1,0,1
1699,-2.05,1645175641.40625,P13,D07,1,0,1
1700,-2.31,1645175641.421875,P13,D07,1,0,1
1701,-2.59,1645175641.4375,P13,D07,1,0,1
1702,-2.81,1645175641.453125,P13,D07,1,0,1
1703,-2.86,1645175641.46875,P13,D07,1,0,1
1704,-2.66,1645175641.484375,P13,D07,1,0,1
1705,-2.19,1645175641.5,P13,D07,1,0,1
1706,-1.51,1645175641.515625,P13,D07,1,0,1
1707,-0.72,1645175641.53125,P13,D07,1,0,1
1708,0.06,1645175641.546875,P13,D07,1,0,1
1709,0.76,1645175641.5625,P13,D07,1,0,1
1710,1.31,1645175641.578125,P13,D07,1,0,1
1711,1.66,1645175641.59375,P13,D07,1,0,1
1712,1.79,1645175641.609375,P13,D07,1,0,1
1713,1.76,1645175641.625,P13,D07,1,0,1
1714,1.64,1645175641.640625,P13,D07,1,0,1
1715,1.54,1645175641.65625,P13,D07,1,0,1
1716,1.53,1645175641.671875,P13,D07,1,0,1
1717,1.62,1645175641.6875,P13,D07,1,0,1
1718,1.82,1645175641.703125,P13,D07,1,0,1
1719,2.12,1645175641.71875,P13,D07,1,0,1
1720,2.55,1645175641.734375,P13,D07,1,0,1
1721,3.14,1645175641.75,P13,D07,1,0,1
1722,3.9,1645175641.765625,P13,D07,1,0,1
1723,4.72,1645175641.78125,P13,D07,1,0,1
1724,5.43,1645175641.796875,P13,D07,1,0,1
1725,5.81,1645175641.8125,P13,D07,1,0,1
1726,5.72,1645175641.828125,P13,D07,1,0,1
1727,5.16,1645175641.84375,P13,D07,1,0,1
1728,4.24,1645175641.859375,P13,D07,1,0,1
1729,3.09,1645175641.875,P13,D07,1,0,1
1730,1.84,1645175641.890625,P13,D07,1,0,1
1731,0.51,1645175641.90625,P13,D07,1,0,1
1732,-0.91,1645175641.921875,P13,D07,1,0,1
1733,-2.37,1645175641.9375,P13,D07,1,0,1
1734,-3.71,1645175641.953125,P13,D07,1,0,1
1735,-4.68,1645175641.96875,P13,D07,1,0,1
1736,-4.99,1645175641.984375,P13,D07,1,0,1
1737,-4.52,1645175642.0,P13,D07,1,0,1
1738,-3.37,1645175642.015625,P13,D07,1,0,1
1739,-1.81,1645175642.03125,P13,D07,1,0,1
1740,-0.24,1645175642.046875,P13,D07,1,0,1
1741,1.03,1645175642.0625,P13,D07,1,0,1
1742,1.85,1645175642.078125,P13,D07,1,0,1
1743,2.19,1645175642.09375,P13,D07,1,0,1
1744,2.15,1645175642.109375,P13,D07,1,0,1
1745,1.84,1645175642.125,P13,D07,1,0,1
1746,1.36,1645175642.140625,P13,D07,1,0,1
1747,0.79,1645175642.15625,P13,D07,1,0,1
1748,0.22,1645175642.171875,P13,D07,1,0,1
1749,-0.25,1645175642.1875,P13,D07,1,0,1
1750,-0.51,1645175642.203125,P13,D07,1,0,1
1751,-0.55,1645175642.21875,P13,D07,1,0,1
1752,-0.38,1645175642.234375,P13,D07,1,0,1
1753,-0.11,1645175642.25,P13,D07,1,0,1
1754,0.13,1645175642.265625,P13,D07,1,0,1
1755,0.24,1645175642.28125,P13,D07,1,0,1
1756,0.17,1645175642.296875,P13,D07,1,0,1
1757,-0.05,1645175642.3125,P13,D07,1,0,1
1758,-0.36,1645175642.328125,P13,D07,1,0,1
1759,-0.69,1645175642.34375,P13,D07,1,0,1
1760,-1.0,1645175642.359375,P13,D07,1,0,1
1761,-1.24,1645175642.375,P13,D07,1,0,1
1762,-1.41,1645175642.390625,P13,D07,1,0,1
1763,-1.48,1645175642.40625,P13,D07,1,0,1
1764,-1.47,1645175642.421875,P13,D07,1,0,1
1765,-1.4,1645175642.4375,P13,D07,1,0,1
1766,-1.33,1645175642.453125,P13,D07,1,0,1
1767,-1.32,1645175642.46875,P13,D07,1,0,1
1768,-1.44,1645175642.484375,P13,D07,1,0,1
1769,-1.74,1645175642.5,P13,D07,1,0,1
1770,-2.15,1645175642.515625,P13,D07,1,0,1
1771,-2.58,1645175642.53125,P13,D07,1,0,1
1772,-2.92,1645175642.546875,P13,D07,1,0,1
1773,-3.06,1645175642.5625,P13,D07,1,0,1
1774,-2.97,1645175642.578125,P13,D07,1,0,1
1775,-2.65,1645175642.59375,P13,D07,1,0,1
1776,-2.18,1645175642.609375,P13,D07,1,0,1
1777,-1.59,1645175642.625,P13,D07,1,0,1
1778,-0.97,1645175642.640625,P13,D07,1,0,1
1779,-0.37,1645175642.65625,P13,D07,1,0,1
1780,0.13,1645175642.671875,P13,D07,1,0,1
1781,0.47,1645175642.6875,P13,D07,1,0,1
1782,0.63,1645175642.703125,P13,D07,1,0,1
1783,0.59,1645175642.71875,P13,D07,1,0,1
1784,0.37,1645175642.734375,P13,D07,1,0,1
1785,0.01,1645175642.75,P13,D07,1,0,1
1786,-0.43,1645175642.765625,P13,D07,1,0,1
1787,-0.87,1645175642.78125,P13,D07,1,0,1
1788,-1.22,1645175642.796875,P13,D07,1,0,1
1789,-1.38,1645175642.8125,P13,D07,1,0,1
1790,-1.28,1645175642.828125,P13,D07,1,0,1
1791,-0.91,1645175642.84375,P13,D07,1,0,1
1792,-0.3,1645175642.859375,P13,D07,1,0,1
1793,0.41,1645175642.875,P13,D07,1,0,1
1794,1.08,1645175642.890625,P13,D07,1,0,1
1795,1.59,1645175642.90625,P13,D07,1,0,1
1796,1.85,1645175642.921875,P13,D07,1,0,1
1797,1.89,1645175642.9375,P13,D07,1,0,1
1798,1.77,1645175642.953125,P13,D07,1,0,1
1799,1.56,1645175642.96875,P13,D07,1,0,1
1800,1.34,1645175642.984375,P13,D07,1,0,1
1801,1.11,1645175643.0,P13,D07,1,0,1
1802,0.85,1645175643.015625,P13,D07,1,0,1
1803,0.57,1645175643.03125,P13,D07,1,0,1
1804,0.28,1645175643.046875,P13,D07,1,0,1
1805,0.08,1645175643.0625,P13,D07,1,0,1
1806,0.0,1645175643.078125,P13,D07,1,0,1
1807,0.08,1645175643.09375,P13,D07,1,0,1
1808,0.23,1645175643.109375,P13,D07,1,0,1
1809,0.32,1645175643.125,P13,D07,1,0,1
1810,0.21,1645175643.140625,P13,D07,1,0,1
1811,-0.12,1645175643.15625,P13,D07,1,0,1
1812,-0.58,1645175643.171875,P13,D07,1,0,1
1813,-0.99,1645175643.1875,P13,D07,1,0,1
1814,-1.17,1645175643.203125,P13,D07,1,0,1
1815,-1.04,1645175643.21875,P13,D07,1,0,1
1816,-0.63,1645175643.234375,P13,D07,1,0,1
1817,-0.08,1645175643.25,P13,D07,1,0,1
1818,0.45,1645175643.265625,P13,D07,1,0,1
1819,0.86,1645175643.28125,P13,D07,1,0,1
1820,1.11,1645175643.296875,P13,D07,1,0,1
1821,1.23,1645175643.3125,P13,D07,1,0,1
1822,1.3,1645175643.328125,P13,D07,1,0,1
1823,1.35,1645175643.34375,P13,D07,1,0,1
1824,1.35,1645175643.359375,P13,D07,1,0,1
1825,1.26,1645175643.375,P13,D07,1,0,1
1826,1.02,1645175643.390625,P13,D07,1,0,1
1827,0.65,1645175643.40625,P13,D07,1,0,1
1828,0.24,1645175643.421875,P13,D07,1,0,1
1829,-0.07,1645175643.4375,P13,D07,1,0,1
1830,-0.17,1645175643.453125,P13,D07,1,0,1
1831,-0.02,1645175643.46875,P13,D07,1,0,1
1832,0.27,1645175643.484375,P13,D07,1,0,1
1833,0.54,1645175643.5,P13,D07,1,0,1
1834,0.64,1645175643.515625,P13,D07,1,0,1
1835,0.5,1645175643.53125,P13,D07,1,0,1
1836,0.18,1645175643.546875,P13,D07,1,0,1
1837,-0.19,1645175643.5625,P13,D07,1,0,1
1838,-0.49,1645175643.578125,P13,D07,1,0,1
1839,-0.63,1645175643.59375,P13,D07,1,0,1
1840,-0.66,1645175643.609375,P13,D07,1,0,1
1841,-0.64,1645175643.625,P13,D07,1,0,1
1842,-0.64,1645175643.640625,P13,D07,1,0,1
1843,-0.69,1645175643.65625,P13,D07,1,0,1
1844,-0.79,1645175643.671875,P13,D07,1,0,1
1845,-0.91,1645175643.6875,P13,D07,1,0,1
1846,-1.03,1645175643.703125,P13,D07,1,0,1
1847,-1.15,1645175643.71875,P13,D07,1,0,1
1848,-1.26,1645175643.734375,P13,D07,1,0,1
1849,-1.35,1645175643.75,P13,D07,1,0,1
1850,-1.41,1645175643.765625,P13,D07,1,0,1
1851,-1.41,1645175643.78125,P13,D07,1,0,1
1852,-1.33,1645175643.796875,P13,D07,1,0,1
1853,-1.17,1645175643.8125,P13,D07,1,0,1
1854,-0.94,1645175643.828125,P13,D07,1,0,1
1855,-0.69,1645175643.84375,P13,D07,1,0,1
1856,-0.47,1645175643.859375,P13,D07,1,0,1
1857,-0.34,1645175643.875,P13,D07,1,0,1
1858,-0.29,1645175643.890625,P13,D07,1,0,1
1859,-0.32,1645175643.90625,P13,D07,1,0,1
1860,-0.38,1645175643.921875,P13,D07,1,0,1
1861,-0.42,1645175643.9375,P13,D07,1,0,1
1862,-0.42,1645175643.953125,P13,D07,1,0,1
1863,-0.37,1645175643.96875,P13,D07,1,0,1
1864,-0.33,1645175643.984375,P13,D07,1,0,1
1865,-0.36,1645175644.0,P13,D07,1,0,1
1866,-0.52,1645175644.015625,P13,D07,1,0,1
1867,-0.78,1645175644.03125,P13,D07,1,0,1
1868,-1.06,1645175644.046875,P13,D07,1,0,1
1869,-1.26,1645175644.0625,P13,D07,1,0,1
1870,-1.25,1645175644.078125,P13,D07,1,0,1
1871,-1.03,1645175644.09375,P13,D07,1,0,1
1872,-0.66,1645175644.109375,P13,D07,1,0,1
1873,-0.26,1645175644.125,P13,D07,1,0,1
1874,0.07,1645175644.140625,P13,D07,1,0,1
1875,0.27,1645175644.15625,P13,D07,1,0,1
1876,0.38,1645175644.171875,P13,D07,1,0,1
1877,0.43,1645175644.1875,P13,D07,1,0,1
1878,0.42,1645175644.203125,P13,D07,1,0,1
1879,0.32,1645175644.21875,P13,D07,1,0,1
1880,0.09,1645175644.234375,P13,D07,1,0,1
1881,-0.23,1645175644.25,P13,D07,1,0,1
1882,-0.55,1645175644.265625,P13,D07,1,0,1
1883,-0.75,1645175644.28125,P13,D07,1,0,1
1884,-0.76,1645175644.296875,P13,D07,1,0,1
1885,-0.63,1645175644.3125,P13,D07,1,0,1
1886,-0.48,1645175644.328125,P13,D07,1,0,1
1887,-0.44,1645175644.34375,P13,D07,1,0,1
1888,-0.54,1645175644.359375,P13,D07,1,0,1
1889,-0.68,1645175644.375,P13,D07,1,0,1
1890,-0.72,1645175644.390625,P13,D07,1,0,1
1891,-0.52,1645175644.40625,P13,D07,1,0,1
1892,-0.03,1645175644.421875,P13,D07,1,0,1
1893,0.68,1645175644.4375,P13,D07,1,0,1
1894,1.44,1645175644.453125,P13,D07,1,0,1
1895,2.08,1645175644.46875,P13,D07,1,0,1
1896,2.49,1645175644.484375,P13,D07,1,0,1
1897,2.62,1645175644.5,P13,D07,1,0,1
1898,2.53,1645175644.515625,P13,D07,1,0,1
1899,2.28,1645175644.53125,P13,D07,1,0,1
1900,1.94,1645175644.546875,P13,D07,1,0,1
1901,1.52,1645175644.5625,P13,D07,1,0,1
1902,1.07,1645175644.578125,P13,D07,1,0,1
1903,0.61,1645175644.59375,P13,D07,1,0,1
1904,0.21,1645175644.609375,P13,D07,1,0,1
1905,-0.06,1645175644.625,P13,D07,1,0,1
1906,-0.16,1645175644.640625,P13,D07,1,0,1
1907,-0.12,1645175644.65625,P13,D07,1,0,1
1908,-0.06,1645175644.671875,P13,D07,1,0,1
1909,-0.13,1645175644.6875,P13,D07,1,0,1
1910,-0.41,1645175644.703125,P13,D07,1,0,1
1911,-0.89,1645175644.71875,P13,D07,1,0,1
1912,-1.44,1645175644.734375,P13,D07,1,0,1
1913,-1.85,1645175644.75,P13,D07,1,0,1
1914,-1.93,1645175644.765625,P13,D07,1,0,1
1915,-1.6,1645175644.78125,P13,D07,1,0,1
1916,-0.95,1645175644.796875,P13,D07,1,0,1
1917,-0.15,1645175644.8125,P13,D07,1,0,1
1918,0.58,1645175644.828125,P13,D07,1,0,1
1919,1.05,1645175644.84375,P13,D07,1,0,1
1920,1.19,1645175644.859375,P13,D07,1,0,1
1921,1.08,1645175644.875,P13,D07,1,0,1
1922,0.83,1645175644.890625,P13,D07,1,0,1
1923,0.59,1645175644.90625,P13,D07,1,0,1
1924,0.43,1645175644.921875,P13,D07,1,0,1
1925,0.37,1645175644.9375,P13,D07,1,0,1
1926,0.36,1645175644.953125,P13,D07,1,0,1
1927,0.35,1645175644.96875,P13,D07,1,0,1
1928,0.31,1645175644.984375,P13,D07,1,0,1
1929,0.23,1645175645.0,P13,D07,1,0,1
1930,0.12,1645175645.015625,P13,D07,1,0,1
1931,0.01,1645175645.03125,P13,D07,1,0,1
1932,-0.08,1645175645.046875,P13,D07,1,0,1
1933,-0.1,1645175645.0625,P13,D07,1,0,1
1934,-0.02,1645175645.078125,P13,D07,1,0,1
1935,0.15,1645175645.09375,P13,D07,1,0,1
1936,0.41,1645175645.109375,P13,D07,1,0,1
1937,0.69,1645175645.125,P13,D07,1,0,1
1938,0.96,1645175645.140625,P13,D07,1,0,1
1939,1.18,1645175645.15625,P13,D07,1,0,1
1940,1.35,1645175645.171875,P13,D07,1,0,1
1941,1.47,1645175645.1875,P13,D07,1,0,1
1942,1.53,1645175645.203125,P13,D07,1,0,1
1943,1.48,1645175645.21875,P13,D07,1,0,1
1944,1.27,1645175645.234375,P13,D07,1,0,1
1945,0.91,1645175645.25,P13,D07,1,0,1
1946,0.41,1645175645.265625,P13,D07,1,0,1
1947,-0.11,1645175645.28125,P13,D07,1,0,1
1948,-0.54,1645175645.296875,P13,D07,1,0,1
1949,-0.76,1645175645.3125,P13,D07,1,0,1
1950,-0.75,1645175645.328125,P13,D07,1,0,1
1951,-0.54,1645175645.34375,P13,D07,1,0,1
1952,-0.23,1645175645.359375,P13,D07,1,0,1
1953,0.03,1645175645.375,P13,D07,1,0,1
1954,0.17,1645175645.390625,P13,D07,1,0,1
1955,0.12,1645175645.40625,P13,D07,1,0,1
1956,-0.07,1645175645.421875,P13,D07,1,0,1
1957,-0.31,1645175645.4375,P13,D07,1,0,1
1958,-0.51,1645175645.453125,P13,D07,1,0,1
1959,-0.6,1645175645.46875,P13,D07,1,0,1
1960,-0.63,1645175645.484375,P13,D07,1,0,1
1961,-0.7,1645175645.5,P13,D07,1,0,1
1962,-0.9,1645175645.515625,P13,D07,1,0,1
1963,-1.24,1645175645.53125,P13,D07,1,0,1
1964,-1.63,1645175645.546875,P13,D07,1,0,1
1965,-1.87,1645175645.5625,P13,D07,1,0,1
1966,-1.83,1645175645.578125,P13,D07,1,0,1
1967,-1.46,1645175645.59375,P13,D07,1,0,1
1968,-0.88,1645175645.609375,P13,D07,1,0,1
1969,-0.32,1645175645.625,P13,D07,1,0,1
1970,0.03,1645175645.640625,P13,D07,1,0,1
1971,0.05,1645175645.65625,P13,D07,1,0,1
1972,-0.22,1645175645.671875,P13,D07,1,0,1
1973,-0.62,1645175645.6875,P13,D07,1,0,1
1974,-0.98,1645175645.703125,P13,D07,1,0,1
1975,-1.16,1645175645.71875,P13,D07,1,0,1
1976,-1.14,1645175645.734375,P13,D07,1,0,1
1977,-0.97,1645175645.75,P13,D07,1,0,1
1978,-0.75,1645175645.765625,P13,D07,1,0,1
1979,-0.57,1645175645.78125,P13,D07,1,0,1
1980,-0.49,1645175645.796875,P13,D07,1,0,1
1981,-0.5,1645175645.8125,P13,D07,1,0,1
1982,-0.56,1645175645.828125,P13,D07,1,0,1
1983,-0.64,1645175645.84375,P13,D07,1,0,1
1984,-0.69,1645175645.859375,P13,D07,1,0,1
1985,-0.68,1645175645.875,P13,D07,1,0,1
1986,-0.61,1645175645.890625,P13,D07,1,0,1
1987,-0.48,1645175645.90625,P13,D07,1,0,1
1988,-0.31,1645175645.921875,P13,D07,1,0,1
1989,-0.12,1645175645.9375,P13,D07,1,0,1
1990,0.08,1645175645.953125,P13,D07,1,0,1
1991,0.28,1645175645.96875,P13,D07,1,0,1
1992,0.46,1645175645.984375,P13,D07,1,0,1
1993,0.61,1645175646.0,P13,D07,1,0,1
1994,0.72,1645175646.015625,P13,D07,1,0,1
1995,0.78,1645175646.03125,P13,D07,1,0,1
1996,0.79,1645175646.046875,P13,D07,1,0,1
1997,0.74,1645175646.0625,P13,D07,1,0,1
1998,0.63,1645175646.078125,P13,D07,1,0,1
1999,0.5,1645175646.09375,P13,D07,1,0,1
2000,0.4,1645175646.109375,P13,D07,1,0,1
2001,0.39,1645175646.125,P13,D07,1,0,1
2002,0.51,1645175646.140625,P13,D07,1,0,1
2003,0.77,1645175646.15625,P13,D07,1,0,1
2004,1.08,1645175646.171875,P13,D07,1,0,1
2005,1.38,1645175646.1875,P13,D07,1,0,1
2006,1.57,1645175646.203125,P13,D07,1,0,1
2007,1.59,1645175646.21875,P13,D07,1,0,1
2008,1.44,1645175646.234375,P13,D07,1,0,1
2009,1.13,1645175646.25,P13,D07,1,0,1
2010,0.72,1645175646.265625,P13,D07,1,0,1
2011,0.28,1645175646.28125,P13,D07,1,0,1
2012,-0.13,1645175646.296875,P13,D07,1,0,1
2013,-0.44,1645175646.3125,P13,D07,1,0,1
2014,-0.62,1645175646.328125,P13,D07,1,0,1
2015,-0.62,1645175646.34375,P13,D07,1,0,1
2016,-0.42,1645175646.359375,P13,D07,1,0,1
2017,-0.07,1645175646.375,P13,D07,1,0,1
2018,0.35,1645175646.390625,P13,D07,1,0,1
2019,0.72,1645175646.40625,P13,D07,1,0,1
2020,0.91,1645175646.421875,P13,D07,1,0,1
2021,0.85,1645175646.4375,P13,D07,1,0,1
2022,0.56,1645175646.453125,P13,D07,1,0,1
2023,0.17,1645175646.46875,P13,D07,1,0,1
2024,-0.15,1645175646.484375,P13,D07,1,0,1
2025,-0.25,1645175646.5,P13,D07,1,0,1
2026,-0.07,1645175646.515625,P13,D07,1,0,1
2027,0.33,1645175646.53125,P13,D07,1,0,1
2028,0.77,1645175646.546875,P13,D07,1,0,1
2029,1.1,1645175646.5625,P13,D07,1,0,1
2030,1.22,1645175646.578125,P13,D07,1,0,1
2031,1.16,1645175646.59375,P13,D07,1,0,1
2032,1.0,1645175646.609375,P13,D07,1,0,1
2033,0.84,1645175646.625,P13,D07,1,0,1
2034,0.7,1645175646.640625,P13,D07,1,0,1
2035,0.56,1645175646.65625,P13,D07,1,0,1
2036,0.39,1645175646.671875,P13,D07,1,0,1
2037,0.18,1645175646.6875,P13,D07,1,0,1
2038,-0.03,1645175646.703125,P13,D07,1,0,1
2039,-0.17,1645175646.71875,P13,D07,1,0,1
2040,-0.21,1645175646.734375,P13,D07,1,0,1
2041,-0.17,1645175646.75,P13,D07,1,0,1
2042,-0.1,1645175646.765625,P13,D07,1,0,1
2043,-0.09,1645175646.78125,P13,D07,1,0,1
2044,-0.17,1645175646.796875,P13,D07,1,0,1
2045,-0.36,1645175646.8125,P13,D07,1,0,1
2046,-0.58,1645175646.828125,P13,D07,1,0,1
2047,-0.77,1645175646.84375,P13,D07,1,0,1
2048,-0.88,1645175646.859375,P13,D07,1,0,1
2049,-0.89,1645175646.875,P13,D07,1,0,1
2050,-0.83,1645175646.890625,P13,D07,1,0,1
2051,-0.74,1645175646.90625,P13,D07,1,0,1
2052,-0.64,1645175646.921875,P13,D07,1,0,1
2053,-0.55,1645175646.9375,P13,D07,1,0,1
2054,-0.49,1645175646.953125,P13,D07,1,0,1
2055,-0.45,1645175646.96875,P13,D07,1,0,1
2056,-0.45,1645175646.984375,P13,D07,1,0,1
2057,-0.51,1645175647.0,P13,D07,1,0,1
2058,-0.6,1645175647.015625,P13,D07,1,0,1
2059,-0.7,1645175647.03125,P13,D07,1,0,1
2060,-0.77,1645175647.046875,P13,D07,1,0,1
2061,-0.73,1645175647.0625,P13,D07,1,0,1
2062,-0.56,1645175647.078125,P13,D07,1,0,1
2063,-0.28,1645175647.09375,P13,D07,1,0,1
2064,0.04,1645175647.109375,P13,D07,1,0,1
2065,0.29,1645175647.125,P13,D07,1,0,1
2066,0.39,1645175647.140625,P13,D07,1,0,1
2067,0.32,1645175647.15625,P13,D07,1,0,1
2068,0.13,1645175647.171875,P13,D07,1,0,1
2069,-0.05,1645175647.1875,P13,D07,1,0,1
2070,-0.11,1645175647.203125,P13,D07,1,0,1
2071,0.01,1645175647.21875,P13,D07,1,0,1
2072,0.3,1645175647.234375,P13,D07,1,0,1
2073,0.66,1645175647.25,P13,D07,1,0,1
2074,0.96,1645175647.265625,P13,D07,1,0,1
2075,1.11,1645175647.28125,P13,D07,1,0,1
2076,1.08,1645175647.296875,P13,D07,1,0,1
2077,0.92,1645175647.3125,P13,D07,1,0,1
2078,0.69,1645175647.328125,P13,D07,1,0,1
2079,0.43,1645175647.34375,P13,D07,1,0,1
2080,0.2,1645175647.359375,P13,D07,1,0,1
2081,0.02,1645175647.375,P13,D07,1,0,1
2082,-0.07,1645175647.390625,P13,D07,1,0,1
2083,-0.05,1645175647.40625,P13,D07,1,0,1
2084,0.09,1645175647.421875,P13,D07,1,0,1
2085,0.29,1645175647.4375,P13,D07,1,0,1
2086,0.45,1645175647.453125,P13,D07,1,0,1
2087,0.48,1645175647.46875,P13,D07,1,0,1
2088,0.32,1645175647.484375,P13,D07,1,0,1
2089,-0.0,1645175647.5,P13,D07,1,0,1
2090,-0.39,1645175647.515625,P13,D07,1,0,1
2091,-0.73,1645175647.53125,P13,D07,1,0,1
2092,-0.95,1645175647.546875,P13,D07,1,0,1
2093,-1.03,1645175647.5625,P13,D07,1,0,1
2094,-1.0,1645175647.578125,P13,D07,1,0,1
2095,-0.94,1645175647.59375,P13,D07,1,0,1
2096,-0.87,1645175647.609375,P13,D07,1,0,1
2097,-0.8,1645175647.625,P13,D07,1,0,1
2098,-0.68,1645175647.640625,P13,D07,1,0,1
2099,-0.48,1645175647.65625,P13,D07,1,0,1
2100,-0.21,1645175647.671875,P13,D07,1,0,1
2101,0.11,1645175647.6875,P13,D07,1,0,1
2102,0.44,1645175647.703125,P13,D07,1,0,1
2103,0.73,1645175647.71875,P13,D07,1,0,1
2104,0.95,1645175647.734375,P13,D07,1,0,1
2105,1.1,1645175647.75,P13,D07,1,0,1
2106,1.18,1645175647.765625,P13,D07,1,0,1
2107,1.18,1645175647.78125,P13,D07,1,0,1
2108,1.08,1645175647.796875,P13,D07,1,0,1
2109,0.86,1645175647.8125,P13,D07,1,0,1
2110,0.55,1645175647.828125,P13,D07,1,0,1
2111,0.17,1645175647.84375,P13,D07,1,0,1
2112,-0.22,1645175647.859375,P13,D07,1,0,1
2113,-0.57,1645175647.875,P13,D07,1,0,1
2114,-0.83,1645175647.890625,P13,D07,1,0,1
2115,-0.95,1645175647.90625,P13,D07,1,0,1
2116,-0.93,1645175647.921875,P13,D07,1,0,1
2117,-0.8,1645175647.9375,P13,D07,1,0,1
2118,-0.6,1645175647.953125,P13,D07,1,0,1
2119,-0.41,1645175647.96875,P13,D07,1,0,1
2120,-0.3,1645175647.984375,P13,D07,1,0,1
2121,-0.31,1645175648.0,P13,D07,1,0,1
2122,-0.43,1645175648.015625,P13,D07,1,0,1
2123,-0.63,1645175648.03125,P13,D07,1,0,1
2124,-0.85,1645175648.046875,P13,D07,1,0,1
2125,-1.06,1645175648.0625,P13,D07,1,0,1
2126,-1.24,1645175648.078125,P13,D07,1,0,1
2127,-1.4,1645175648.09375,P13,D07,1,0,1
2128,-1.53,1645175648.109375,P13,D07,1,0,1
2129,-1.65,1645175648.125,P13,D07,1,0,1
2130,-1.75,1645175648.140625,P13,D07,1,0,1
2131,-1.83,1645175648.15625,P13,D07,1,0,1
2132,-1.91,1645175648.171875,P13,D07,1,0,1
2133,-1.99,1645175648.1875,P13,D07,1,0,1
2134,-2.07,1645175648.203125,P13,D07,1,0,1
2135,-2.17,1645175648.21875,P13,D07,1,0,1
2136,-2.28,1645175648.234375,P13,D07,1,0,1
2137,-2.42,1645175648.25,P13,D07,1,0,1
2138,-2.63,1645175648.265625,P13,D07,1,0,1
2139,-2.94,1645175648.28125,P13,D07,1,0,1
2140,-3.35,1645175648.296875,P13,D07,1,0,1
2141,-3.83,1645175648.3125,P13,D07,1,0,1
2142,-4.29,1645175648.328125,P13,D07,1,0,1
2143,-4.69,1645175648.34375,P13,D07,1,0,1
2144,-5.02,1645175648.359375,P13,D07,1,0,1
2145,-5.35,1645175648.375,P13,D07,1,0,1
2146,-5.73,1645175648.390625,P13,D07,1,0,1
2147,-6.18,1645175648.40625,P13,D07,1,0,1
2148,-6.59,1645175648.421875,P13,D07,1,0,1
2149,-6.84,1645175648.4375,P13,D07,1,0,1
2150,-6.84,1645175648.453125,P13,D07,1,0,1
2151,-6.68,1645175648.46875,P13,D07,1,0,1
2152,-6.66,1645175648.484375,P13,D07,1,0,1
2153,-7.12,1645175648.5,P13,D07,1,0,1
2154,-8.3,1645175648.515625,P13,D07,1,0,1
2155,-10.1,1645175648.53125,P13,D07,1,0,1
2156,-12.15,1645175648.546875,P13,D07,1,0,1
2157,-13.92,1645175648.5625,P13,D07,1,0,1
2158,-15.02,1645175648.578125,P13,D07,1,0,1
2159,-15.4,1645175648.59375,P13,D07,1,0,1
2160,-15.4,1645175648.609375,P13,D07,1,0,1
2161,-15.55,1645175648.625,P13,D07,1,0,1
2162,-16.34,1645175648.640625,P13,D07,1,0,1
2163,-17.92,1645175648.65625,P13,D07,1,0,1
2164,-20.08,1645175648.671875,P13,D07,1,0,1
2165,-22.35,1645175648.6875,P13,D07,1,0,1
2166,-24.22,1645175648.703125,P13,D07,1,0,1
2167,-25.43,1645175648.71875,P13,D07,1,0,1
2168,-26.04,1645175648.734375,P13,D07,1,0,1
2169,-26.42,1645175648.75,P13,D07,1,0,1
2170,-27.04,1645175648.765625,P13,D07,1,0,1
2171,-28.36,1645175648.78125,P13,D07,1,0,1
2172,-30.6,1645175648.796875,P13,D07,1,0,1
2173,-33.62,1645175648.8125,P13,D07,1,0,1
2174,-36.88,1645175648.828125,P13,D07,1,0,1
2175,-39.39,1645175648.84375,P13,D07,1,0,1
2176,-39.72,1645175648.859375,P13,D07,1,0,1
2177,-36.27,1645175648.875,P13,D07,1,0,1
2178,-27.64,1645175648.890625,P13,D07,1,0,1
2179,-13.25,1645175648.90625,P13,D07,1,0,1
2180,6.22,1645175648.921875,P13,D07,1,0,1
2181,28.74,1645175648.9375,P13,D07,1,0,1
2182,51.3,1645175648.953125,P13,D07,1,0,1
2183,70.8,1645175648.96875,P13,D07,1,0,1
2184,84.86,1645175648.984375,P13,D07,1,0,1
2185,92.47,1645175649.0,P13,D07,1,0,1
2186,93.99,1645175649.015625,P13,D07,1,0,1
2187,90.68,1645175649.03125,P13,D07,1,0,1
2188,84.1,1645175649.046875,P13,D07,1,0,1
2189,75.56,1645175649.0625,P13,D07,1,0,1
2190,65.95,1645175649.078125,P13,D07,1,0,1
2191,55.9,1645175649.09375,P13,D07,1,0,1
2192,45.93,1645175649.109375,P13,D07,1,0,1
2193,36.58,1645175649.125,P13,D07,1,0,1
2194,28.33,1645175649.140625,P13,D07,1,0,1
2195,21.47,1645175649.15625,P13,D07,1,0,1
2196,16.04,1645175649.171875,P13,D07,1,0,1
2197,11.84,1645175649.1875,P13,D07,1,0,1
2198,8.65,1645175649.203125,P13,D07,1,0,1
2199,6.24,1645175649.21875,P13,D07,1,0,1
2200,4.45,1645175649.234375,P13,D07,1,0,1
2201,3.12,1645175649.25,P13,D07,1,0,1
2202,2.01,1645175649.265625,P13,D07,1,0,1
2203,0.8,1645175649.28125,P13,D07,1,0,1
2204,-0.83,1645175649.296875,P13,D07,1,0,1
2205,-3.09,1645175649.3125,P13,D07,1,0,1
2206,-6.01,1645175649.328125,P13,D07,1,0,1
2207,-9.36,1645175649.34375,P13,D07,1,0,1
2208,-12.8,1645175649.359375,P13,D07,1,0,1
2209,-15.9,1645175649.375,P13,D07,1,0,1
2210,-18.38,1645175649.390625,P13,D07,1,0,1
2211,-20.2,1645175649.40625,P13,D07,1,0,1
2212,-21.56,1645175649.421875,P13,D07,1,0,1
2213,-22.84,1645175649.4375,P13,D07,1,0,1
2214,-24.42,1645175649.453125,P13,D07,1,0,1
2215,-26.4,1645175649.46875,P13,D07,1,0,1
2216,-28.59,1645175649.484375,P13,D07,1,0,1
2217,-30.5,1645175649.5,P13,D07,1,0,1
2218,-31.66,1645175649.515625,P13,D07,1,0,1
2219,-31.87,1645175649.53125,P13,D07,1,0,1
2220,-31.37,1645175649.546875,P13,D07,1,0,1
2221,-30.82,1645175649.5625,P13,D07,1,0,1
2222,-30.96,1645175649.578125,P13,D07,1,0,1
2223,-32.34,1645175649.59375,P13,D07,1,0,1
2224,-35.05,1645175649.609375,P13,D07,1,0,1
2225,-38.71,1645175649.625,P13,D07,1,0,1
2226,-42.38,1645175649.640625,P13,D07,1,0,1
2227,-44.6,1645175649.65625,P13,D07,1,0,1
2228,-43.64,1645175649.671875,P13,D07,1,0,1
2229,-37.9,1645175649.6875,P13,D07,1,0,1
2230,-26.61,1645175649.703125,P13,D07,1,0,1
2231,-10.51,1645175649.71875,P13,D07,1,0,1
2232,8.07,1645175649.734375,P13,D07,1,0,1
2233,25.79,1645175649.75,P13,D07,1,0,1
2234,39.46,1645175649.765625,P13,D07,1,0,1
2235,47.27,1645175649.78125,P13,D07,1,0,1
2236,49.44,1645175649.796875,P13,D07,1,0,1
2237,47.9,1645175649.8125,P13,D07,1,0,1
2238,45.17,1645175649.828125,P13,D07,1,0,1
2239,42.95,1645175649.84375,P13,D07,1,0,1
2240,41.25,1645175649.859375,P13,D07,1,0,1
2241,38.52,1645175649.875,P13,D07,1,0,1
2242,32.58,1645175649.890625,P13,D07,1,0,1
2243,22.08,1645175649.90625,P13,D07,1,0,1
2244,7.37,1645175649.921875,P13,D07,1,0,1
2245,-9.47,1645175649.9375,P13,D07,1,0,1
2246,-25.5,1645175649.953125,P13,D07,1,0,1
2247,-38.29,1645175649.96875,P13,D07,1,0,1
2248,-46.93,1645175649.984375,P13,D07,1,0,1
2249,-52.27,1645175650.0,P13,D07,1,0,1
2250,-56.28,1645175650.015625,P13,D07,1,0,1
2251,-60.84,1645175650.03125,P13,D07,1,0,1
2252,-66.72,1645175650.046875,P13,D07,1,0,1
2253,-73.22,1645175650.0625,P13,D07,1,0,1
2254,-78.76,1645175650.078125,P13,D07,1,0,1
2255,-81.76,1645175650.09375,P13,D07,1,0,1
2256,-81.59,1645175650.109375,P13,D07,1,0,1
2257,-78.87,1645175650.125,P13,D07,1,0,1
2258,-75.19,1645175650.140625,P13,D07,1,0,1
2259,-72.36,1645175650.15625,P13,D07,1,0,1
2260,-71.97,1645175650.171875,P13,D07,1,0,1
2261,-74.96,1645175650.1875,P13,D07,1,0,1
2262,-81.4,1645175650.203125,P13,D07,1,0,1
2263,-90.26,1645175650.21875,P13,D07,1,0,1
2264,-99.22,1645175650.234375,P13,D07,1,0,1
2265,-104.55,1645175650.25,P13,D07,1,0,1
2266,-101.69,1645175650.265625,P13,D07,1,0,1
2267,-86.3,1645175650.28125,P13,D07,1,0,1
2268,-55.92,1645175650.296875,P13,D07,1,0,1
2269,-11.42,1645175650.3125,P13,D07,1,0,1
2270,42.49,1645175650.328125,P13,D07,1,0,1
2271,98.02,1645175650.34375,P13,D07,1,0,1
2272,146.33,1645175650.359375,P13,D07,1,0,1
2273,180.05,1645175650.375,P13,D07,1,0,1
2274,195.34,1645175650.390625,P13,D07,1,0,1
2275,192.64,1645175650.40625,P13,D07,1,0,1
2276,175.99,1645175650.421875,P13,D07,1,0,1
2277,151.29,1645175650.4375,P13,D07,1,0,1
2278,124.37,1645175650.453125,P13,D07,1,0,1
2279,99.56,1645175650.46875,P13,D07,1,0,1
2280,79.27,1645175650.484375,P13,D07,1,0,1
2281,64.26,1645175650.5,P13,D07,1,0,1
2282,54.3,1645175650.515625,P13,D07,1,0,1
2283,48.64,1645175650.53125,P13,D07,1,0,1
2284,46.18,1645175650.546875,P13,D07,1,0,1
2285,45.41,1645175650.5625,P13,D07,1,0,1
2286,44.48,1645175650.578125,P13,D07,1,0,1
2287,41.64,1645175650.59375,P13,D07,1,0,1
2288,35.78,1645175650.609375,P13,D07,1,0,1
2289,27.02,1645175650.625,P13,D07,1,0,1
2290,16.72,1645175650.640625,P13,D07,1,0,1
2291,6.99,1645175650.65625,P13,D07,1,0,1
2292,-0.15,1645175650.671875,P13,D07,1,0,1
2293,-3.68,1645175650.6875,P13,D07,1,0,1
2294,-3.85,1645175650.703125,P13,D07,1,0,1
2295,-2.01,1645175650.71875,P13,D07,1,0,1
2296,0.1,1645175650.734375,P13,D07,1,0,1
2297,1.13,1645175650.75,P13,D07,1,0,1
2298,0.59,1645175650.765625,P13,D07,1,0,1
2299,-1.15,1645175650.78125,P13,D07,1,0,1
2300,-3.17,1645175650.796875,P13,D07,1,0,1
2301,-4.56,1645175650.8125,P13,D07,1,0,1
2302,-4.89,1645175650.828125,P13,D07,1,0,1
2303,-4.32,1645175650.84375,P13,D07,1,0,1
2304,-3.49,1645175650.859375,P13,D07,1,0,1
2305,-3.13,1645175650.875,P13,D07,1,0,1
2306,-3.73,1645175650.890625,P13,D07,1,0,1
2307,-5.31,1645175650.90625,P13,D07,1,0,1
2308,-7.39,1645175650.921875,P13,D07,1,0,1
2309,-9.29,1645175650.9375,P13,D07,1,0,1
2310,-10.42,1645175650.953125,P13,D07,1,0,1
2311,-10.55,1645175650.96875,P13,D07,1,0,1
2312,-9.88,1645175650.984375,P13,D07,1,0,1
2313,-8.89,1645175651.0,P13,D07,1,0,1
2314,-8.03,1645175651.015625,P13,D07,1,0,1
2315,-7.57,1645175651.03125,P13,D07,1,0,1
2316,-7.45,1645175651.046875,P13,D07,1,0,1
2317,-7.45,1645175651.0625,P13,D07,1,0,1
2318,-7.32,1645175651.078125,P13,D07,1,0,1
2319,-6.94,1645175651.09375,P13,D07,1,0,1
2320,-6.35,1645175651.109375,P13,D07,1,0,1
2321,-5.64,1645175651.125,P13,D07,1,0,1
2322,-4.93,1645175651.140625,P13,D07,1,0,1
2323,-4.26,1645175651.15625,P13,D07,1,0,1
2324,-3.61,1645175651.171875,P13,D07,1,0,1
2325,-2.97,1645175651.1875,P13,D07,1,0,1
2326,-2.36,1645175651.203125,P13,D07,1,0,1
2327,-1.86,1645175651.21875,P13,D07,1,0,1
2328,-1.52,1645175651.234375,P13,D07,1,0,1
2329,-1.36,1645175651.25,P13,D07,1,0,1
2330,-1.29,1645175651.265625,P13,D07,1,0,1
2331,-1.2,1645175651.28125,P13,D07,1,0,1
2332,-0.99,1645175651.296875,P13,D07,1,0,1
2333,-0.63,1645175651.3125,P13,D07,1,0,1
2334,-0.18,1645175651.328125,P13,D07,1,0,1
2335,0.25,1645175651.34375,P13,D07,1,0,1
2336,0.53,1645175651.359375,P13,D07,1,0,1
2337,0.64,1645175651.375,P13,D07,1,0,1
2338,0.62,1645175651.390625,P13,D07,1,0,1
2339,0.59,1645175651.40625,P13,D07,1,0,1
2340,0.65,1645175651.421875,P13,D07,1,0,1
2341,0.84,1645175651.4375,P13,D07,1,0,1
2342,1.12,1645175651.453125,P13,D07,1,0,1
2343,1.42,1645175651.46875,P13,D07,1,0,1
2344,1.65,1645175651.484375,P13,D07,1,0,1
2345,1.77,1645175651.5,P13,D07,1,0,1
2346,1.77,1645175651.515625,P13,D07,1,0,1
2347,1.65,1645175651.53125,P13,D07,1,0,1
2348,1.44,1645175651.546875,P13,D07,1,0,1
2349,1.17,1645175651.5625,P13,D07,1,0,1
2350,0.88,1645175651.578125,P13,D07,1,0,1
2351,0.59,1645175651.59375,P13,D07,1,0,1
2352,0.31,1645175651.609375,P13,D07,1,0,1
2353,-0.01,1645175651.625,P13,D07,1,0,1
2354,-0.42,1645175651.640625,P13,D07,1,0,1
2355,-0.95,1645175651.65625,P13,D07,1,0,1
2356,-1.54,1645175651.671875,P13,D07,1,0,1
2357,-2.11,1645175651.6875,P13,D07,1,0,1
2358,-2.51,1645175651.703125,P13,D07,1,0,1
2359,-2.64,1645175651.71875,P13,D07,1,0,1
2360,-2.48,1645175651.734375,P13,D07,1,0,1
2361,-2.06,1645175651.75,P13,D07,1,0,1
2362,-1.48,1645175651.765625,P13,D07,1,0,1
2363,-0.83,1645175651.78125,P13,D07,1,0,1
2364,-0.22,1645175651.796875,P13,D07,1,0,1
2365,0.29,1645175651.8125,P13,D07,1,0,1
2366,0.66,1645175651.828125,P13,D07,1,0,1
2367,0.85,1645175651.84375,P13,D07,1,0,1
2368,0.87,1645175651.859375,P13,D07,1,0,1
2369,0.75,1645175651.875,P13,D07,1,0,1
2370,0.55,1645175651.890625,P13,D07,1,0,1
2371,0.28,1645175651.90625,P13,D07,1,0,1
2372,-0.01,1645175651.921875,P13,D07,1,0,1
2373,-0.31,1645175651.9375,P13,D07,1,0,1
2374,-0.58,1645175651.953125,P13,D07,1,0,1
2375,-0.8,1645175651.96875,P13,D07,1,0,1
2376,-0.91,1645175651.984375,P13,D07,1,0,1
2377,-0.91,1645175652.0,P13,D07,1,0,1
2378,-0.79,1645175652.015625,P13,D07,1,0,1
2379,-0.59,1645175652.03125,P13,D07,1,0,1
2380,-0.39,1645175652.046875,P13,D07,1,0,1
2381,-0.27,1645175652.0625,P13,D07,1,0,1
2382,-0.27,1645175652.078125,P13,D07,1,0,1
2383,-0.37,1645175652.09375,P13,D07,1,0,1
2384,-0.48,1645175652.109375,P13,D07,1,0,1
2385,-0.5,1645175652.125,P13,D07,1,0,1
2386,-0.38,1645175652.140625,P13,D07,1,0,1
2387,-0.13,1645175652.15625,P13,D07,1,0,1
2388,0.14,1645175652.171875,P13,D07,1,0,1
2389,0.31,1645175652.1875,P13,D07,1,0,1
2390,0.3,1645175652.203125,P13,D07,1,0,1
2391,0.11,1645175652.21875,P13,D07,1,0,1
2392,-0.19,1645175652.234375,P13,D07,1,0,1
2393,-0.49,1645175652.25,P13,D07,1,0,1
2394,-0.74,1645175652.265625,P13,D07,1,0,1
2395,-0.92,1645175652.28125,P13,D07,1,0,1
2396,-1.04,1645175652.296875,P13,D07,1,0,1
2397,-1.09,1645175652.3125,P13,D07,1,0,1
2398,-1.04,1645175652.328125,P13,D07,1,0,1
2399,-0.83,1645175652.34375,P13,D07,1,0,1
2400,-0.44,1645175652.359375,P13,D07,1,0,1
2401,0.05,1645175652.375,P13,D07,1,0,1
2402,0.48,1645175652.390625,P13,D07,1,0,1
2403,0.67,1645175652.40625,P13,D07,1,0,1
2404,0.5,1645175652.421875,P13,D07,1,0,1
2405,0.01,1645175652.4375,P13,D07,1,0,1
2406,-0.61,1645175652.453125,P13,D07,1,0,1
2407,-1.14,1645175652.46875,P13,D07,1,0,1
2408,-1.4,1645175652.484375,P13,D07,1,0,1
2409,-1.32,1645175652.5,P13,D07,1,0,1
2410,-1.02,1645175652.515625,P13,D07,1,0,1
2411,-0.61,1645175652.53125,P13,D07,1,0,1
2412,-0.23,1645175652.546875,P13,D07,1,0,1
2413,0.08,1645175652.5625,P13,D07,1,0,1
2414,0.3,1645175652.578125,P13,D07,1,0,1
2415,0.44,1645175652.59375,P13,D07,1,0,1
2416,0.43,1645175652.609375,P13,D07,1,0,1
2417,0.21,1645175652.625,P13,D07,1,0,1
2418,-0.24,1645175652.640625,P13,D07,1,0,1
2419,-0.83,1645175652.65625,P13,D07,1,0,1
2420,-1.37,1645175652.671875,P13,D07,1,0,1
2421,-1.64,1645175652.6875,P13,D07,1,0,1
2422,-1.5,1645175652.703125,P13,D07,1,0,1
2423,-0.99,1645175652.71875,P13,D07,1,0,1
2424,-0.29,1645175652.734375,P13,D07,1,0,1
2425,0.36,1645175652.75,P13,D07,1,0,1
2426,0.75,1645175652.765625,P13,D07,1,0,1
2427,0.78,1645175652.78125,P13,D07,1,0,1
2428,0.5,1645175652.796875,P13,D07,1,0,1
2429,0.05,1645175652.8125,P13,D07,1,0,1
2430,-0.4,1645175652.828125,P13,D07,1,0,1
2431,-0.73,1645175652.84375,P13,D07,1,0,1
2432,-0.86,1645175652.859375,P13,D07,1,0,1
2433,-0.79,1645175652.875,P13,D07,1,0,1
2434,-0.55,1645175652.890625,P13,D07,1,0,1
2435,-0.2,1645175652.90625,P13,D07,1,0,1
2436,0.21,1645175652.921875,P13,D07,1,0,1
2437,0.58,1645175652.9375,P13,D07,1,0,1
2438,0.83,1645175652.953125,P13,D07,1,0,1
2439,0.89,1645175652.96875,P13,D07,1,0,1
2440,0.77,1645175652.984375,P13,D07,1,0,1
2441,0.51,1645175653.0,P13,D07,1,0,1
2442,0.2,1645175653.015625,P13,D07,1,0,1
2443,-0.08,1645175653.03125,P13,D07,1,0,1
2444,-0.31,1645175653.046875,P13,D07,1,0,1
2445,-0.47,1645175653.0625,P13,D07,1,0,1
2446,-0.63,1645175653.078125,P13,D07,1,0,1
2447,-0.79,1645175653.09375,P13,D07,1,0,1
2448,-0.94,1645175653.109375,P13,D07,1,0,1
2449,-0.97,1645175653.125,P13,D07,1,0,1
2450,-0.81,1645175653.140625,P13,D07,1,0,1
2451,-0.42,1645175653.15625,P13,D07,1,0,1
2452,0.14,1645175653.171875,P13,D07,1,0,1
2453,0.72,1645175653.1875,P13,D07,1,0,1
2454,1.17,1645175653.203125,P13,D07,1,0,1
2455,1.35,1645175653.21875,P13,D07,1,0,1
2456,1.26,1645175653.234375,P13,D07,1,0,1
2457,0.94,1645175653.25,P13,D07,1,0,1
2458,0.5,1645175653.265625,P13,D07,1,0,1
2459,0.05,1645175653.28125,P13,D07,1,0,1
2460,-0.35,1645175653.296875,P13,D07,1,0,1
2461,-0.64,1645175653.3125,P13,D07,1,0,1
2462,-0.78,1645175653.328125,P13,D07,1,0,1
2463,-0.75,1645175653.34375,P13,D07,1,0,1
2464,-0.54,1645175653.359375,P13,D07,1,0,1
2465,-0.19,1645175653.375,P13,D07,1,0,1
2466,0.21,1645175653.390625,P13,D07,1,0,1
2467,0.59,1645175653.40625,P13,D07,1,0,1
2468,0.85,1645175653.421875,P13,D07,1,0,1
2469,0.98,1645175653.4375,P13,D07,1,0,1
2470,0.94,1645175653.453125,P13,D07,1,0,1
2471,0.76,1645175653.46875,P13,D07,1,0,1
2472,0.49,1645175653.484375,P13,D07,1,0,1
2473,0.19,1645175653.5,P13,D07,1,0,1
2474,-0.02,1645175653.515625,P13,D07,1,0,1
2475,-0.06,1645175653.53125,P13,D07,1,0,1
2476,0.13,1645175653.546875,P13,D07,1,0,1
2477,0.49,1645175653.5625,P13,D07,1,0,1
2478,0.87,1645175653.578125,P13,D07,1,0,1
2479,1.15,1645175653.59375,P13,D07,1,0,1
2480,1.22,1645175653.609375,P13,D07,1,0,1
2481,1.1,1645175653.625,P13,D07,1,0,1
2482,0.88,1645175653.640625,P13,D07,1,0,1
2483,0.61,1645175653.65625,P13,D07,1,0,1
2484,0.36,1645175653.671875,P13,D07,1,0,1
2485,0.1,1645175653.6875,P13,D07,1,0,1
2486,-0.18,1645175653.703125,P13,D07,1,0,1
2487,-0.48,1645175653.71875,P13,D07,1,0,1
2488,-0.74,1645175653.734375,P13,D07,1,0,1
2489,-0.88,1645175653.75,P13,D07,1,0,1
2490,-0.86,1645175653.765625,P13,D07,1,0,1
2491,-0.71,1645175653.78125,P13,D07,1,0,1
2492,-0.52,1645175653.796875,P13,D07,1,0,1
2493,-0.4,1645175653.8125,P13,D07,1,0,1
2494,-0.38,1645175653.828125,P13,D07,1,0,1
2495,-0.44,1645175653.84375,P13,D07,1,0,1
2496,-0.51,1645175653.859375,P13,D07,1,0,1
2497,-0.52,1645175653.875,P13,D07,1,0,1
2498,-0.43,1645175653.890625,P13,D07,1,0,1
2499,-0.21,1645175653.90625,P13,D07,1,0,1
2500,0.12,1645175653.921875,P13,D07,1,0,1
2501,0.52,1645175653.9375,P13,D07,1,0,1
2502,0.94,1645175653.953125,P13,D07,1,0,1
2503,1.3,1645175653.96875,P13,D07,1,0,1
2504,1.52,1645175653.984375,P13,D07,1,0,1
2505,1.59,1645175654.0,P13,D07,1,0,1
2506,1.56,1645175654.015625,P13,D07,1,0,1
2507,1.52,1645175654.03125,P13,D07,1,0,1
2508,1.56,1645175654.046875,P13,D07,1,0,1
2509,1.67,1645175654.0625,P13,D07,1,0,1
2510,1.79,1645175654.078125,P13,D07,1,0,1
2511,1.83,1645175654.09375,P13,D07,1,0,1
2512,1.68,1645175654.109375,P13,D07,1,0,1
2513,1.34,1645175654.125,P13,D07,1,0,1
2514,0.86,1645175654.140625,P13,D07,1,0,1
2515,0.36,1645175654.15625,P13,D07,1,0,1
2516,-0.09,1645175654.171875,P13,D07,1,0,1
2517,-0.42,1645175654.1875,P13,D07,1,0,1
2518,-0.58,1645175654.203125,P13,D07,1,0,1
2519,-0.57,1645175654.21875,P13,D07,1,0,1
2520,-0.39,1645175654.234375,P13,D07,1,0,1
2521,-0.09,1645175654.25,P13,D07,1,0,1
2522,0.23,1645175654.265625,P13,D07,1,0,1
2523,0.47,1645175654.28125,P13,D07,1,0,1
2524,0.53,1645175654.296875,P13,D07,1,0,1
2525,0.38,1645175654.3125,P13,D07,1,0,1
2526,0.11,1645175654.328125,P13,D07,1,0,1
2527,-0.21,1645175654.34375,P13,D07,1,0,1
2528,-0.47,1645175654.359375,P13,D07,1,0,1
2529,-0.64,1645175654.375,P13,D07,1,0,1
2530,-0.73,1645175654.390625,P13,D07,1,0,1
2531,-0.77,1645175654.40625,P13,D07,1,0,1
2532,-0.77,1645175654.421875,P13,D07,1,0,1
2533,-0.73,1645175654.4375,P13,D07,1,0,1
2534,-0.62,1645175654.453125,P13,D07,1,0,1
2535,-0.43,1645175654.46875,P13,D07,1,0,1
2536,-0.18,1645175654.484375,P13,D07,1,0,1
2537,0.1,1645175654.5,P13,D07,1,0,1
2538,0.36,1645175654.515625,P13,D07,1,0,1
2539,0.57,1645175654.53125,P13,D07,1,0,1
2540,0.74,1645175654.546875,P13,D07,1,0,1
2541,0.89,1645175654.5625,P13,D07,1,0,1
2542,1.04,1645175654.578125,P13,D07,1,0,1
2543,1.17,1645175654.59375,P13,D07,1,0,1
2544,1.26,1645175654.609375,P13,D07,1,0,1
2545,1.25,1645175654.625,P13,D07,1,0,1
2546,1.11,1645175654.640625,P13,D07,1,0,1
2547,0.86,1645175654.65625,P13,D07,1,0,1
2548,0.55,1645175654.671875,P13,D07,1,0,1
2549,0.27,1645175654.6875,P13,D07,1,0,1
2550,0.11,1645175654.703125,P13,D07,1,0,1
2551,0.09,1645175654.71875,P13,D07,1,0,1
2552,0.2,1645175654.734375,P13,D07,1,0,1
2553,0.36,1645175654.75,P13,D07,1,0,1
2554,0.47,1645175654.765625,P13,D07,1,0,1
2555,0.47,1645175654.78125,P13,D07,1,0,1
2556,0.32,1645175654.796875,P13,D07,1,0,1
2557,0.07,1645175654.8125,P13,D07,1,0,1
2558,-0.18,1645175654.828125,P13,D07,1,0,1
2559,-0.34,1645175654.84375,P13,D07,1,0,1
2560,-0.34,1645175654.859375,P13,D07,1,0,1
2561,-0.17,1645175654.875,P13,D07,1,0,1
2562,0.09,1645175654.890625,P13,D07,1,0,1
2563,0.34,1645175654.90625,P13,D07,1,0,1
2564,0.48,1645175654.921875,P13,D07,1,0,1
2565,0.48,1645175654.9375,P13,D07,1,0,1
2566,0.35,1645175654.953125,P13,D07,1,0,1
2567,0.14,1645175654.96875,P13,D07,1,0,1
2568,-0.12,1645175654.984375,P13,D07,1,0,1
2569,-0.43,1645175655.0,P13,D07,1,0,1
2570,-0.79,1645175655.015625,P13,D07,1,0,1
2571,-1.18,1645175655.03125,P13,D07,1,0,1
2572,-1.57,1645175655.046875,P13,D07,1,0,1
2573,-1.86,1645175655.0625,P13,D07,1,0,1
2574,-1.97,1645175655.078125,P13,D07,1,0,1
2575,-1.9,1645175655.09375,P13,D07,1,0,1
2576,-1.69,1645175655.109375,P13,D07,1,0,1
2577,-1.41,1645175655.125,P13,D07,1,0,1
2578,-1.14,1645175655.140625,P13,D07,1,0,1
2579,-0.93,1645175655.15625,P13,D07,1,0,1
2580,-0.75,1645175655.171875,P13,D07,1,0,1
2581,-0.58,1645175655.1875,P13,D07,1,0,1
2582,-0.4,1645175655.203125,P13,D07,1,0,1
2583,-0.25,1645175655.21875,P13,D07,1,0,1
2584,-0.16,1645175655.234375,P13,D07,1,0,1
2585,-0.15,1645175655.25,P13,D07,1,0,1
2586,-0.22,1645175655.265625,P13,D07,1,0,1
2587,-0.33,1645175655.28125,P13,D07,1,0,1
2588,-0.44,1645175655.296875,P13,D07,1,0,1
2589,-0.5,1645175655.3125,P13,D07,1,0,1
2590,-0.53,1645175655.328125,P13,D07,1,0,1
2591,-0.51,1645175655.34375,P13,D07,1,0,1
2592,-0.44,1645175655.359375,P13,D07,1,0,1
2593,-0.3,1645175655.375,P13,D07,1,0,1
2594,-0.1,1645175655.390625,P13,D07,1,0,1
2595,0.13,1645175655.40625,P13,D07,1,0,1
2596,0.32,1645175655.421875,P13,D07,1,0,1
2597,0.38,1645175655.4375,P13,D07,1,0,1
2598,0.26,1645175655.453125,P13,D07,1,0,1
2599,-0.04,1645175655.46875,P13,D07,1,0,1
2600,-0.43,1645175655.484375,P13,D07,1,0,1
2601,-0.76,1645175655.5,P13,D07,1,0,1
2602,-0.93,1645175655.515625,P13,D07,1,0,1
2603,-0.87,1645175655.53125,P13,D07,1,0,1
2604,-0.63,1645175655.546875,P13,D07,1,0,1
2605,-0.29,1645175655.5625,P13,D07,1,0,1
2606,0.02,1645175655.578125,P13,D07,1,0,1
2607,0.24,1645175655.59375,P13,D07,1,0,1
2608,0.35,1645175655.609375,P13,D07,1,0,1
2609,0.42,1645175655.625,P13,D07,1,0,1
2610,0.47,1645175655.640625,P13,D07,1,0,1
2611,0.51,1645175655.65625,P13,D07,1,0,1
2612,0.5,1645175655.671875,P13,D07,1,0,1
2613,0.4,1645175655.6875,P13,D07,1,0,1
2614,0.22,1645175655.703125,P13,D07,1,0,1
2615,0.02,1645175655.71875,P13,D07,1,0,1
2616,-0.09,1645175655.734375,P13,D07,1,0,1
2617,-0.04,1645175655.75,P13,D07,1,0,1
2618,0.16,1645175655.765625,P13,D07,1,0,1
2619,0.41,1645175655.78125,P13,D07,1,0,1
2620,0.56,1645175655.796875,P13,D07,1,0,1
2621,0.54,1645175655.8125,P13,D07,1,0,1
2622,0.37,1645175655.828125,P13,D07,1,0,1
2623,0.13,1645175655.84375,P13,D07,1,0,1
2624,-0.05,1645175655.859375,P13,D07,1,0,1
2625,-0.12,1645175655.875,P13,D07,1,0,1
2626,-0.08,1645175655.890625,P13,D07,1,0,1
2627,-0.01,1645175655.90625,P13,D07,1,0,1
2628,0.05,1645175655.921875,P13,D07,1,0,1
2629,0.07,1645175655.9375,P13,D07,1,0,1
2630,0.06,1645175655.953125,P13,D07,1,0,1
2631,0.06,1645175655.96875,P13,D07,1,0,1
2632,0.07,1645175655.984375,P13,D07,1,0,1
2633,0.11,1645175656.0,P13,D07,1,0,1
2634,0.19,1645175656.015625,P13,D07,1,0,1
2635,0.32,1645175656.03125,P13,D07,1,0,1
2636,0.49,1645175656.046875,P13,D07,1,0,1
2637,0.69,1645175656.0625,P13,D07,1,0,1
2638,0.84,1645175656.078125,P13,D07,1,0,1
2639,0.89,1645175656.09375,P13,D07,1,0,1
2640,0.8,1645175656.109375,P13,D07,1,0,1
2641,0.61,1645175656.125,P13,D07,1,0,1
2642,0.4,1645175656.140625,P13,D07,1,0,1
2643,0.25,1645175656.15625,P13,D07,1,0,1
2644,0.2,1645175656.171875,P13,D07,1,0,1
2645,0.22,1645175656.1875,P13,D07,1,0,1
2646,0.26,1645175656.203125,P13,D07,1,0,1
2647,0.24,1645175656.21875,P13,D07,1,0,1
2648,0.11,1645175656.234375,P13,D07,1,0,1
2649,-0.1,1645175656.25,P13,D07,1,0,1
2650,-0.35,1645175656.265625,P13,D07,1,0,1
2651,-0.59,1645175656.28125,P13,D07,1,0,1
2652,-0.78,1645175656.296875,P13,D07,1,0,1
2653,-0.91,1645175656.3125,P13,D07,1,0,1
2654,-1.0,1645175656.328125,P13,D07,1,0,1
2655,-1.04,1645175656.34375,P13,D07,1,0,1
2656,-1.0,1645175656.359375,P13,D07,1,0,1
2657,-0.87,1645175656.375,P13,D07,1,0,1
2658,-0.63,1645175656.390625,P13,D07,1,0,1
2659,-0.32,1645175656.40625,P13,D07,1,0,1
2660,-0.01,1645175656.421875,P13,D07,1,0,1
2661,0.22,1645175656.4375,P13,D07,1,0,1
2662,0.33,1645175656.453125,P13,D07,1,0,1
2663,0.29,1645175656.46875,P13,D07,1,0,1
2664,0.16,1645175656.484375,P13,D07,1,0,1
2665,-0.01,1645175656.5,P13,D07,1,0,1
2666,-0.15,1645175656.515625,P13,D07,1,0,1
2667,-0.22,1645175656.53125,P13,D07,1,0,1
2668,-0.23,1645175656.546875,P13,D07,1,0,1
2669,-0.19,1645175656.5625,P13,D07,1,0,1
2670,-0.1,1645175656.578125,P13,D07,1,0,1
2671,0.02,1645175656.59375,P13,D07,1,0,1
2672,0.16,1645175656.609375,P13,D07,1,0,1
2673,0.25,1645175656.625,P13,D07,1,0,1
2674,0.25,1645175656.640625,P13,D07,1,0,1
2675,0.13,1645175656.65625,P13,D07,1,0,1
2676,-0.06,1645175656.671875,P13,D07,1,0,1
2677,-0.22,1645175656.6875,P13,D07,1,0,1
2678,-0.28,1645175656.703125,P13,D07,1,0,1
2679,-0.18,1645175656.71875,P13,D07,1,0,1
2680,0.04,1645175656.734375,P13,D07,1,0,1
2681,0.29,1645175656.75,P13,D07,1,0,1
2682,0.49,1645175656.765625,P13,D07,1,0,1
2683,0.6,1645175656.78125,P13,D07,1,0,1
2684,0.63,1645175656.796875,P13,D07,1,0,1
2685,0.65,1645175656.8125,P13,D07,1,0,1
2686,0.73,1645175656.828125,P13,D07,1,0,1
2687,0.88,1645175656.84375,P13,D07,1,0,1
2688,1.06,1645175656.859375,P13,D07,1,0,1
2689,1.17,1645175656.875,P13,D07,1,0,1
2690,1.12,1645175656.890625,P13,D07,1,0,1
2691,0.86,1645175656.90625,P13,D07,1,0,1
2692,0.46,1645175656.921875,P13,D07,1,0,1
2693,0.05,1645175656.9375,P13,D07,1,0,1
2694,-0.2,1645175656.953125,P13,D07,1,0,1
2695,-0.22,1645175656.96875,P13,D07,1,0,1
2696,-0.05,1645175656.984375,P13,D07,1,0,1
2697,0.13,1645175657.0,P13,D07,1,0,1
2698,0.17,1645175657.015625,P13,D07,1,0,1
2699,-0.04,1645175657.03125,P13,D07,1,0,1
2700,-0.46,1645175657.046875,P13,D07,1,0,1
2701,-0.92,1645175657.0625,P13,D07,1,0,1
2702,-1.24,1645175657.078125,P13,D07,1,0,1
2703,-1.3,1645175657.09375,P13,D07,1,0,1
2704,-1.09,1645175657.109375,P13,D07,1,0,1
2705,-0.72,1645175657.125,P13,D07,1,0,1
2706,-0.3,1645175657.140625,P13,D07,1,0,1
2707,0.06,1645175657.15625,P13,D07,1,0,1
2708,0.31,1645175657.171875,P13,D07,1,0,1
2709,0.44,1645175657.1875,P13,D07,1,0,1
2710,0.44,1645175657.203125,P13,D07,1,0,1
2711,0.34,1645175657.21875,P13,D07,1,0,1
2712,0.16,1645175657.234375,P13,D07,1,0,1
2713,-0.05,1645175657.25,P13,D07,1,0,1
2714,-0.2,1645175657.265625,P13,D07,1,0,1
2715,-0.19,1645175657.28125,P13,D07,1,0,1
2716,0.03,1645175657.296875,P13,D07,1,0,1
2717,0.44,1645175657.3125,P13,D07,1,0,1
2718,0.92,1645175657.328125,P13,D07,1,0,1
2719,1.29,1645175657.34375,P13,D07,1,0,1
2720,1.39,1645175657.359375,P13,D07,1,0,1
2721,1.18,1645175657.375,P13,D07,1,0,1
2722,0.72,1645175657.390625,P13,D07,1,0,1
2723,0.18,1645175657.40625,P13,D07,1,0,1
2724,-0.28,1645175657.421875,P13,D07,1,0,1
2725,-0.59,1645175657.4375,P13,D07,1,0,1
2726,-0.73,1645175657.453125,P13,D07,1,0,1
2727,-0.78,1645175657.46875,P13,D07,1,0,1
2728,-0.8,1645175657.484375,P13,D07,1,0,1
2729,-0.79,1645175657.5,P13,D07,1,0,1
2730,-0.76,1645175657.515625,P13,D07,1,0,1
2731,-0.72,1645175657.53125,P13,D07,1,0,1
2732,-0.71,1645175657.546875,P13,D07,1,0,1
2733,-0.79,1645175657.5625,P13,D07,1,0,1
2734,-0.96,1645175657.578125,P13,D07,1,0,1
2735,-1.17,1645175657.59375,P13,D07,1,0,1
2736,-1.3,1645175657.609375,P13,D07,1,0,1
2737,-1.26,1645175657.625,P13,D07,1,0,1
2738,-1.04,1645175657.640625,P13,D07,1,0,1
2739,-0.71,1645175657.65625,P13,D07,1,0,1
2740,-0.36,1645175657.671875,P13,D07,1,0,1
2741,-0.12,1645175657.6875,P13,D07,1,0,1
2742,-0.03,1645175657.703125,P13,D07,1,0,1
2743,-0.07,1645175657.71875,P13,D07,1,0,1
2744,-0.16,1645175657.734375,P13,D07,1,0,1
2745,-0.22,1645175657.75,P13,D07,1,0,1
2746,-0.18,1645175657.765625,P13,D07,1,0,1
2747,-0.03,1645175657.78125,P13,D07,1,0,1
2748,0.18,1645175657.796875,P13,D07,1,0,1
2749,0.36,1645175657.8125,P13,D07,1,0,1
2750,0.44,1645175657.828125,P13,D07,1,0,1
2751,0.37,1645175657.84375,P13,D07,1,0,1
2752,0.21,1645175657.859375,P13,D07,1,0,1
2753,0.03,1645175657.875,P13,D07,1,0,1
2754,-0.1,1645175657.890625,P13,D07,1,0,1
2755,-0.12,1645175657.90625,P13,D07,1,0,1
2756,-0.03,1645175657.921875,P13,D07,1,0,1
2757,0.15,1645175657.9375,P13,D07,1,0,1
2758,0.4,1645175657.953125,P13,D07,1,0,1
2759,0.63,1645175657.96875,P13,D07,1,0,1
2760,0.79,1645175657.984375,P13,D07,1,0,1
2761,0.79,1645175658.0,P13,D07,1,0,1
2762,0.61,1645175658.015625,P13,D07,1,0,1
2763,0.29,1645175658.03125,P13,D07,1,0,1
2764,-0.05,1645175658.046875,P13,D07,1,0,1
2765,-0.25,1645175658.0625,P13,D07,1,0,1
2766,-0.23,1645175658.078125,P13,D07,1,0,1
2767,-0.02,1645175658.09375,P13,D07,1,0,1
2768,0.24,1645175658.109375,P13,D07,1,0,1
2769,0.42,1645175658.125,P13,D07,1,0,1
2770,0.42,1645175658.140625,P13,D07,1,0,1
2771,0.27,1645175658.15625,P13,D07,1,0,1
2772,0.07,1645175658.171875,P13,D07,1,0,1
2773,-0.06,1645175658.1875,P13,D07,1,0,1
2774,-0.08,1645175658.203125,P13,D07,1,0,1
2775,-0.04,1645175658.21875,P13,D07,1,0,1
2776,-0.01,1645175658.234375,P13,D07,1,0,1
2777,-0.09,1645175658.25,P13,D07,1,0,1
2778,-0.29,1645175658.265625,P13,D07,1,0,1
2779,-0.55,1645175658.28125,P13,D07,1,0,1
2780,-0.77,1645175658.296875,P13,D07,1,0,1
2781,-0.85,1645175658.3125,P13,D07,1,0,1
2782,-0.75,1645175658.328125,P13,D07,1,0,1
2783,-0.52,1645175658.34375,P13,D07,1,0,1
2784,-0.27,1645175658.359375,P13,D07,1,0,1
2785,-0.11,1645175658.375,P13,D07,1,0,1
2786,-0.09,1645175658.390625,P13,D07,1,0,1
2787,-0.16,1645175658.40625,P13,D07,1,0,1
2788,-0.2,1645175658.421875,P13,D07,1,0,1
2789,-0.12,1645175658.4375,P13,D07,1,0,1
2790,0.1,1645175658.453125,P13,D07,1,0,1
2791,0.38,1645175658.46875,P13,D07,1,0,1
2792,0.6,1645175658.484375,P13,D07,1,0,1
2793,0.66,1645175658.5,P13,D07,1,0,1
2794,0.56,1645175658.515625,P13,D07,1,0,1
2795,0.38,1645175658.53125,P13,D07,1,0,1
2796,0.22,1645175658.546875,P13,D07,1,0,1
2797,0.16,1645175658.5625,P13,D07,1,0,1
2798,0.2,1645175658.578125,P13,D07,1,0,1
2799,0.31,1645175658.59375,P13,D07,1,0,1
2800,0.42,1645175658.609375,P13,D07,1,0,1
2801,0.48,1645175658.625,P13,D07,1,0,1
2802,0.45,1645175658.640625,P13,D07,1,0,1
2803,0.33,1645175658.65625,P13,D07,1,0,1
2804,0.15,1645175658.671875,P13,D07,1,0,1
2805,-0.07,1645175658.6875,P13,D07,1,0,1
2806,-0.26,1645175658.703125,P13,D07,1,0,1
2807,-0.39,1645175658.71875,P13,D07,1,0,1
2808,-0.43,1645175658.734375,P13,D07,1,0,1
2809,-0.4,1645175658.75,P13,D07,1,0,1
2810,-0.31,1645175658.765625,P13,D07,1,0,1
2811,-0.19,1645175658.78125,P13,D07,1,0,1
2812,-0.08,1645175658.796875,P13,D07,1,0,1
2813,0.01,1645175658.8125,P13,D07,1,0,1
2814,0.08,1645175658.828125,P13,D07,1,0,1
2815,0.15,1645175658.84375,P13,D07,1,0,1
2816,0.23,1645175658.859375,P13,D07,1,0,1
2817,0.36,1645175658.875,P13,D07,1,0,1
2818,0.51,1645175658.890625,P13,D07,1,0,1
2819,0.68,1645175658.90625,P13,D07,1,0,1
2820,0.79,1645175658.921875,P13,D07,1,0,1
2821,0.8,1645175658.9375,P13,D07,1,0,1
2822,0.7,1645175658.953125,P13,D07,1,0,1
2823,0.51,1645175658.96875,P13,D07,1,0,1
2824,0.29,1645175658.984375,P13,D07,1,0,1
2825,0.1,1645175659.0,P13,D07,1,0,1
2826,-0.0,1645175659.015625,P13,D07,1,0,1
2827,0.02,1645175659.03125,P13,D07,1,0,1
2828,0.15,1645175659.046875,P13,D07,1,0,1
2829,0.32,1645175659.0625,P13,D07,1,0,1
2830,0.46,1645175659.078125,P13,D07,1,0,1
2831,0.48,1645175659.09375,P13,D07,1,0,1
2832,0.34,1645175659.109375,P13,D07,1,0,1
2833,0.09,1645175659.125,P13,D07,1,0,1
2834,-0.21,1645175659.140625,P13,D07,1,0,1
2835,-0.45,1645175659.15625,P13,D07,1,0,1
2836,-0.55,1645175659.171875,P13,D07,1,0,1
2837,-0.52,1645175659.1875,P13,D07,1,0,1
2838,-0.36,1645175659.203125,P13,D07,1,0,1
2839,-0.13,1645175659.21875,P13,D07,1,0,1
2840,0.14,1645175659.234375,P13,D07,1,0,1
2841,0.43,1645175659.25,P13,D07,1,0,1
2842,0.71,1645175659.265625,P13,D07,1,0,1
2843,0.89,1645175659.28125,P13,D07,1,0,1
2844,0.9,1645175659.296875,P13,D07,1,0,1
2845,0.7,1645175659.3125,P13,D07,1,0,1
2846,0.32,1645175659.328125,P13,D07,1,0,1
2847,-0.13,1645175659.34375,P13,D07,1,0,1
2848,-0.5,1645175659.359375,P13,D07,1,0,1
2849,-0.67,1645175659.375,P13,D07,1,0,1
2850,-0.59,1645175659.390625,P13,D07,1,0,1
2851,-0.35,1645175659.40625,P13,D07,1,0,1
2852,-0.06,1645175659.421875,P13,D07,1,0,1
2853,0.17,1645175659.4375,P13,D07,1,0,1
2854,0.29,1645175659.453125,P13,D07,1,0,1
2855,0.3,1645175659.46875,P13,D07,1,0,1
2856,0.26,1645175659.484375,P13,D07,1,0,1
2857,0.24,1645175659.5,P13,D07,1,0,1
2858,0.25,1645175659.515625,P13,D07,1,0,1
2859,0.28,1645175659.53125,P13,D07,1,0,1
2860,0.29,1645175659.546875,P13,D07,1,0,1
2861,0.22,1645175659.5625,P13,D07,1,0,1
2862,0.05,1645175659.578125,P13,D07,1,0,1
2863,-0.21,1645175659.59375,P13,D07,1,0,1
2864,-0.5,1645175659.609375,P13,D07,1,0,1
2865,-0.73,1645175659.625,P13,D07,1,0,1
2866,-0.83,1645175659.640625,P13,D07,1,0,1
2867,-0.79,1645175659.65625,P13,D07,1,0,1
2868,-0.65,1645175659.671875,P13,D07,1,0,1
2869,-0.51,1645175659.6875,P13,D07,1,0,1
2870,-0.44,1645175659.703125,P13,D07,1,0,1
2871,-0.46,1645175659.71875,P13,D07,1,0,1
2872,-0.53,1645175659.734375,P13,D07,1,0,1
2873,-0.56,1645175659.75,P13,D07,1,0,1
2874,-0.53,1645175659.765625,P13,D07,1,0,1
2875,-0.46,1645175659.78125,P13,D07,1,0,1
2876,-0.41,1645175659.796875,P13,D07,1,0,1
2877,-0.44,1645175659.8125,P13,D07,1,0,1
2878,-0.55,1645175659.828125,P13,D07,1,0,1
2879,-0.64,1645175659.84375,P13,D07,1,0,1
2880,-0.64,1645175659.859375,P13,D07,1,0,1
2881,-0.49,1645175659.875,P13,D07,1,0,1
2882,-0.25,1645175659.890625,P13,D07,1,0,1
2883,-0.04,1645175659.90625,P13,D07,1,0,1
2884,0.05,1645175659.921875,P13,D07,1,0,1
2885,0.0,1645175659.9375,P13,D07,1,0,1
2886,-0.11,1645175659.953125,P13,D07,1,0,1
2887,-0.16,1645175659.96875,P13,D07,1,0,1
2888,-0.08,1645175659.984375,P13,D07,1,0,1
2889,0.14,1645175660.0,P13,D07,1,0,1
2890,0.38,1645175660.015625,P13,D07,1,0,1
2891,0.55,1645175660.03125,P13,D07,1,0,1
2892,0.62,1645175660.046875,P13,D07,1,0,1
2893,0.61,1645175660.0625,P13,D07,1,0,1
2894,0.61,1645175660.078125,P13,D07,1,0,1
2895,0.65,1645175660.09375,P13,D07,1,0,1
2896,0.69,1645175660.109375,P13,D07,1,0,1
2897,0.67,1645175660.125,P13,D07,1,0,1
2898,0.51,1645175660.140625,P13,D07,1,0,1
2899,0.22,1645175660.15625,P13,D07,1,0,1
2900,-0.12,1645175660.171875,P13,D07,1,0,1
2901,-0.41,1645175660.1875,P13,D07,1,0,1
2902,-0.57,1645175660.203125,P13,D07,1,0,1
2903,-0.59,1645175660.21875,P13,D07,1,0,1
2904,-0.53,1645175660.234375,P13,D07,1,0,1
2905,-0.44,1645175660.25,P13,D07,1,0,1
2906,-0.35,1645175660.265625,P13,D07,1,0,1
2907,-0.28,1645175660.28125,P13,D07,1,0,1
2908,-0.21,1645175660.296875,P13,D07,1,0,1
2909,-0.17,1645175660.3125,P13,D07,1,0,1
2910,-0.14,1645175660.328125,P13,D07,1,0,1
2911,-0.1,1645175660.34375,P13,D07,1,0,1
2912,-0.0,1645175660.359375,P13,D07,1,0,1
2913,0.2,1645175660.375,P13,D07,1,0,1
2914,0.5,1645175660.390625,P13,D07,1,0,1
2915,0.8,1645175660.40625,P13,D07,1,0,1
