,data,timestamp,participant,document,val,arou,eng
0,-0.7,1645174066.046875,P13,D01,0,0,1
1,-0.54,1645174066.0625,P13,D01,0,0,1
2,-0.41,1645174066.078125,P13,D01,0,0,1
3,-0.38,1645174066.09375,P13,D01,0,0,1
4,-0.45,1645174066.109375,P13,D01,0,0,1
5,-0.56,1645174066.125,P13,D01,0,0,1
6,-0.59,1645174066.140625,P13,D01,0,0,1
7,-0.47,1645174066.15625,P13,D01,0,0,1
8,-0.19,1645174066.171875,P13,D01,0,0,1
9,0.17,1645174066.1875,P13,D01,0,0,1
10,0.49,1645174066.203125,P13,D01,0,0,1
11,0.67,1645174066.21875,P13,D01,0,0,1
12,0.69,1645174066.234375,P13,D01,0,0,1
13,0.59,1645174066.25,P13,D01,0,0,1
14,0.46,1645174066.265625,P13,D01,0,0,1
15,0.36,1645174066.28125,P13,D01,0,0,1
16,0.32,1645174066.296875,P13,D01,0,0,1
17,0.3,1645174066.3125,P13,D01,0,0,1
18,0.32,1645174066.328125,P13,D01,0,0,1
19,0.35,1645174066.34375,P13,D01,0,0,1
20,0.41,1645174066.359375,P13,D01,0,0,1
21,0.52,1645174066.375,P13,D01,0,0,1
22,0.65,1645174066.390625,P13,D01,0,0,1
23,0.83,1645174066.40625,P13,D01,0,0,1
24,1.04,1645174066.421875,P13,D01,0,0,1
25,1.29,1645174066.4375,P13,D01,0,0,1
26,1.57,1645174066.453125,P13,D01,0,0,1
27,1.8,1645174066.46875,P13,D01,0,0,1
28,1.89,1645174066.484375,P13,D01,0,0,1
29,1.76,1645174066.5,P13,D01,0,0,1
30,1.43,1645174066.515625,P13,D01,0,0,1
31,0.95,1645174066.53125,P13,D01,0,0,1
32,0.47,1645174066.546875,P13,D01,0,0,1
33,0.13,1645174066.5625,P13,D01,0,0,1
34,-0.03,1645174066.578125,P13,D01,0,0,1
35,-0.04,1645174066.59375,P13,D01,0,0,1
36,0.01,1645174066.609375,P13,D01,0,0,1
37,0.03,1645174066.625,P13,D01,0,0,1
38,0.01,1645174066.640625,P13,D01,0,0,1
39,-0.05,1645174066.65625,P13,D01,0,0,1
40,-0.11,1645174066.671875,P13,D01,0,0,1
41,-0.19,1645174066.6875,P13,D01,0,0,1
42,-0.32,1645174066.703125,P13,D01,0,0,1
43,-0.54,1645174066.71875,P13,D01,0,0,1
44,-0.82,1645174066.734375,P13,D01,0,0,1
45,-1.06,1645174066.75,P13,D01,0,0,1
46,-1.17,1645174066.765625,P13,D01,0,0,1
47,-1.06,1645174066.78125,P13,D01,0,0,1
48,-0.74,1645174066.796875,P13,D01,0,0,1
49,-0.35,1645174066.8125,P13,D01,0,0,1
50,-0.04,1645174066.828125,P13,D01,0,0,1
51,0.07,1645174066.84375,P13,D01,0,0,1
52,-0.04,1645174066.859375,P13,D01,0,0,1
53,-0.26,1645174066.875,P13,D01,0,0,1
54,-0.46,1645174066.890625,P13,D01,0,0,1
55,-0.52,1645174066.90625,P13,D01,0,0,1
56,-0.44,1645174066.921875,P13,D01,0,0,1
57,-0.29,1645174066.9375,P13,D01,0,0,1
58,-0.21,1645174066.953125,P13,D01,0,0,1
59,-0.27,1645174066.96875,P13,D01,0,0,1
60,-0.47,1645174066.984375,P13,D01,0,0,1
61,-0.73,1645174067.0,P13,D01,0,0,1
62,-0.93,1645174067.015625,P13,D01,0,0,1
63,-0.99,1645174067.03125,P13,D01,0,0,1
64,-0.89,1645174067.046875,P13,D01,0,0,1
65,-0.7,1645174067.0625,P13,D01,0,0,1
66,-0.48,1645174067.078125,P13,D01,0,0,1
67,-0.26,1645174067.09375,P13,D01,0,0,1
68,-0.06,1645174067.109375,P13,D01,0,0,1
69,0.15,1645174067.125,P13,D01,0,0,1
70,0.38,1645174067.140625,P13,D01,0,0,1
71,0.59,1645174067.15625,P13,D01,0,0,1
72,0.71,1645174067.171875,P13,D01,0,0,1
73,0.68,1645174067.1875,P13,D01,0,0,1
74,0.48,1645174067.203125,P13,D01,0,0,1
75,0.14,1645174067.21875,P13,D01,0,0,1
76,-0.25,1645174067.234375,P13,D01,0,0,1
77,-0.56,1645174067.25,P13,D01,0,0,1
78,-0.69,1645174067.265625,P13,D01,0,0,1
79,-0.63,1645174067.28125,P13,D01,0,0,1
80,-0.41,1645174067.296875,P13,D01,0,0,1
81,-0.16,1645174067.3125,P13,D01,0,0,1
82,0.02,1645174067.328125,P13,D01,0,0,1
83,0.06,1645174067.34375,P13,D01,0,0,1
84,-0.03,1645174067.359375,P13,D01,0,0,1
85,-0.15,1645174067.375,P13,D01,0,0,1
86,-0.19,1645174067.390625,P13,D01,0,0,1
87,-0.08,1645174067.40625,P13,D01,0,0,1
88,0.18,1645174067.421875,P13,D01,0,0,1
89,0.51,1645174067.4375,P13,D01,0,0,1
90,0.78,1645174067.453125,P13,D01,0,0,1
91,0.92,1645174067.46875,P13,D01,0,0,1
92,0.88,1645174067.484375,P13,D01,0,0,1
93,0.7,1645174067.5,P13,D01,0,0,1
94,0.42,1645174067.515625,P13,D01,0,0,1
95,0.14,1645174067.53125,P13,D01,0,0,1
96,-0.11,1645174067.546875,P13,D01,0,0,1
97,-0.28,1645174067.5625,P13,D01,0,0,1
98,-0.37,1645174067.578125,P13,D01,0,0,1
99,-0.38,1645174067.59375,P13,D01,0,0,1
100,-0.32,1645174067.609375,P13,D01,0,0,1
101,-0.2,1645174067.625,P13,D01,0,0,1
102,-0.05,1645174067.640625,P13,D01,0,0,1
103,0.06,1645174067.65625,P13,D01,0,0,1
104,0.09,1645174067.671875,P13,D01,0,0,1
105,0.0,1645174067.6875,P13,D01,0,0,1
106,-0.22,1645174067.703125,P13,D01,0,0,1
107,-0.53,1645174067.71875,P13,D01,0,0,1
108,-0.85,1645174067.734375,P13,D01,0,0,1
109,-1.1,1645174067.75,P13,D01,0,0,1
110,-1.23,1645174067.765625,P13,D01,0,0,1
111,-1.22,1645174067.78125,P13,D01,0,0,1
112,-1.09,1645174067.796875,P13,D01,0,0,1
113,-0.92,1645174067.8125,P13,D01,0,0,1
114,-0.81,1645174067.828125,P13,D01,0,0,1
115,-0.83,1645174067.84375,P13,D01,0,0,1
116,-1.03,1645174067.859375,P13,D01,0,0,1
117,-1.41,1645174067.875,P13,D01,0,0,1
118,-1.85,1645174067.890625,P13,D01,0,0,1
119,-2.24,1645174067.90625,P13,D01,0,0,1
120,-2.45,1645174067.921875,P13,D01,0,0,1
121,-2.43,1645174067.9375,P13,D01,0,0,1
122,-2.22,1645174067.953125,P13,D01,0,0,1
123,-1.96,1645174067.96875,P13,D01,0,0,1
124,-1.82,1645174067.984375,P13,D01,0,0,1
125,-1.93,1645174068.0,P13,D01,0,0,1
126,-2.33,1645174068.015625,P13,D01,0,0,1
127,-2.94,1645174068.03125,P13,D01,0,0,1
128,-3.62,1645174068.046875,P13,D01,0,0,1
129,-4.22,1645174068.0625,P13,D01,0,0,1
130,-4.65,1645174068.078125,P13,D01,0,0,1
131,-4.9,1645174068.09375,P13,D01,0,0,1
132,-5.03,1645174068.109375,P13,D01,0,0,1
133,-5.12,1645174068.125,P13,D01,0,0,1
134,-5.22,1645174068.140625,P13,D01,0,0,1
135,-5.41,1645174068.15625,P13,D01,0,0,1
136,-5.73,1645174068.171875,P13,D01,0,0,1
137,-6.23,1645174068.1875,P13,D01,0,0,1
138,-6.93,1645174068.203125,P13,D01,0,0,1
139,-7.68,1645174068.21875,P13,D01,0,0,1
140,-8.21,1645174068.234375,P13,D01,0,0,1
141,-8.1,1645174068.25,P13,D01,0,0,1
142,-7.0,1645174068.265625,P13,D01,0,0,1
143,-4.77,1645174068.28125,P13,D01,0,0,1
144,-1.6,1645174068.296875,P13,D01,0,0,1
145,2.0,1645174068.3125,P13,D01,0,0,1
146,5.43,1645174068.328125,P13,D01,0,0,1
147,8.19,1645174068.34375,P13,D01,0,0,1
148,10.06,1645174068.359375,P13,D01,0,0,1
149,11.12,1645174068.375,P13,D01,0,0,1
150,11.63,1645174068.390625,P13,D01,0,0,1
151,11.82,1645174068.40625,P13,D01,0,0,1
152,11.84,1645174068.421875,P13,D01,0,0,1
153,11.68,1645174068.4375,P13,D01,0,0,1
154,11.33,1645174068.453125,P13,D01,0,0,1
155,10.79,1645174068.46875,P13,D01,0,0,1
156,10.17,1645174068.484375,P13,D01,0,0,1
157,9.57,1645174068.5,P13,D01,0,0,1
158,9.12,1645174068.515625,P13,D01,0,0,1
159,8.83,1645174068.53125,P13,D01,0,0,1
160,8.66,1645174068.546875,P13,D01,0,0,1
161,8.56,1645174068.5625,P13,D01,0,0,1
162,8.5,1645174068.578125,P13,D01,0,0,1
163,8.51,1645174068.59375,P13,D01,0,0,1
164,8.66,1645174068.609375,P13,D01,0,0,1
165,8.99,1645174068.625,P13,D01,0,0,1
166,9.48,1645174068.640625,P13,D01,0,0,1
167,10.0,1645174068.65625,P13,D01,0,0,1
168,10.39,1645174068.671875,P13,D01,0,0,1
169,10.38,1645174068.6875,P13,D01,0,0,1
170,9.79,1645174068.703125,P13,D01,0,0,1
171,8.48,1645174068.71875,P13,D01,0,0,1
172,6.49,1645174068.734375,P13,D01,0,0,1
173,4.08,1645174068.75,P13,D01,0,0,1
174,1.66,1645174068.765625,P13,D01,0,0,1
175,-0.34,1645174068.78125,P13,D01,0,0,1
176,-1.56,1645174068.796875,P13,D01,0,0,1
177,-1.91,1645174068.8125,P13,D01,0,0,1
178,-1.5,1645174068.828125,P13,D01,0,0,1
179,-0.62,1645174068.84375,P13,D01,0,0,1
180,0.43,1645174068.859375,P13,D01,0,0,1
181,1.41,1645174068.875,P13,D01,0,0,1
182,2.21,1645174068.890625,P13,D01,0,0,1
183,2.69,1645174068.90625,P13,D01,0,0,1
184,2.75,1645174068.921875,P13,D01,0,0,1
185,2.25,1645174068.9375,P13,D01,0,0,1
186,1.11,1645174068.953125,P13,D01,0,0,1
187,-0.63,1645174068.96875,P13,D01,0,0,1
188,-2.8,1645174068.984375,P13,D01,0,0,1
189,-5.07,1645174069.0,P13,D01,0,0,1
190,-7.11,1645174069.015625,P13,D01,0,0,1
191,-8.66,1645174069.03125,P13,D01,0,0,1
192,-9.62,1645174069.046875,P13,D01,0,0,1
193,-10.09,1645174069.0625,P13,D01,0,0,1
194,-10.33,1645174069.078125,P13,D01,0,0,1
195,-10.66,1645174069.09375,P13,D01,0,0,1
196,-11.28,1645174069.109375,P13,D01,0,0,1
197,-12.2,1645174069.125,P13,D01,0,0,1
198,-13.19,1645174069.140625,P13,D01,0,0,1
199,-13.88,1645174069.15625,P13,D01,0,0,1
200,-13.94,1645174069.171875,P13,D01,0,0,1
201,-13.29,1645174069.1875,P13,D01,0,0,1
202,-12.12,1645174069.203125,P13,D01,0,0,1
203,-10.78,1645174069.21875,P13,D01,0,0,1
204,-9.57,1645174069.234375,P13,D01,0,0,1
205,-8.57,1645174069.25,P13,D01,0,0,1
206,-7.67,1645174069.265625,P13,D01,0,0,1
207,-6.66,1645174069.28125,P13,D01,0,0,1
208,-5.48,1645174069.296875,P13,D01,0,0,1
209,-4.24,1645174069.3125,P13,D01,0,0,1
210,-3.18,1645174069.328125,P13,D01,0,0,1
211,-2.5,1645174069.34375,P13,D01,0,0,1
212,-2.23,1645174069.359375,P13,D01,0,0,1
213,-2.22,1645174069.375,P13,D01,0,0,1
214,-2.25,1645174069.390625,P13,D01,0,0,1
215,-2.15,1645174069.40625,P13,D01,0,0,1
216,-1.89,1645174069.421875,P13,D01,0,0,1
217,-1.54,1645174069.4375,P13,D01,0,0,1
218,-1.13,1645174069.453125,P13,D01,0,0,1
219,-0.61,1645174069.46875,P13,D01,0,0,1
220,0.17,1645174069.484375,P13,D01,0,0,1
221,1.32,1645174069.5,P13,D01,0,0,1
222,2.87,1645174069.515625,P13,D01,0,0,1
223,4.64,1645174069.53125,P13,D01,0,0,1
224,6.37,1645174069.546875,P13,D01,0,0,1
225,7.79,1645174069.5625,P13,D01,0,0,1
226,8.73,1645174069.578125,P13,D01,0,0,1
227,9.16,1645174069.59375,P13,D01,0,0,1
228,9.14,1645174069.609375,P13,D01,0,0,1
229,8.79,1645174069.625,P13,D01,0,0,1
230,8.2,1645174069.640625,P13,D01,0,0,1
231,7.42,1645174069.65625,P13,D01,0,0,1
232,6.51,1645174069.671875,P13,D01,0,0,1
233,5.53,1645174069.6875,P13,D01,0,0,1
234,4.55,1645174069.703125,P13,D01,0,0,1
235,3.62,1645174069.71875,P13,D01,0,0,1
236,2.79,1645174069.734375,P13,D01,0,0,1
237,2.06,1645174069.75,P13,D01,0,0,1
238,1.41,1645174069.765625,P13,D01,0,0,1
239,0.87,1645174069.78125,P13,D01,0,0,1
240,0.42,1645174069.796875,P13,D01,0,0,1
241,0.08,1645174069.8125,P13,D01,0,0,1
242,-0.16,1645174069.828125,P13,D01,0,0,1
243,-0.32,1645174069.84375,P13,D01,0,0,1
244,-0.43,1645174069.859375,P13,D01,0,0,1
245,-0.56,1645174069.875,P13,D01,0,0,1
246,-0.74,1645174069.890625,P13,D01,0,0,1
247,-1.03,1645174069.90625,P13,D01,0,0,1
248,-1.45,1645174069.921875,P13,D01,0,0,1
249,-1.99,1645174069.9375,P13,D01,0,0,1
250,-2.58,1645174069.953125,P13,D01,0,0,1
251,-3.1,1645174069.96875,P13,D01,0,0,1
252,-3.39,1645174069.984375,P13,D01,0,0,1
253,-3.34,1645174070.0,P13,D01,0,0,1
254,-2.91,1645174070.015625,P13,D01,0,0,1
255,-2.16,1645174070.03125,P13,D01,0,0,1
256,-1.21,1645174070.046875,P13,D01,0,0,1
257,-0.25,1645174070.0625,P13,D01,0,0,1
258,0.56,1645174070.078125,P13,D01,0,0,1
259,1.1,1645174070.09375,P13,D01,0,0,1
260,1.35,1645174070.109375,P13,D01,0,0,1
261,1.36,1645174070.125,P13,D01,0,0,1
262,1.27,1645174070.140625,P13,D01,0,0,1
263,1.26,1645174070.15625,P13,D01,0,0,1
264,1.43,1645174070.171875,P13,D01,0,0,1
265,1.8,1645174070.1875,P13,D01,0,0,1
266,2.29,1645174070.203125,P13,D01,0,0,1
267,2.74,1645174070.21875,P13,D01,0,0,1
268,2.97,1645174070.234375,P13,D01,0,0,1
269,2.91,1645174070.25,P13,D01,0,0,1
270,2.56,1645174070.265625,P13,D01,0,0,1
271,2.03,1645174070.28125,P13,D01,0,0,1
272,1.44,1645174070.296875,P13,D01,0,0,1
273,0.95,1645174070.3125,P13,D01,0,0,1
274,0.61,1645174070.328125,P13,D01,0,0,1
275,0.48,1645174070.34375,P13,D01,0,0,1
276,0.58,1645174070.359375,P13,D01,0,0,1
277,0.88,1645174070.375,P13,D01,0,0,1
278,1.32,1645174070.390625,P13,D01,0,0,1
279,1.77,1645174070.40625,P13,D01,0,0,1
280,2.09,1645174070.421875,P13,D01,0,0,1
281,2.13,1645174070.4375,P13,D01,0,0,1
282,1.84,1645174070.453125,P13,D01,0,0,1
283,1.29,1645174070.46875,P13,D01,0,0,1
284,0.63,1645174070.484375,P13,D01,0,0,1
285,0.04,1645174070.5,P13,D01,0,0,1
286,-0.37,1645174070.515625,P13,D01,0,0,1
287,-0.57,1645174070.53125,P13,D01,0,0,1
288,-0.68,1645174070.546875,P13,D01,0,0,1
289,-0.82,1645174070.5625,P13,D01,0,0,1
290,-1.1,1645174070.578125,P13,D01,0,0,1
291,-1.55,1645174070.59375,P13,D01,0,0,1
292,-2.11,1645174070.609375,P13,D01,0,0,1
293,-2.67,1645174070.625,P13,D01,0,0,1
294,-3.1,1645174070.640625,P13,D01,0,0,1
295,-3.29,1645174070.65625,P13,D01,0,0,1
296,-3.21,1645174070.671875,P13,D01,0,0,1
297,-2.91,1645174070.6875,P13,D01,0,0,1
298,-2.5,1645174070.703125,P13,D01,0,0,1
299,-2.09,1645174070.71875,P13,D01,0,0,1
300,-1.75,1645174070.734375,P13,D01,0,0,1
301,-1.5,1645174070.75,P13,D01,0,0,1
302,-1.29,1645174070.765625,P13,D01,0,0,1
303,-1.06,1645174070.78125,P13,D01,0,0,1
304,-0.78,1645174070.796875,P13,D01,0,0,1
305,-0.43,1645174070.8125,P13,D01,0,0,1
306,0.0,1645174070.828125,P13,D01,0,0,1
307,0.51,1645174070.84375,P13,D01,0,0,1
308,1.1,1645174070.859375,P13,D01,0,0,1
309,1.7,1645174070.875,P13,D01,0,0,1
310,2.2,1645174070.890625,P13,D01,0,0,1
311,2.45,1645174070.90625,P13,D01,0,0,1
312,2.34,1645174070.921875,P13,D01,0,0,1
313,1.85,1645174070.9375,P13,D01,0,0,1
314,1.1,1645174070.953125,P13,D01,0,0,1
315,0.3,1645174070.96875,P13,D01,0,0,1
316,-0.32,1645174070.984375,P13,D01,0,0,1
317,-0.6,1645174071.0,P13,D01,0,0,1
318,-0.53,1645174071.015625,P13,D01,0,0,1
319,-0.21,1645174071.03125,P13,D01,0,0,1
320,0.17,1645174071.046875,P13,D01,0,0,1
321,0.42,1645174071.0625,P13,D01,0,0,1
322,0.43,1645174071.078125,P13,D01,0,0,1
323,0.18,1645174071.09375,P13,D01,0,0,1
324,-0.22,1645174071.109375,P13,D01,0,0,1
325,-0.65,1645174071.125,P13,D01,0,0,1
326,-0.99,1645174071.140625,P13,D01,0,0,1
327,-1.17,1645174071.15625,P13,D01,0,0,1
328,-1.17,1645174071.171875,P13,D01,0,0,1
329,-1.01,1645174071.1875,P13,D01,0,0,1
330,-0.74,1645174071.203125,P13,D01,0,0,1
331,-0.4,1645174071.21875,P13,D01,0,0,1
332,-0.04,1645174071.234375,P13,D01,0,0,1
333,0.3,1645174071.25,P13,D01,0,0,1
334,0.54,1645174071.265625,P13,D01,0,0,1
335,0.67,1645174071.28125,P13,D01,0,0,1
336,0.66,1645174071.296875,P13,D01,0,0,1
337,0.54,1645174071.3125,P13,D01,0,0,1
338,0.35,1645174071.328125,P13,D01,0,0,1
339,0.09,1645174071.34375,P13,D01,0,0,1
340,-0.2,1645174071.359375,P13,D01,0,0,1
341,-0.5,1645174071.375,P13,D01,0,0,1
342,-0.77,1645174071.390625,P13,D01,0,0,1
343,-0.95,1645174071.40625,P13,D01,0,0,1
344,-0.97,1645174071.421875,P13,D01,0,0,1
345,-0.83,1645174071.4375,P13,D01,0,0,1
346,-0.6,1645174071.453125,P13,D01,0,0,1
347,-0.41,1645174071.46875,P13,D01,0,0,1
348,-0.37,1645174071.484375,P13,D01,0,0,1
349,-0.5,1645174071.5,P13,D01,0,0,1
350,-0.74,1645174071.515625,P13,D01,0,0,1
351,-0.93,1645174071.53125,P13,D01,0,0,1
352,-0.92,1645174071.546875,P13,D01,0,0,1
353,-0.66,1645174071.5625,P13,D01,0,0,1
354,-0.21,1645174071.578125,P13,D01,0,0,1
355,0.29,1645174071.59375,P13,D01,0,0,1
356,0.69,1645174071.609375,P13,D01,0,0,1
357,0.93,1645174071.625,P13,D01,0,0,1
358,1.01,1645174071.640625,P13,D01,0,0,1
359,1.0,1645174071.65625,P13,D01,0,0,1
360,0.95,1645174071.671875,P13,D01,0,0,1
361,0.88,1645174071.6875,P13,D01,0,0,1
362,0.76,1645174071.703125,P13,D01,0,0,1
363,0.53,1645174071.71875,P13,D01,0,0,1
364,0.2,1645174071.734375,P13,D01,0,0,1
365,-0.14,1645174071.75,P13,D01,0,0,1
366,-0.37,1645174071.765625,P13,D01,0,0,1
367,-0.35,1645174071.78125,P13,D01,0,0,1
368,-0.03,1645174071.796875,P13,D01,0,0,1
369,0.54,1645174071.8125,P13,D01,0,0,1
370,1.21,1645174071.828125,P13,D01,0,0,1
371,1.79,1645174071.84375,P13,D01,0,0,1
372,2.12,1645174071.859375,P13,D01,0,0,1
373,2.12,1645174071.875,P13,D01,0,0,1
374,1.8,1645174071.890625,P13,D01,0,0,1
375,1.29,1645174071.90625,P13,D01,0,0,1
376,0.73,1645174071.921875,P13,D01,0,0,1
377,0.24,1645174071.9375,P13,D01,0,0,1
378,-0.11,1645174071.953125,P13,D01,0,0,1
379,-0.33,1645174071.96875,P13,D01,0,0,1
380,-0.42,1645174071.984375,P13,D01,0,0,1
381,-0.44,1645174072.0,P13,D01,0,0,1
382,-0.43,1645174072.015625,P13,D01,0,0,1
383,-0.45,1645174072.03125,P13,D01,0,0,1
384,-0.54,1645174072.046875,P13,D01,0,0,1
385,-0.71,1645174072.0625,P13,D01,0,0,1
386,-0.89,1645174072.078125,P13,D01,0,0,1
387,-0.99,1645174072.09375,P13,D01,0,0,1
388,-0.97,1645174072.109375,P13,D01,0,0,1
389,-0.83,1645174072.125,P13,D01,0,0,1
390,-0.64,1645174072.140625,P13,D01,0,0,1
391,-0.51,1645174072.15625,P13,D01,0,0,1
392,-0.48,1645174072.171875,P13,D01,0,0,1
393,-0.51,1645174072.1875,P13,D01,0,0,1
394,-0.51,1645174072.203125,P13,D01,0,0,1
395,-0.41,1645174072.21875,P13,D01,0,0,1
396,-0.2,1645174072.234375,P13,D01,0,0,1
397,0.02,1645174072.25,P13,D01,0,0,1
398,0.17,1645174072.265625,P13,D01,0,0,1
399,0.17,1645174072.28125,P13,D01,0,0,1
400,0.04,1645174072.296875,P13,D01,0,0,1
401,-0.11,1645174072.3125,P13,D01,0,0,1
402,-0.19,1645174072.328125,P13,D01,0,0,1
403,-0.16,1645174072.34375,P13,D01,0,0,1
404,-0.08,1645174072.359375,P13,D01,0,0,1
405,-0.02,1645174072.375,P13,D01,0,0,1
406,-0.04,1645174072.390625,P13,D01,0,0,1
407,-0.1,1645174072.40625,P13,D01,0,0,1
408,-0.16,1645174072.421875,P13,D01,0,0,1
409,-0.15,1645174072.4375,P13,D01,0,0,1
410,-0.07,1645174072.453125,P13,D01,0,0,1
411,0.0,1645174072.46875,P13,D01,0,0,1
412,0.0,1645174072.484375,P13,D01,0,0,1
413,-0.09,1645174072.5,P13,D01,0,0,1
414,-0.26,1645174072.515625,P13,D01,0,0,1
415,-0.41,1645174072.53125,P13,D01,0,0,1
416,-0.49,1645174072.546875,P13,D01,0,0,1
417,-0.51,1645174072.5625,P13,D01,0,0,1
418,-0.54,1645174072.578125,P13,D01,0,0,1
419,-0.64,1645174072.59375,P13,D01,0,0,1
420,-0.84,1645174072.609375,P13,D01,0,0,1
421,-1.05,1645174072.625,P13,D01,0,0,1
422,-1.15,1645174072.640625,P13,D01,0,0,1
423,-1.06,1645174072.65625,P13,D01,0,0,1
424,-0.77,1645174072.671875,P13,D01,0,0,1
425,-0.37,1645174072.6875,P13,D01,0,0,1
426,0.02,1645174072.703125,P13,D01,0,0,1
427,0.31,1645174072.71875,P13,D01,0,0,1
428,0.51,1645174072.734375,P13,D01,0,0,1
429,0.66,1645174072.75,P13,D01,0,0,1
430,0.8,1645174072.765625,P13,D01,0,0,1
431,0.93,1645174072.78125,P13,D01,0,0,1
432,0.99,1645174072.796875,P13,D01,0,0,1
433,0.86,1645174072.8125,P13,D01,0,0,1
434,0.48,1645174072.828125,P13,D01,0,0,1
435,-0.13,1645174072.84375,P13,D01,0,0,1
436,-0.83,1645174072.859375,P13,D01,0,0,1
437,-1.47,1645174072.875,P13,D01,0,0,1
438,-1.89,1645174072.890625,P13,D01,0,0,1
439,-2.01,1645174072.90625,P13,D01,0,0,1
440,-1.84,1645174072.921875,P13,D01,0,0,1
441,-1.43,1645174072.9375,P13,D01,0,0,1
442,-0.88,1645174072.953125,P13,D01,0,0,1
443,-0.28,1645174072.96875,P13,D01,0,0,1
444,0.27,1645174072.984375,P13,D01,0,0,1
445,0.71,1645174073.0,P13,D01,0,0,1
446,0.99,1645174073.015625,P13,D01,0,0,1
447,1.12,1645174073.03125,P13,D01,0,0,1
448,1.12,1645174073.046875,P13,D01,0,0,1
449,1.07,1645174073.0625,P13,D01,0,0,1
450,1.02,1645174073.078125,P13,D01,0,0,1
451,1.01,1645174073.09375,P13,D01,0,0,1
452,1.08,1645174073.109375,P13,D01,0,0,1
453,1.24,1645174073.125,P13,D01,0,0,1
454,1.48,1645174073.140625,P13,D01,0,0,1
455,1.76,1645174073.15625,P13,D01,0,0,1
456,1.98,1645174073.171875,P13,D01,0,0,1
457,2.05,1645174073.1875,P13,D01,0,0,1
458,1.9,1645174073.203125,P13,D01,0,0,1
459,1.55,1645174073.21875,P13,D01,0,0,1
460,1.12,1645174073.234375,P13,D01,0,0,1
461,0.77,1645174073.25,P13,D01,0,0,1
462,0.59,1645174073.265625,P13,D01,0,0,1
463,0.59,1645174073.28125,P13,D01,0,0,1
464,0.66,1645174073.296875,P13,D01,0,0,1
465,0.67,1645174073.3125,P13,D01,0,0,1
466,0.53,1645174073.328125,P13,D01,0,0,1
467,0.28,1645174073.34375,P13,D01,0,0,1
468,0.06,1645174073.359375,P13,D01,0,0,1
469,-0.01,1645174073.375,P13,D01,0,0,1
470,0.09,1645174073.390625,P13,D01,0,0,1
471,0.29,1645174073.40625,P13,D01,0,0,1
472,0.46,1645174073.421875,P13,D01,0,0,1
473,0.51,1645174073.4375,P13,D01,0,0,1
474,0.4,1645174073.453125,P13,D01,0,0,1
475,0.21,1645174073.46875,P13,D01,0,0,1
476,0.03,1645174073.484375,P13,D01,0,0,1
477,-0.05,1645174073.5,P13,D01,0,0,1
478,-0.01,1645174073.515625,P13,D01,0,0,1
479,0.14,1645174073.53125,P13,D01,0,0,1
480,0.36,1645174073.546875,P13,D01,0,0,1
481,0.58,1645174073.5625,P13,D01,0,0,1
482,0.71,1645174073.578125,P13,D01,0,0,1
483,0.67,1645174073.59375,P13,D01,0,0,1
484,0.39,1645174073.609375,P13,D01,0,0,1
485,-0.16,1645174073.625,P13,D01,0,0,1
486,-0.92,1645174073.640625,P13,D01,0,0,1
487,-1.78,1645174073.65625,P13,D01,0,0,1
488,-2.53,1645174073.671875,P13,D01,0,0,1
489,-2.94,1645174073.6875,P13,D01,0,0,1
490,-2.89,1645174073.703125,P13,D01,0,0,1
491,-2.33,1645174073.71875,P13,D01,0,0,1
492,-1.42,1645174073.734375,P13,D01,0,0,1
493,-0.38,1645174073.75,P13,D01,0,0,1
494,0.51,1645174073.765625,P13,D01,0,0,1
495,1.08,1645174073.78125,P13,D01,0,0,1
496,1.28,1645174073.796875,P13,D01,0,0,1
497,1.16,1645174073.8125,P13,D01,0,0,1
498,0.84,1645174073.828125,P13,D01,0,0,1
499,0.45,1645174073.84375,P13,D01,0,0,1
500,0.07,1645174073.859375,P13,D01,0,0,1
501,-0.22,1645174073.875,P13,D01,0,0,1
502,-0.36,1645174073.890625,P13,D01,0,0,1
503,-0.34,1645174073.90625,P13,D01,0,0,1
504,-0.19,1645174073.921875,P13,D01,0,0,1
505,0.02,1645174073.9375,P13,D01,0,0,1
506,0.15,1645174073.953125,P13,D01,0,0,1
507,0.12,1645174073.96875,P13,D01,0,0,1
508,-0.12,1645174073.984375,P13,D01,0,0,1
509,-0.49,1645174074.0,P13,D01,0,0,1
510,-0.83,1645174074.015625,P13,D01,0,0,1
511,-1.0,1645174074.03125,P13,D01,0,0,1
512,-0.88,1645174074.046875,P13,D01,0,0,1
513,-0.51,1645174074.0625,P13,D01,0,0,1
514,-0.01,1645174074.078125,P13,D01,0,0,1
515,0.48,1645174074.09375,P13,D01,0,0,1
516,0.79,1645174074.109375,P13,D01,0,0,1
517,0.86,1645174074.125,P13,D01,0,0,1
518,0.71,1645174074.140625,P13,D01,0,0,1
519,0.43,1645174074.15625,P13,D01,0,0,1
520,0.14,1645174074.171875,P13,D01,0,0,1
521,-0.08,1645174074.1875,P13,D01,0,0,1
522,-0.18,1645174074.203125,P13,D01,0,0,1
523,-0.21,1645174074.21875,P13,D01,0,0,1
524,-0.19,1645174074.234375,P13,D01,0,0,1
525,-0.17,1645174074.25,P13,D01,0,0,1
526,-0.13,1645174074.265625,P13,D01,0,0,1
527,-0.04,1645174074.28125,P13,D01,0,0,1
528,0.13,1645174074.296875,P13,D01,0,0,1
529,0.34,1645174074.3125,P13,D01,0,0,1
530,0.51,1645174074.328125,P13,D01,0,0,1
531,0.55,1645174074.34375,P13,D01,0,0,1
532,0.41,1645174074.359375,P13,D01,0,0,1
533,0.13,1645174074.375,P13,D01,0,0,1
534,-0.19,1645174074.390625,P13,D01,0,0,1
535,-0.47,1645174074.40625,P13,D01,0,0,1
536,-0.64,1645174074.421875,P13,D01,0,0,1
537,-0.72,1645174074.4375,P13,D01,0,0,1
538,-0.72,1645174074.453125,P13,D01,0,0,1
539,-0.68,1645174074.46875,P13,D01,0,0,1
540,-0.57,1645174074.484375,P13,D01,0,0,1
541,-0.37,1645174074.5,P13,D01,0,0,1
542,-0.08,1645174074.515625,P13,D01,0,0,1
543,0.26,1645174074.53125,P13,D01,0,0,1
544,0.57,1645174074.546875,P13,D01,0,0,1
545,0.76,1645174074.5625,P13,D01,0,0,1
546,0.77,1645174074.578125,P13,D01,0,0,1
547,0.64,1645174074.59375,P13,D01,0,0,1
548,0.41,1645174074.609375,P13,D01,0,0,1
549,0.19,1645174074.625,P13,D01,0,0,1
550,0.02,1645174074.640625,P13,D01,0,0,1
551,-0.08,1645174074.65625,P13,D01,0,0,1
552,-0.15,1645174074.671875,P13,D01,0,0,1
553,-0.24,1645174074.6875,P13,D01,0,0,1
554,-0.37,1645174074.703125,P13,D01,0,0,1
555,-0.54,1645174074.71875,P13,D01,0,0,1
556,-0.71,1645174074.734375,P13,D01,0,0,1
557,-0.81,1645174074.75,P13,D01,0,0,1
558,-0.81,1645174074.765625,P13,D01,0,0,1
559,-0.7,1645174074.78125,P13,D01,0,0,1
560,-0.54,1645174074.796875,P13,D01,0,0,1
561,-0.4,1645174074.8125,P13,D01,0,0,1
562,-0.31,1645174074.828125,P13,D01,0,0,1
563,-0.27,1645174074.84375,P13,D01,0,0,1
564,-0.22,1645174074.859375,P13,D01,0,0,1
565,-0.1,1645174074.875,P13,D01,0,0,1
566,0.09,1645174074.890625,P13,D01,0,0,1
567,0.3,1645174074.90625,P13,D01,0,0,1
568,0.46,1645174074.921875,P13,D01,0,0,1
569,0.51,1645174074.9375,P13,D01,0,0,1
570,0.46,1645174074.953125,P13,D01,0,0,1
571,0.39,1645174074.96875,P13,D01,0,0,1
572,0.39,1645174074.984375,P13,D01,0,0,1
573,0.48,1645174075.0,P13,D01,0,0,1
574,0.64,1645174075.015625,P13,D01,0,0,1
575,0.78,1645174075.03125,P13,D01,0,0,1
576,0.84,1645174075.046875,P13,D01,0,0,1
577,0.82,1645174075.0625,P13,D01,0,0,1
578,0.77,1645174075.078125,P13,D01,0,0,1
579,0.77,1645174075.09375,P13,D01,0,0,1
580,0.84,1645174075.109375,P13,D01,0,0,1
581,0.95,1645174075.125,P13,D01,0,0,1
582,1.01,1645174075.140625,P13,D01,0,0,1
583,0.95,1645174075.15625,P13,D01,0,0,1
584,0.76,1645174075.171875,P13,D01,0,0,1
585,0.48,1645174075.1875,P13,D01,0,0,1
586,0.21,1645174075.203125,P13,D01,0,0,1
587,0.01,1645174075.21875,P13,D01,0,0,1
588,-0.1,1645174075.234375,P13,D01,0,0,1
589,-0.14,1645174075.25,P13,D01,0,0,1
590,-0.14,1645174075.265625,P13,D01,0,0,1
591,-0.12,1645174075.28125,P13,D01,0,0,1
592,-0.05,1645174075.296875,P13,D01,0,0,1
593,0.07,1645174075.3125,P13,D01,0,0,1
594,0.21,1645174075.328125,P13,D01,0,0,1
595,0.29,1645174075.34375,P13,D01,0,0,1
596,0.25,1645174075.359375,P13,D01,0,0,1
597,0.07,1645174075.375,P13,D01,0,0,1
598,-0.17,1645174075.390625,P13,D01,0,0,1
599,-0.34,1645174075.40625,P13,D01,0,0,1
600,-0.34,1645174075.421875,P13,D01,0,0,1
601,-0.16,1645174075.4375,P13,D01,0,0,1
602,0.12,1645174075.453125,P13,D01,0,0,1
603,0.35,1645174075.46875,P13,D01,0,0,1
604,0.41,1645174075.484375,P13,D01,0,0,1
605,0.26,1645174075.5,P13,D01,0,0,1
606,-0.03,1645174075.515625,P13,D01,0,0,1
607,-0.35,1645174075.53125,P13,D01,0,0,1
608,-0.61,1645174075.546875,P13,D01,0,0,1
609,-0.78,1645174075.5625,P13,D01,0,0,1
610,-0.86,1645174075.578125,P13,D01,0,0,1
611,-0.88,1645174075.59375,P13,D01,0,0,1
612,-0.83,1645174075.609375,P13,D01,0,0,1
613,-0.7,1645174075.625,P13,D01,0,0,1
614,-0.47,1645174075.640625,P13,D01,0,0,1
615,-0.18,1645174075.65625,P13,D01,0,0,1
616,0.05,1645174075.671875,P13,D01,0,0,1
617,0.14,1645174075.6875,P13,D01,0,0,1
618,-0.0,1645174075.703125,P13,D01,0,0,1
619,-0.39,1645174075.71875,P13,D01,0,0,1
620,-0.95,1645174075.734375,P13,D01,0,0,1
621,-1.53,1645174075.75,P13,D01,0,0,1
622,-1.97,1645174075.765625,P13,D01,0,0,1
623,-2.12,1645174075.78125,P13,D01,0,0,1
624,-1.94,1645174075.796875,P13,D01,0,0,1
625,-1.49,1645174075.8125,P13,D01,0,0,1
626,-0.93,1645174075.828125,P13,D01,0,0,1
627,-0.41,1645174075.84375,P13,D01,0,0,1
628,-0.06,1645174075.859375,P13,D01,0,0,1
629,0.12,1645174075.875,P13,D01,0,0,1
630,0.21,1645174075.890625,P13,D01,0,0,1
631,0.33,1645174075.90625,P13,D01,0,0,1
632,0.57,1645174075.921875,P13,D01,0,0,1
633,0.93,1645174075.9375,P13,D01,0,0,1
634,1.32,1645174075.953125,P13,D01,0,0,1
635,1.62,1645174075.96875,P13,D01,0,0,1
636,1.76,1645174075.984375,P13,D01,0,0,1
637,1.74,1645174076.0,P13,D01,0,0,1
638,1.62,1645174076.015625,P13,D01,0,0,1
639,1.46,1645174076.03125,P13,D01,0,0,1
640,1.27,1645174076.046875,P13,D01,0,0,1
641,1.04,1645174076.0625,P13,D01,0,0,1
642,0.74,1645174076.078125,P13,D01,0,0,1
643,0.36,1645174076.09375,P13,D01,0,0,1
644,-0.05,1645174076.109375,P13,D01,0,0,1
645,-0.44,1645174076.125,P13,D01,0,0,1
646,-0.75,1645174076.140625,P13,D01,0,0,1
647,-0.97,1645174076.15625,P13,D01,0,0,1
648,-1.1,1645174076.171875,P13,D01,0,0,1
649,-1.19,1645174076.1875,P13,D01,0,0,1
650,-1.23,1645174076.203125,P13,D01,0,0,1
651,-1.24,1645174076.21875,P13,D01,0,0,1
652,-1.22,1645174076.234375,P13,D01,0,0,1
653,-1.18,1645174076.25,P13,D01,0,0,1
654,-1.15,1645174076.265625,P13,D01,0,0,1
655,-1.09,1645174076.28125,P13,D01,0,0,1
656,-1.0,1645174076.296875,P13,D01,0,0,1
657,-0.87,1645174076.3125,P13,D01,0,0,1
658,-0.72,1645174076.328125,P13,D01,0,0,1
659,-0.63,1645174076.34375,P13,D01,0,0,1
660,-0.67,1645174076.359375,P13,D01,0,0,1
661,-0.85,1645174076.375,P13,D01,0,0,1
662,-1.09,1645174076.390625,P13,D01,0,0,1
663,-1.24,1645174076.40625,P13,D01,0,0,1
664,-1.18,1645174076.421875,P13,D01,0,0,1
665,-0.86,1645174076.4375,P13,D01,0,0,1
666,-0.35,1645174076.453125,P13,D01,0,0,1
667,0.18,1645174076.46875,P13,D01,0,0,1
668,0.56,1645174076.484375,P13,D01,0,0,1
669,0.69,1645174076.5,P13,D01,0,0,1
670,0.58,1645174076.515625,P13,D01,0,0,1
671,0.3,1645174076.53125,P13,D01,0,0,1
672,-0.01,1645174076.546875,P13,D01,0,0,1
673,-0.19,1645174076.5625,P13,D01,0,0,1
674,-0.15,1645174076.578125,P13,D01,0,0,1
675,0.15,1645174076.59375,P13,D01,0,0,1
676,0.66,1645174076.609375,P13,D01,0,0,1
677,1.27,1645174076.625,P13,D01,0,0,1
678,1.82,1645174076.640625,P13,D01,0,0,1
679,2.23,1645174076.65625,P13,D01,0,0,1
680,2.43,1645174076.671875,P13,D01,0,0,1
681,2.49,1645174076.6875,P13,D01,0,0,1
682,2.49,1645174076.703125,P13,D01,0,0,1
683,2.53,1645174076.71875,P13,D01,0,0,1
684,2.65,1645174076.734375,P13,D01,0,0,1
685,2.83,1645174076.75,P13,D01,0,0,1
686,2.96,1645174076.765625,P13,D01,0,0,1
687,2.92,1645174076.78125,P13,D01,0,0,1
688,2.6,1645174076.796875,P13,D01,0,0,1
689,1.99,1645174076.8125,P13,D01,0,0,1
690,1.21,1645174076.828125,P13,D01,0,0,1
691,0.45,1645174076.84375,P13,D01,0,0,1
692,-0.1,1645174076.859375,P13,D01,0,0,1
693,-0.34,1645174076.875,P13,D01,0,0,1
694,-0.31,1645174076.890625,P13,D01,0,0,1
695,-0.14,1645174076.90625,P13,D01,0,0,1
696,0.0,1645174076.921875,P13,D01,0,0,1
697,0.03,1645174076.9375,P13,D01,0,0,1
698,-0.05,1645174076.953125,P13,D01,0,0,1
699,-0.15,1645174076.96875,P13,D01,0,0,1
700,-0.2,1645174076.984375,P13,D01,0,0,1
701,-0.2,1645174077.0,P13,D01,0,0,1
702,-0.22,1645174077.015625,P13,D01,0,0,1
703,-0.35,1645174077.03125,P13,D01,0,0,1
704,-0.6,1645174077.046875,P13,D01,0,0,1
705,-0.89,1645174077.0625,P13,D01,0,0,1
706,-1.08,1645174077.078125,P13,D01,0,0,1
707,-1.07,1645174077.09375,P13,D01,0,0,1
708,-0.79,1645174077.109375,P13,D01,0,0,1
709,-0.33,1645174077.125,P13,D01,0,0,1
710,0.17,1645174077.140625,P13,D01,0,0,1
711,0.57,1645174077.15625,P13,D01,0,0,1
712,0.79,1645174077.171875,P13,D01,0,0,1
713,0.84,1645174077.1875,P13,D01,0,0,1
714,0.79,1645174077.203125,P13,D01,0,0,1
715,0.74,1645174077.21875,P13,D01,0,0,1
716,0.73,1645174077.234375,P13,D01,0,0,1
717,0.76,1645174077.25,P13,D01,0,0,1
718,0.79,1645174077.265625,P13,D01,0,0,1
719,0.74,1645174077.28125,P13,D01,0,0,1
720,0.59,1645174077.296875,P13,D01,0,0,1
721,0.34,1645174077.3125,P13,D01,0,0,1
722,0.02,1645174077.328125,P13,D01,0,0,1
723,-0.31,1645174077.34375,P13,D01,0,0,1
724,-0.61,1645174077.359375,P13,D01,0,0,1
725,-0.84,1645174077.375,P13,D01,0,0,1
726,-0.98,1645174077.390625,P13,D01,0,0,1
727,-1.02,1645174077.40625,P13,D01,0,0,1
728,-0.99,1645174077.421875,P13,D01,0,0,1
729,-0.9,1645174077.4375,P13,D01,0,0,1
730,-0.79,1645174077.453125,P13,D01,0,0,1
731,-0.66,1645174077.46875,P13,D01,0,0,1
732,-0.52,1645174077.484375,P13,D01,0,0,1
733,-0.37,1645174077.5,P13,D01,0,0,1
734,-0.23,1645174077.515625,P13,D01,0,0,1
735,-0.12,1645174077.53125,P13,D01,0,0,1
736,-0.1,1645174077.546875,P13,D01,0,0,1
737,-0.17,1645174077.5625,P13,D01,0,0,1
738,-0.35,1645174077.578125,P13,D01,0,0,1
739,-0.61,1645174077.59375,P13,D01,0,0,1
740,-0.91,1645174077.609375,P13,D01,0,0,1
741,-1.23,1645174077.625,P13,D01,0,0,1
742,-1.55,1645174077.640625,P13,D01,0,0,1
743,-1.82,1645174077.65625,P13,D01,0,0,1
744,-2.02,1645174077.671875,P13,D01,0,0,1
745,-2.08,1645174077.6875,P13,D01,0,0,1
746,-2.0,1645174077.703125,P13,D01,0,0,1
747,-1.81,1645174077.71875,P13,D01,0,0,1
748,-1.63,1645174077.734375,P13,D01,0,0,1
749,-1.54,1645174077.75,P13,D01,0,0,1
750,-1.57,1645174077.765625,P13,D01,0,0,1
751,-1.66,1645174077.78125,P13,D01,0,0,1
752,-1.7,1645174077.796875,P13,D01,0,0,1
753,-1.58,1645174077.8125,P13,D01,0,0,1
754,-1.28,1645174077.828125,P13,D01,0,0,1
755,-0.89,1645174077.84375,P13,D01,0,0,1
756,-0.55,1645174077.859375,P13,D01,0,0,1
757,-0.36,1645174077.875,P13,D01,0,0,1
758,-0.34,1645174077.890625,P13,D01,0,0,1
759,-0.43,1645174077.90625,P13,D01,0,0,1
760,-0.54,1645174077.921875,P13,D01,0,0,1
761,-0.62,1645174077.9375,P13,D01,0,0,1
762,-0.67,1645174077.953125,P13,D01,0,0,1
763,-0.7,1645174077.96875,P13,D01,0,0,1
764,-0.67,1645174077.984375,P13,D01,0,0,1
765,-0.51,1645174078.0,P13,D01,0,0,1
766,-0.14,1645174078.015625,P13,D01,0,0,1
767,0.41,1645174078.03125,P13,D01,0,0,1
768,1.01,1645174078.046875,P13,D01,0,0,1
769,1.46,1645174078.0625,P13,D01,0,0,1
770,1.6,1645174078.078125,P13,D01,0,0,1
771,1.4,1645174078.09375,P13,D01,0,0,1
772,1.02,1645174078.109375,P13,D01,0,0,1
773,0.69,1645174078.125,P13,D01,0,0,1
774,0.6,1645174078.140625,P13,D01,0,0,1
775,0.76,1645174078.15625,P13,D01,0,0,1
776,1.03,1645174078.171875,P13,D01,0,0,1
777,1.18,1645174078.1875,P13,D01,0,0,1
778,1.05,1645174078.203125,P13,D01,0,0,1
779,0.62,1645174078.21875,P13,D01,0,0,1
780,0.02,1645174078.234375,P13,D01,0,0,1
781,-0.56,1645174078.25,P13,D01,0,0,1
782,-0.97,1645174078.265625,P13,D01,0,0,1
783,-1.12,1645174078.28125,P13,D01,0,0,1
784,-1.06,1645174078.296875,P13,D01,0,0,1
785,-0.89,1645174078.3125,P13,D01,0,0,1
786,-0.72,1645174078.328125,P13,D01,0,0,1
787,-0.62,1645174078.34375,P13,D01,0,0,1
788,-0.58,1645174078.359375,P13,D01,0,0,1
789,-0.59,1645174078.375,P13,D01,0,0,1
790,-0.65,1645174078.390625,P13,D01,0,0,1
791,-0.76,1645174078.40625,P13,D01,0,0,1
792,-0.96,1645174078.421875,P13,D01,0,0,1
793,-1.26,1645174078.4375,P13,D01,0,0,1
794,-1.59,1645174078.453125,P13,D01,0,0,1
795,-1.82,1645174078.46875,P13,D01,0,0,1
796,-1.82,1645174078.484375,P13,D01,0,0,1
797,-1.53,1645174078.5,P13,D01,0,0,1
798,-1.01,1645174078.515625,P13,D01,0,0,1
799,-0.41,1645174078.53125,P13,D01,0,0,1
800,0.13,1645174078.546875,P13,D01,0,0,1
801,0.52,1645174078.5625,P13,D01,0,0,1
802,0.79,1645174078.578125,P13,D01,0,0,1
803,1.04,1645174078.59375,P13,D01,0,0,1
804,1.3,1645174078.609375,P13,D01,0,0,1
805,1.58,1645174078.625,P13,D01,0,0,1
806,1.82,1645174078.640625,P13,D01,0,0,1
807,1.96,1645174078.65625,P13,D01,0,0,1
808,2.0,1645174078.671875,P13,D01,0,0,1
809,2.02,1645174078.6875,P13,D01,0,0,1
810,2.12,1645174078.703125,P13,D01,0,0,1
811,2.31,1645174078.71875,P13,D01,0,0,1
812,2.57,1645174078.734375,P13,D01,0,0,1
813,2.78,1645174078.75,P13,D01,0,0,1
814,2.85,1645174078.765625,P13,D01,0,0,1
815,2.71,1645174078.78125,P13,D01,0,0,1
816,2.4,1645174078.796875,P13,D01,0,0,1
817,1.95,1645174078.8125,P13,D01,0,0,1
818,1.46,1645174078.828125,P13,D01,0,0,1
819,0.96,1645174078.84375,P13,D01,0,0,1
820,0.5,1645174078.859375,P13,D01,0,0,1
821,0.08,1645174078.875,P13,D01,0,0,1
822,-0.27,1645174078.890625,P13,D01,0,0,1
823,-0.56,1645174078.90625,P13,D01,0,0,1
824,-0.76,1645174078.921875,P13,D01,0,0,1
825,-0.88,1645174078.9375,P13,D01,0,0,1
826,-0.91,1645174078.953125,P13,D01,0,0,1
827,-0.89,1645174078.96875,P13,D01,0,0,1
828,-0.84,1645174078.984375,P13,D01,0,0,1
829,-0.76,1645174079.0,P13,D01,0,0,1
830,-0.62,1645174079.015625,P13,D01,0,0,1
831,-0.39,1645174079.03125,P13,D01,0,0,1
832,-0.03,1645174079.046875,P13,D01,0,0,1
833,0.44,1645174079.0625,P13,D01,0,0,1
834,0.93,1645174079.078125,P13,D01,0,0,1
835,1.34,1645174079.09375,P13,D01,0,0,1
836,1.54,1645174079.109375,P13,D01,0,0,1
837,1.46,1645174079.125,P13,D01,0,0,1
838,1.13,1645174079.140625,P13,D01,0,0,1
839,0.64,1645174079.15625,P13,D01,0,0,1
840,0.11,1645174079.171875,P13,D01,0,0,1
841,-0.32,1645174079.1875,P13,D01,0,0,1
842,-0.56,1645174079.203125,P13,D01,0,0,1
843,-0.59,1645174079.21875,P13,D01,0,0,1
844,-0.4,1645174079.234375,P13,D01,0,0,1
845,-0.07,1645174079.25,P13,D01,0,0,1
846,0.29,1645174079.265625,P13,D01,0,0,1
847,0.58,1645174079.28125,P13,D01,0,0,1
848,0.71,1645174079.296875,P13,D01,0,0,1
849,0.65,1645174079.3125,P13,D01,0,0,1
850,0.42,1645174079.328125,P13,D01,0,0,1
851,0.06,1645174079.34375,P13,D01,0,0,1
852,-0.35,1645174079.359375,P13,D01,0,0,1
853,-0.78,1645174079.375,P13,D01,0,0,1
854,-1.17,1645174079.390625,P13,D01,0,0,1
855,-1.46,1645174079.40625,P13,D01,0,0,1
856,-1.59,1645174079.421875,P13,D01,0,0,1
857,-1.49,1645174079.4375,P13,D01,0,0,1
858,-1.16,1645174079.453125,P13,D01,0,0,1
859,-0.63,1645174079.46875,P13,D01,0,0,1
860,-0.02,1645174079.484375,P13,D01,0,0,1
861,0.54,1645174079.5,P13,D01,0,0,1
862,0.94,1645174079.515625,P13,D01,0,0,1
863,1.09,1645174079.53125,P13,D01,0,0,1
864,1.0,1645174079.546875,P13,D01,0,0,1
865,0.68,1645174079.5625,P13,D01,0,0,1
866,0.25,1645174079.578125,P13,D01,0,0,1
867,-0.21,1645174079.59375,P13,D01,0,0,1
868,-0.59,1645174079.609375,P13,D01,0,0,1
869,-0.82,1645174079.625,P13,D01,0,0,1
870,-0.91,1645174079.640625,P13,D01,0,0,1
871,-0.86,1645174079.65625,P13,D01,0,0,1
872,-0.73,1645174079.671875,P13,D01,0,0,1
873,-0.54,1645174079.6875,P13,D01,0,0,1
874,-0.33,1645174079.703125,P13,D01,0,0,1
875,-0.14,1645174079.71875,P13,D01,0,0,1
876,-0.01,1645174079.734375,P13,D01,0,0,1
877,0.01,1645174079.75,P13,D01,0,0,1
878,-0.06,1645174079.765625,P13,D01,0,0,1
879,-0.2,1645174079.78125,P13,D01,0,0,1
880,-0.32,1645174079.796875,P13,D01,0,0,1
881,-0.36,1645174079.8125,P13,D01,0,0,1
882,-0.31,1645174079.828125,P13,D01,0,0,1
883,-0.18,1645174079.84375,P13,D01,0,0,1
884,-0.06,1645174079.859375,P13,D01,0,0,1
885,-0.02,1645174079.875,P13,D01,0,0,1
886,-0.06,1645174079.890625,P13,D01,0,0,1
887,-0.17,1645174079.90625,P13,D01,0,0,1
888,-0.28,1645174079.921875,P13,D01,0,0,1
889,-0.32,1645174079.9375,P13,D01,0,0,1
890,-0.27,1645174079.953125,P13,D01,0,0,1
891,-0.12,1645174079.96875,P13,D01,0,0,1
892,0.09,1645174079.984375,P13,D01,0,0,1
893,0.3,1645174080.0,P13,D01,0,0,1
894,0.41,1645174080.015625,P13,D01,0,0,1
895,0.38,1645174080.03125,P13,D01,0,0,1
896,0.2,1645174080.046875,P13,D01,0,0,1
897,-0.09,1645174080.0625,P13,D01,0,0,1
898,-0.37,1645174080.078125,P13,D01,0,0,1
899,-0.54,1645174080.09375,P13,D01,0,0,1
900,-0.55,1645174080.109375,P13,D01,0,0,1
901,-0.41,1645174080.125,P13,D01,0,0,1
902,-0.2,1645174080.140625,P13,D01,0,0,1
903,-0.05,1645174080.15625,P13,D01,0,0,1
904,-0.03,1645174080.171875,P13,D01,0,0,1
905,-0.15,1645174080.1875,P13,D01,0,0,1
906,-0.35,1645174080.203125,P13,D01,0,0,1
907,-0.57,1645174080.21875,P13,D01,0,0,1
908,-0.74,1645174080.234375,P13,D01,0,0,1
909,-0.85,1645174080.25,P13,D01,0,0,1
910,-0.95,1645174080.265625,P13,D01,0,0,1
911,-1.05,1645174080.28125,P13,D01,0,0,1
912,-1.16,1645174080.296875,P13,D01,0,0,1
913,-1.24,1645174080.3125,P13,D01,0,0,1
914,-1.23,1645174080.328125,P13,D01,0,0,1
915,-1.09,1645174080.34375,P13,D01,0,0,1
916,-0.84,1645174080.359375,P13,D01,0,0,1
917,-0.54,1645174080.375,P13,D01,0,0,1
918,-0.27,1645174080.390625,P13,D01,0,0,1
919,-0.11,1645174080.40625,P13,D01,0,0,1
920,-0.1,1645174080.421875,P13,D01,0,0,1
921,-0.22,1645174080.4375,P13,D01,0,0,1
922,-0.38,1645174080.453125,P13,D01,0,0,1
923,-0.48,1645174080.46875,P13,D01,0,0,1
924,-0.44,1645174080.484375,P13,D01,0,0,1
925,-0.26,1645174080.5,P13,D01,0,0,1
926,0.02,1645174080.515625,P13,D01,0,0,1
927,0.31,1645174080.53125,P13,D01,0,0,1
928,0.56,1645174080.546875,P13,D01,0,0,1
929,0.75,1645174080.5625,P13,D01,0,0,1
930,0.91,1645174080.578125,P13,D01,0,0,1
931,1.1,1645174080.59375,P13,D01,0,0,1
932,1.33,1645174080.609375,P13,D01,0,0,1
933,1.55,1645174080.625,P13,D01,0,0,1
934,1.71,1645174080.640625,P13,D01,0,0,1
935,1.75,1645174080.65625,P13,D01,0,0,1
936,1.64,1645174080.671875,P13,D01,0,0,1
937,1.42,1645174080.6875,P13,D01,0,0,1
938,1.13,1645174080.703125,P13,D01,0,0,1
939,0.87,1645174080.71875,P13,D01,0,0,1
940,0.7,1645174080.734375,P13,D01,0,0,1
941,0.69,1645174080.75,P13,D01,0,0,1
942,0.85,1645174080.765625,P13,D01,0,0,1
943,1.09,1645174080.78125,P13,D01,0,0,1
944,1.33,1645174080.796875,P13,D01,0,0,1
945,1.44,1645174080.8125,P13,D01,0,0,1
946,1.37,1645174080.828125,P13,D01,0,0,1
947,1.14,1645174080.84375,P13,D01,0,0,1
948,0.82,1645174080.859375,P13,D01,0,0,1
949,0.5,1645174080.875,P13,D01,0,0,1
950,0.23,1645174080.890625,P13,D01,0,0,1
951,-0.02,1645174080.90625,P13,D01,0,0,1
952,-0.27,1645174080.921875,P13,D01,0,0,1
953,-0.51,1645174080.9375,P13,D01,0,0,1
954,-0.72,1645174080.953125,P13,D01,0,0,1
955,-0.82,1645174080.96875,P13,D01,0,0,1
956,-0.78,1645174080.984375,P13,D01,0,0,1
957,-0.6,1645174081.0,P13,D01,0,0,1
958,-0.34,1645174081.015625,P13,D01,0,0,1
959,-0.05,1645174081.03125,P13,D01,0,0,1
960,0.22,1645174081.046875,P13,D01,0,0,1
961,0.45,1645174081.0625,P13,D01,0,0,1
962,0.64,1645174081.078125,P13,D01,0,0,1
963,0.78,1645174081.09375,P13,D01,0,0,1
964,0.85,1645174081.109375,P13,D01,0,0,1
965,0.82,1645174081.125,P13,D01,0,0,1
966,0.72,1645174081.140625,P13,D01,0,0,1
967,0.56,1645174081.15625,P13,D01,0,0,1
968,0.44,1645174081.171875,P13,D01,0,0,1
969,0.38,1645174081.1875,P13,D01,0,0,1
970,0.37,1645174081.203125,P13,D01,0,0,1
971,0.37,1645174081.21875,P13,D01,0,0,1
972,0.3,1645174081.234375,P13,D01,0,0,1
973,0.15,1645174081.25,P13,D01,0,0,1
974,-0.05,1645174081.265625,P13,D01,0,0,1
975,-0.22,1645174081.28125,P13,D01,0,0,1
976,-0.33,1645174081.296875,P13,D01,0,0,1
977,-0.41,1645174081.3125,P13,D01,0,0,1
978,-0.53,1645174081.328125,P13,D01,0,0,1
979,-0.74,1645174081.34375,P13,D01,0,0,1
980,-1.03,1645174081.359375,P13,D01,0,0,1
981,-1.27,1645174081.375,P13,D01,0,0,1
982,-1.33,1645174081.390625,P13,D01,0,0,1
983,-1.14,1645174081.40625,P13,D01,0,0,1
984,-0.79,1645174081.421875,P13,D01,0,0,1
985,-0.45,1645174081.4375,P13,D01,0,0,1
986,-0.32,1645174081.453125,P13,D01,0,0,1
987,-0.52,1645174081.46875,P13,D01,0,0,1
988,-0.98,1645174081.484375,P13,D01,0,0,1
989,-1.53,1645174081.5,P13,D01,0,0,1
990,-1.92,1645174081.515625,P13,D01,0,0,1
991,-1.98,1645174081.53125,P13,D01,0,0,1
992,-1.68,1645174081.546875,P13,D01,0,0,1
993,-1.12,1645174081.5625,P13,D01,0,0,1
994,-0.52,1645174081.578125,P13,D01,0,0,1
995,-0.07,1645174081.59375,P13,D01,0,0,1
996,0.1,1645174081.609375,P13,D01,0,0,1
997,-0.01,1645174081.625,P13,D01,0,0,1
998,-0.32,1645174081.640625,P13,D01,0,0,1
999,-0.67,1645174081.65625,P13,D01,0,0,1
1000,-0.94,1645174081.671875,P13,D01,0,0,1
1001,-1.05,1645174081.6875,P13,D01,0,0,1
1002,-0.98,1645174081.703125,P13,D01,0,0,1
1003,-0.76,1645174081.71875,P13,D01,0,0,1
1004,-0.46,1645174081.734375,P13,D01,0,0,1
1005,-0.1,1645174081.75,P13,D01,0,0,1
1006,0.26,1645174081.765625,P13,D01,0,0,1
1007,0.57,1645174081.78125,P13,D01,0,0,1
1008,0.75,1645174081.796875,P13,D01,0,0,1
1009,0.73,1645174081.8125,P13,D01,0,0,1
1010,0.49,1645174081.828125,P13,D01,0,0,1
1011,0.05,1645174081.84375,P13,D01,0,0,1
1012,-0.46,1645174081.859375,P13,D01,0,0,1
1013,-0.92,1645174081.875,P13,D01,0,0,1
1014,-1.24,1645174081.890625,P13,D01,0,0,1
1015,-1.37,1645174081.90625,P13,D01,0,0,1
1016,-1.33,1645174081.921875,P13,D01,0,0,1
1017,-1.17,1645174081.9375,P13,D01,0,0,1
1018,-0.96,1645174081.953125,P13,D01,0,0,1
1019,-0.72,1645174081.96875,P13,D01,0,0,1
1020,-0.46,1645174081.984375,P13,D01,0,0,1
1021,-0.17,1645174082.0,P13,D01,0,0,1
1022,0.13,1645174082.015625,P13,D01,0,0,1
1023,0.38,1645174082.03125,P13,D01,0,0,1
1024,0.51,1645174082.046875,P13,D01,0,0,1
1025,0.46,1645174082.0625,P13,D01,0,0,1
1026,0.23,1645174082.078125,P13,D01,0,0,1
1027,-0.11,1645174082.09375,P13,D01,0,0,1
1028,-0.43,1645174082.109375,P13,D01,0,0,1
1029,-0.6,1645174082.125,P13,D01,0,0,1
1030,-0.57,1645174082.140625,P13,D01,0,0,1
1031,-0.37,1645174082.15625,P13,D01,0,0,1
1032,-0.12,1645174082.171875,P13,D01,0,0,1
1033,0.07,1645174082.1875,P13,D01,0,0,1
1034,0.13,1645174082.203125,P13,D01,0,0,1
1035,0.07,1645174082.21875,P13,D01,0,0,1
1036,-0.04,1645174082.234375,P13,D01,0,0,1
1037,-0.12,1645174082.25,P13,D01,0,0,1
1038,-0.17,1645174082.265625,P13,D01,0,0,1
1039,-0.2,1645174082.28125,P13,D01,0,0,1
1040,-0.27,1645174082.296875,P13,D01,0,0,1
1041,-0.4,1645174082.3125,P13,D01,0,0,1
1042,-0.54,1645174082.328125,P13,D01,0,0,1
1043,-0.64,1645174082.34375,P13,D01,0,0,1
1044,-0.63,1645174082.359375,P13,D01,0,0,1
1045,-0.54,1645174082.375,P13,D01,0,0,1
1046,-0.42,1645174082.390625,P13,D01,0,0,1
1047,-0.36,1645174082.40625,P13,D01,0,0,1
1048,-0.43,1645174082.421875,P13,D01,0,0,1
1049,-0.59,1645174082.4375,P13,D01,0,0,1
1050,-0.74,1645174082.453125,P13,D01,0,0,1
1051,-0.74,1645174082.46875,P13,D01,0,0,1
1052,-0.52,1645174082.484375,P13,D01,0,0,1
1053,-0.06,1645174082.5,P13,D01,0,0,1
1054,0.53,1645174082.515625,P13,D01,0,0,1
1055,1.09,1645174082.53125,P13,D01,0,0,1
1056,1.48,1645174082.546875,P13,D01,0,0,1
1057,1.61,1645174082.5625,P13,D01,0,0,1
1058,1.54,1645174082.578125,P13,D01,0,0,1
1059,1.36,1645174082.59375,P13,D01,0,0,1
1060,1.21,1645174082.609375,P13,D01,0,0,1
1061,1.12,1645174082.625,P13,D01,0,0,1
1062,1.08,1645174082.640625,P13,D01,0,0,1
1063,1.02,1645174082.65625,P13,D01,0,0,1
1064,0.89,1645174082.671875,P13,D01,0,0,1
1065,0.74,1645174082.6875,P13,D01,0,0,1
1066,0.66,1645174082.703125,P13,D01,0,0,1
1067,0.77,1645174082.71875,P13,D01,0,0,1
1068,1.05,1645174082.734375,P13,D01,0,0,1
1069,1.39,1645174082.75,P13,D01,0,0,1
1070,1.59,1645174082.765625,P13,D01,0,0,1
1071,1.52,1645174082.78125,P13,D01,0,0,1
1072,1.18,1645174082.796875,P13,D01,0,0,1
1073,0.71,1645174082.8125,P13,D01,0,0,1
1074,0.32,1645174082.828125,P13,D01,0,0,1
1075,0.15,1645174082.84375,P13,D01,0,0,1
1076,0.24,1645174082.859375,P13,D01,0,0,1
1077,0.46,1645174082.875,P13,D01,0,0,1
1078,0.64,1645174082.890625,P13,D01,0,0,1
1079,0.64,1645174082.90625,P13,D01,0,0,1
1080,0.42,1645174082.921875,P13,D01,0,0,1
1081,0.06,1645174082.9375,P13,D01,0,0,1
1082,-0.3,1645174082.953125,P13,D01,0,0,1
1083,-0.51,1645174082.96875,P13,D01,0,0,1
1084,-0.47,1645174082.984375,P13,D01,0,0,1
1085,-0.16,1645174083.0,P13,D01,0,0,1
1086,0.37,1645174083.015625,P13,D01,0,0,1
1087,0.98,1645174083.03125,P13,D01,0,0,1
1088,1.49,1645174083.046875,P13,D01,0,0,1
1089,1.76,1645174083.0625,P13,D01,0,0,1
1090,1.69,1645174083.078125,P13,D01,0,0,1
1091,1.31,1645174083.09375,P13,D01,0,0,1
1092,0.72,1645174083.109375,P13,D01,0,0,1
1093,0.09,1645174083.125,P13,D01,0,0,1
1094,-0.39,1645174083.140625,P13,D01,0,0,1
1095,-0.64,1645174083.15625,P13,D01,0,0,1
1096,-0.6,1645174083.171875,P13,D01,0,0,1
1097,-0.34,1645174083.1875,P13,D01,0,0,1
1098,0.03,1645174083.203125,P13,D01,0,0,1
1099,0.42,1645174083.21875,P13,D01,0,0,1
1100,0.75,1645174083.234375,P13,D01,0,0,1
1101,1.02,1645174083.25,P13,D01,0,0,1
1102,1.25,1645174083.265625,P13,D01,0,0,1
1103,1.48,1645174083.28125,P13,D01,0,0,1
1104,1.71,1645174083.296875,P13,D01,0,0,1
1105,1.89,1645174083.3125,P13,D01,0,0,1
1106,1.96,1645174083.328125,P13,D01,0,0,1
1107,1.88,1645174083.34375,P13,D01,0,0,1
1108,1.64,1645174083.359375,P13,D01,0,0,1
1109,1.31,1645174083.375,P13,D01,0,0,1
1110,0.96,1645174083.390625,P13,D01,0,0,1
1111,0.64,1645174083.40625,P13,D01,0,0,1
1112,0.37,1645174083.421875,P13,D01,0,0,1
1113,0.15,1645174083.4375,P13,D01,0,0,1
1114,-0.03,1645174083.453125,P13,D01,0,0,1
1115,-0.17,1645174083.46875,P13,D01,0,0,1
1116,-0.29,1645174083.484375,P13,D01,0,0,1
1117,-0.35,1645174083.5,P13,D01,0,0,1
1118,-0.34,1645174083.515625,P13,D01,0,0,1
1119,-0.21,1645174083.53125,P13,D01,0,0,1
1120,0.06,1645174083.546875,P13,D01,0,0,1
1121,0.47,1645174083.5625,P13,D01,0,0,1
1122,0.96,1645174083.578125,P13,D01,0,0,1
1123,1.45,1645174083.59375,P13,D01,0,0,1
1124,1.82,1645174083.609375,P13,D01,0,0,1
1125,2.03,1645174083.625,P13,D01,0,0,1
1126,2.08,1645174083.640625,P13,D01,0,0,1
1127,2.04,1645174083.65625,P13,D01,0,0,1
1128,1.99,1645174083.671875,P13,D01,0,0,1
1129,1.99,1645174083.6875,P13,D01,0,0,1
1130,2.03,1645174083.703125,P13,D01,0,0,1
1131,2.03,1645174083.71875,P13,D01,0,0,1
1132,1.95,1645174083.734375,P13,D01,0,0,1
1133,1.8,1645174083.75,P13,D01,0,0,1
1134,1.64,1645174083.765625,P13,D01,0,0,1
1135,1.59,1645174083.78125,P13,D01,0,0,1
1136,1.69,1645174083.796875,P13,D01,0,0,1
1137,1.91,1645174083.8125,P13,D01,0,0,1
1138,2.17,1645174083.828125,P13,D01,0,0,1
1139,2.36,1645174083.84375,P13,D01,0,0,1
1140,2.4,1645174083.859375,P13,D01,0,0,1
1141,2.28,1645174083.875,P13,D01,0,0,1
1142,2.02,1645174083.890625,P13,D01,0,0,1
1143,1.69,1645174083.90625,P13,D01,0,0,1
1144,1.38,1645174083.921875,P13,D01,0,0,1
1145,1.14,1645174083.9375,P13,D01,0,0,1
1146,1.05,1645174083.953125,P13,D01,0,0,1
1147,1.1,1645174083.96875,P13,D01,0,0,1
1148,1.29,1645174083.984375,P13,D01,0,0,1
1149,1.55,1645174084.0,P13,D01,0,0,1
1150,1.82,1645174084.015625,P13,D01,0,0,1
1151,2.03,1645174084.03125,P13,D01,0,0,1
1152,2.1,1645174084.046875,P13,D01,0,0,1
1153,1.99,1645174084.0625,P13,D01,0,0,1
1154,1.68,1645174084.078125,P13,D01,0,0,1
1155,1.23,1645174084.09375,P13,D01,0,0,1
1156,0.7,1645174084.109375,P13,D01,0,0,1
1157,0.26,1645174084.125,P13,D01,0,0,1
1158,0.05,1645174084.140625,P13,D01,0,0,1
1159,0.17,1645174084.15625,P13,D01,0,0,1
1160,0.65,1645174084.171875,P13,D01,0,0,1
1161,1.36,1645174084.1875,P13,D01,0,0,1
1162,2.12,1645174084.203125,P13,D01,0,0,1
1163,2.72,1645174084.21875,P13,D01,0,0,1
1164,3.0,1645174084.234375,P13,D01,0,0,1
1165,2.9,1645174084.25,P13,D01,0,0,1
1166,2.43,1645174084.265625,P13,D01,0,0,1
1167,1.65,1645174084.28125,P13,D01,0,0,1
1168,0.6,1645174084.296875,P13,D01,0,0,1
1169,-0.67,1645174084.3125,P13,D01,0,0,1
1170,-2.11,1645174084.328125,P13,D01,0,0,1
1171,-3.63,1645174084.34375,P13,D01,0,0,1
1172,-5.13,1645174084.359375,P13,D01,0,0,1
1173,-6.47,1645174084.375,P13,D01,0,0,1
1174,-7.51,1645174084.390625,P13,D01,0,0,1
1175,-8.15,1645174084.40625,P13,D01,0,0,1
1176,-8.36,1645174084.421875,P13,D01,0,0,1
1177,-8.19,1645174084.4375,P13,D01,0,0,1
1178,-7.79,1645174084.453125,P13,D01,0,0,1
1179,-7.29,1645174084.46875,P13,D01,0,0,1
1180,-6.83,1645174084.484375,P13,D01,0,0,1
1181,-6.5,1645174084.5,P13,D01,0,0,1
1182,-6.34,1645174084.515625,P13,D01,0,0,1
1183,-6.32,1645174084.53125,P13,D01,0,0,1
1184,-6.32,1645174084.546875,P13,D01,0,0,1
1185,-6.17,1645174084.5625,P13,D01,0,0,1
1186,-5.67,1645174084.578125,P13,D01,0,0,1
1187,-4.68,1645174084.59375,P13,D01,0,0,1
1188,-3.23,1645174084.609375,P13,D01,0,0,1
1189,-1.53,1645174084.625,P13,D01,0,0,1
1190,0.08,1645174084.640625,P13,D01,0,0,1
1191,1.24,1645174084.65625,P13,D01,0,0,1
1192,1.75,1645174084.671875,P13,D01,0,0,1
1193,1.63,1645174084.6875,P13,D01,0,0,1
1194,1.13,1645174084.703125,P13,D01,0,0,1
1195,0.55,1645174084.71875,P13,D01,0,0,1
1196,0.16,1645174084.734375,P13,D01,0,0,1
1197,0.09,1645174084.75,P13,D01,0,0,1
1198,0.34,1645174084.765625,P13,D01,0,0,1
1199,0.84,1645174084.78125,P13,D01,0,0,1
1200,1.48,1645174084.796875,P13,D01,0,0,1
1201,2.19,1645174084.8125,P13,D01,0,0,1
1202,2.92,1645174084.828125,P13,D01,0,0,1
1203,3.61,1645174084.84375,P13,D01,0,0,1
1204,4.21,1645174084.859375,P13,D01,0,0,1
1205,4.7,1645174084.875,P13,D01,0,0,1
1206,5.04,1645174084.890625,P13,D01,0,0,1
1207,5.21,1645174084.90625,P13,D01,0,0,1
1208,5.2,1645174084.921875,P13,D01,0,0,1
1209,4.99,1645174084.9375,P13,D01,0,0,1
1210,4.62,1645174084.953125,P13,D01,0,0,1
1211,4.1,1645174084.96875,P13,D01,0,0,1
1212,3.49,1645174084.984375,P13,D01,0,0,1
1213,2.82,1645174085.0,P13,D01,0,0,1
1214,2.07,1645174085.015625,P13,D01,0,0,1
1215,1.26,1645174085.03125,P13,D01,0,0,1
1216,0.41,1645174085.046875,P13,D01,0,0,1
1217,-0.42,1645174085.0625,P13,D01,0,0,1
1218,-1.12,1645174085.078125,P13,D01,0,0,1
1219,-1.61,1645174085.09375,P13,D01,0,0,1
1220,-1.88,1645174085.109375,P13,D01,0,0,1
1221,-2.0,1645174085.125,P13,D01,0,0,1
1222,-2.13,1645174085.140625,P13,D01,0,0,1
1223,-2.41,1645174085.15625,P13,D01,0,0,1
1224,-2.91,1645174085.171875,P13,D01,0,0,1
1225,-3.57,1645174085.1875,P13,D01,0,0,1
1226,-4.19,1645174085.203125,P13,D01,0,0,1
1227,-4.53,1645174085.21875,P13,D01,0,0,1
1228,-4.43,1645174085.234375,P13,D01,0,0,1
1229,-3.85,1645174085.25,P13,D01,0,0,1
1230,-2.93,1645174085.265625,P13,D01,0,0,1
1231,-1.94,1645174085.28125,P13,D01,0,0,1
1232,-1.19,1645174085.296875,P13,D01,0,0,1
1233,-0.88,1645174085.3125,P13,D01,0,0,1
1234,-1.05,1645174085.328125,P13,D01,0,0,1
1235,-1.59,1645174085.34375,P13,D01,0,0,1
1236,-2.28,1645174085.359375,P13,D01,0,0,1
1237,-2.89,1645174085.375,P13,D01,0,0,1
1238,-3.28,1645174085.390625,P13,D01,0,0,1
1239,-3.42,1645174085.40625,P13,D01,0,0,1
1240,-3.3,1645174085.421875,P13,D01,0,0,1
1241,-3.02,1645174085.4375,P13,D01,0,0,1
1242,-2.65,1645174085.453125,P13,D01,0,0,1
1243,-2.31,1645174085.46875,P13,D01,0,0,1
1244,-2.08,1645174085.484375,P13,D01,0,0,1
1245,-2.05,1645174085.5,P13,D01,0,0,1
1246,-2.21,1645174085.515625,P13,D01,0,0,1
1247,-2.48,1645174085.53125,P13,D01,0,0,1
1248,-2.75,1645174085.546875,P13,D01,0,0,1
1249,-2.89,1645174085.5625,P13,D01,0,0,1
1250,-2.85,1645174085.578125,P13,D01,0,0,1
1251,-2.62,1645174085.59375,P13,D01,0,0,1
1252,-2.25,1645174085.609375,P13,D01,0,0,1
1253,-1.76,1645174085.625,P13,D01,0,0,1
1254,-1.12,1645174085.640625,P13,D01,0,0,1
1255,-0.28,1645174085.65625,P13,D01,0,0,1
1256,0.77,1645174085.671875,P13,D01,0,0,1
1257,1.94,1645174085.6875,P13,D01,0,0,1
1258,3.03,1645174085.703125,P13,D01,0,0,1
1259,3.79,1645174085.71875,P13,D01,0,0,1
1260,4.02,1645174085.734375,P13,D01,0,0,1
1261,3.69,1645174085.75,P13,D01,0,0,1
1262,2.93,1645174085.765625,P13,D01,0,0,1
1263,2.01,1645174085.78125,P13,D01,0,0,1
1264,1.18,1645174085.796875,P13,D01,0,0,1
1265,0.58,1645174085.8125,P13,D01,0,0,1
1266,0.27,1645174085.828125,P13,D01,0,0,1
1267,0.18,1645174085.84375,P13,D01,0,0,1
1268,0.24,1645174085.859375,P13,D01,0,0,1
1269,0.44,1645174085.875,P13,D01,0,0,1
1270,0.81,1645174085.890625,P13,D01,0,0,1
1271,1.36,1645174085.90625,P13,D01,0,0,1
1272,2.05,1645174085.921875,P13,D01,0,0,1
1273,2.73,1645174085.9375,P13,D01,0,0,1
1274,3.18,1645174085.953125,P13,D01,0,0,1
1275,3.21,1645174085.96875,P13,D01,0,0,1
1276,2.74,1645174085.984375,P13,D01,0,0,1
1277,1.89,1645174086.0,P13,D01,0,0,1
1278,0.87,1645174086.015625,P13,D01,0,0,1
1279,-0.02,1645174086.03125,P13,D01,0,0,1
1280,-0.56,1645174086.046875,P13,D01,0,0,1
1281,-0.66,1645174086.0625,P13,D01,0,0,1
1282,-0.37,1645174086.078125,P13,D01,0,0,1
1283,0.11,1645174086.09375,P13,D01,0,0,1
1284,0.55,1645174086.109375,P13,D01,0,0,1
1285,0.73,1645174086.125,P13,D01,0,0,1
1286,0.59,1645174086.140625,P13,D01,0,0,1
1287,0.2,1645174086.15625,P13,D01,0,0,1
1288,-0.24,1645174086.171875,P13,D01,0,0,1
1289,-0.52,1645174086.1875,P13,D01,0,0,1
1290,-0.51,1645174086.203125,P13,D01,0,0,1
1291,-0.21,1645174086.21875,P13,D01,0,0,1
1292,0.24,1645174086.234375,P13,D01,0,0,1
1293,0.64,1645174086.25,P13,D01,0,0,1
1294,0.81,1645174086.265625,P13,D01,0,0,1
1295,0.69,1645174086.28125,P13,D01,0,0,1
1296,0.35,1645174086.296875,P13,D01,0,0,1
1297,-0.05,1645174086.3125,P13,D01,0,0,1
1298,-0.41,1645174086.328125,P13,D01,0,0,1
1299,-0.68,1645174086.34375,P13,D01,0,0,1
1300,-0.88,1645174086.359375,P13,D01,0,0,1
1301,-1.04,1645174086.375,P13,D01,0,0,1
1302,-1.11,1645174086.390625,P13,D01,0,0,1
1303,-1.04,1645174086.40625,P13,D01,0,0,1
1304,-0.74,1645174086.421875,P13,D01,0,0,1
1305,-0.23,1645174086.4375,P13,D01,0,0,1
1306,0.36,1645174086.453125,P13,D01,0,0,1
1307,0.87,1645174086.46875,P13,D01,0,0,1
1308,1.13,1645174086.484375,P13,D01,0,0,1
1309,1.1,1645174086.5,P13,D01,0,0,1
1310,0.82,1645174086.515625,P13,D01,0,0,1
1311,0.4,1645174086.53125,P13,D01,0,0,1
1312,-0.06,1645174086.546875,P13,D01,0,0,1
1313,-0.49,1645174086.5625,P13,D01,0,0,1
1314,-0.86,1645174086.578125,P13,D01,0,0,1
1315,-1.13,1645174086.59375,P13,D01,0,0,1
1316,-1.26,1645174086.609375,P13,D01,0,0,1
1317,-1.23,1645174086.625,P13,D01,0,0,1
1318,-1.05,1645174086.640625,P13,D01,0,0,1
1319,-0.78,1645174086.65625,P13,D01,0,0,1
1320,-0.51,1645174086.671875,P13,D01,0,0,1
1321,-0.29,1645174086.6875,P13,D01,0,0,1
1322,-0.16,1645174086.703125,P13,D01,0,0,1
1323,-0.1,1645174086.71875,P13,D01,0,0,1
1324,-0.1,1645174086.734375,P13,D01,0,0,1
1325,-0.12,1645174086.75,P13,D01,0,0,1
1326,-0.15,1645174086.765625,P13,D01,0,0,1
1327,-0.16,1645174086.78125,P13,D01,0,0,1
1328,-0.11,1645174086.796875,P13,D01,0,0,1
1329,0.03,1645174086.8125,P13,D01,0,0,1
1330,0.29,1645174086.828125,P13,D01,0,0,1
1331,0.67,1645174086.84375,P13,D01,0,0,1
1332,1.13,1645174086.859375,P13,D01,0,0,1
1333,1.61,1645174086.875,P13,D01,0,0,1
1334,2.01,1645174086.890625,P13,D01,0,0,1
1335,2.26,1645174086.90625,P13,D01,0,0,1
1336,2.33,1645174086.921875,P13,D01,0,0,1
1337,2.23,1645174086.9375,P13,D01,0,0,1
1338,2.02,1645174086.953125,P13,D01,0,0,1
1339,1.75,1645174086.96875,P13,D01,0,0,1
1340,1.45,1645174086.984375,P13,D01,0,0,1
1341,1.08,1645174087.0,P13,D01,0,0,1
1342,0.58,1645174087.015625,P13,D01,0,0,1
1343,-0.1,1645174087.03125,P13,D01,0,0,1
1344,-0.89,1645174087.046875,P13,D01,0,0,1
1345,-1.66,1645174087.0625,P13,D01,0,0,1
1346,-2.23,1645174087.078125,P13,D01,0,0,1
1347,-2.49,1645174087.09375,P13,D01,0,0,1
1348,-2.41,1645174087.109375,P13,D01,0,0,1
1349,-2.07,1645174087.125,P13,D01,0,0,1
1350,-1.59,1645174087.140625,P13,D01,0,0,1
1351,-1.06,1645174087.15625,P13,D01,0,0,1
1352,-0.53,1645174087.171875,P13,D01,0,0,1
1353,0.06,1645174087.1875,P13,D01,0,0,1
1354,0.71,1645174087.203125,P13,D01,0,0,1
1355,1.34,1645174087.21875,P13,D01,0,0,1
1356,1.81,1645174087.234375,P13,D01,0,0,1
1357,1.94,1645174087.25,P13,D01,0,0,1
1358,1.61,1645174087.265625,P13,D01,0,0,1
1359,0.89,1645174087.28125,P13,D01,0,0,1
1360,-0.03,1645174087.296875,P13,D01,0,0,1
1361,-0.86,1645174087.3125,P13,D01,0,0,1
1362,-1.36,1645174087.328125,P13,D01,0,0,1
1363,-1.42,1645174087.34375,P13,D01,0,0,1
1364,-1.1,1645174087.359375,P13,D01,0,0,1
1365,-0.59,1645174087.375,P13,D01,0,0,1
1366,-0.11,1645174087.390625,P13,D01,0,0,1
1367,0.18,1645174087.40625,P13,D01,0,0,1
1368,0.22,1645174087.421875,P13,D01,0,0,1
1369,0.06,1645174087.4375,P13,D01,0,0,1
1370,-0.2,1645174087.453125,P13,D01,0,0,1
1371,-0.47,1645174087.46875,P13,D01,0,0,1
1372,-0.69,1645174087.484375,P13,D01,0,0,1
1373,-0.82,1645174087.5,P13,D01,0,0,1
1374,-0.86,1645174087.515625,P13,D01,0,0,1
1375,-0.83,1645174087.53125,P13,D01,0,0,1
1376,-0.73,1645174087.546875,P13,D01,0,0,1
1377,-0.6,1645174087.5625,P13,D01,0,0,1
1378,-0.47,1645174087.578125,P13,D01,0,0,1
1379,-0.39,1645174087.59375,P13,D01,0,0,1
1380,-0.39,1645174087.609375,P13,D01,0,0,1
1381,-0.46,1645174087.625,P13,D01,0,0,1
1382,-0.58,1645174087.640625,P13,D01,0,0,1
1383,-0.69,1645174087.65625,P13,D01,0,0,1
1384,-0.77,1645174087.671875,P13,D01,0,0,1
1385,-0.79,1645174087.6875,P13,D01,0,0,1
1386,-0.75,1645174087.703125,P13,D01,0,0,1
1387,-0.68,1645174087.71875,P13,D01,0,0,1
1388,-0.58,1645174087.734375,P13,D01,0,0,1
1389,-0.5,1645174087.75,P13,D01,0,0,1
1390,-0.46,1645174087.765625,P13,D01,0,0,1
1391,-0.49,1645174087.78125,P13,D01,0,0,1
1392,-0.63,1645174087.796875,P13,D01,0,0,1
1393,-0.86,1645174087.8125,P13,D01,0,0,1
1394,-1.12,1645174087.828125,P13,D01,0,0,1
1395,-1.31,1645174087.84375,P13,D01,0,0,1
1396,-1.35,1645174087.859375,P13,D01,0,0,1
1397,-1.19,1645174087.875,P13,D01,0,0,1
1398,-0.87,1645174087.890625,P13,D01,0,0,1
1399,-0.49,1645174087.90625,P13,D01,0,0,1
1400,-0.17,1645174087.921875,P13,D01,0,0,1
1401,0.02,1645174087.9375,P13,D01,0,0,1
1402,0.06,1645174087.953125,P13,D01,0,0,1
1403,0.0,1645174087.96875,P13,D01,0,0,1
1404,-0.08,1645174087.984375,P13,D01,0,0,1
1405,-0.18,1645174088.0,P13,D01,0,0,1
1406,-0.34,1645174088.015625,P13,D01,0,0,1
1407,-0.61,1645174088.03125,P13,D01,0,0,1
1408,-1.03,1645174088.046875,P13,D01,0,0,1
1409,-1.54,1645174088.0625,P13,D01,0,0,1
1410,-2.03,1645174088.078125,P13,D01,0,0,1
1411,-2.36,1645174088.09375,P13,D01,0,0,1
1412,-2.48,1645174088.109375,P13,D01,0,0,1
1413,-2.4,1645174088.125,P13,D01,0,0,1
1414,-2.18,1645174088.140625,P13,D01,0,0,1
1415,-1.88,1645174088.15625,P13,D01,0,0,1
1416,-1.51,1645174088.171875,P13,D01,0,0,1
1417,-1.08,1645174088.1875,P13,D01,0,0,1
1418,-0.59,1645174088.203125,P13,D01,0,0,1
1419,-0.1,1645174088.21875,P13,D01,0,0,1
1420,0.31,1645174088.234375,P13,D01,0,0,1
1421,0.56,1645174088.25,P13,D01,0,0,1
1422,0.63,1645174088.265625,P13,D01,0,0,1
1423,0.56,1645174088.28125,P13,D01,0,0,1
1424,0.38,1645174088.296875,P13,D01,0,0,1
1425,0.16,1645174088.3125,P13,D01,0,0,1
1426,-0.09,1645174088.328125,P13,D01,0,0,1
1427,-0.35,1645174088.34375,P13,D01,0,0,1
1428,-0.55,1645174088.359375,P13,D01,0,0,1
1429,-0.63,1645174088.375,P13,D01,0,0,1
1430,-0.51,1645174088.390625,P13,D01,0,0,1
1431,-0.19,1645174088.40625,P13,D01,0,0,1
1432,0.24,1645174088.421875,P13,D01,0,0,1
1433,0.64,1645174088.4375,P13,D01,0,0,1
1434,0.89,1645174088.453125,P13,D01,0,0,1
1435,0.98,1645174088.46875,P13,D01,0,0,1
1436,1.0,1645174088.484375,P13,D01,0,0,1
1437,1.12,1645174088.5,P13,D01,0,0,1
1438,1.39,1645174088.515625,P13,D01,0,0,1
1439,1.78,1645174088.53125,P13,D01,0,0,1
1440,2.13,1645174088.546875,P13,D01,0,0,1
1441,2.26,1645174088.5625,P13,D01,0,0,1
1442,2.11,1645174088.578125,P13,D01,0,0,1
1443,1.73,1645174088.59375,P13,D01,0,0,1
1444,1.29,1645174088.609375,P13,D01,0,0,1
1445,0.96,1645174088.625,P13,D01,0,0,1
1446,0.82,1645174088.640625,P13,D01,0,0,1
1447,0.9,1645174088.65625,P13,D01,0,0,1
1448,1.15,1645174088.671875,P13,D01,0,0,1
1449,1.53,1645174088.6875,P13,D01,0,0,1
1450,2.0,1645174088.703125,P13,D01,0,0,1
1451,2.51,1645174088.71875,P13,D01,0,0,1
1452,2.98,1645174088.734375,P13,D01,0,0,1
1453,3.3,1645174088.75,P13,D01,0,0,1
1454,3.41,1645174088.765625,P13,D01,0,0,1
1455,3.24,1645174088.78125,P13,D01,0,0,1
1456,2.81,1645174088.796875,P13,D01,0,0,1
1457,2.21,1645174088.8125,P13,D01,0,0,1
1458,1.52,1645174088.828125,P13,D01,0,0,1
1459,0.88,1645174088.84375,P13,D01,0,0,1
1460,0.4,1645174088.859375,P13,D01,0,0,1
1461,0.14,1645174088.875,P13,D01,0,0,1
1462,0.11,1645174088.890625,P13,D01,0,0,1
1463,0.18,1645174088.90625,P13,D01,0,0,1
1464,0.19,1645174088.921875,P13,D01,0,0,1
1465,-0.0,1645174088.9375,P13,D01,0,0,1
1466,-0.38,1645174088.953125,P13,D01,0,0,1
1467,-0.79,1645174088.96875,P13,D01,0,0,1
1468,-0.99,1645174088.984375,P13,D01,0,0,1
1469,-0.81,1645174089.0,P13,D01,0,0,1
1470,-0.26,1645174089.015625,P13,D01,0,0,1
1471,0.46,1645174089.03125,P13,D01,0,0,1
1472,1.05,1645174089.046875,P13,D01,0,0,1
1473,1.29,1645174089.0625,P13,D01,0,0,1
1474,1.13,1645174089.078125,P13,D01,0,0,1
1475,0.74,1645174089.09375,P13,D01,0,0,1
1476,0.36,1645174089.109375,P13,D01,0,0,1
1477,0.18,1645174089.125,P13,D01,0,0,1
1478,0.26,1645174089.140625,P13,D01,0,0,1
1479,0.48,1645174089.15625,P13,D01,0,0,1
1480,0.67,1645174089.171875,P13,D01,0,0,1
1481,0.72,1645174089.1875,P13,D01,0,0,1
1482,0.57,1645174089.203125,P13,D01,0,0,1
1483,0.26,1645174089.21875,P13,D01,0,0,1
1484,-0.11,1645174089.234375,P13,D01,0,0,1
1485,-0.49,1645174089.25,P13,D01,0,0,1
1486,-0.81,1645174089.265625,P13,D01,0,0,1
1487,-1.05,1645174089.28125,P13,D01,0,0,1
1488,-1.16,1645174089.296875,P13,D01,0,0,1
1489,-1.13,1645174089.3125,P13,D01,0,0,1
1490,-0.96,1645174089.328125,P13,D01,0,0,1
1491,-0.71,1645174089.34375,P13,D01,0,0,1
1492,-0.44,1645174089.359375,P13,D01,0,0,1
1493,-0.28,1645174089.375,P13,D01,0,0,1
1494,-0.26,1645174089.390625,P13,D01,0,0,1
1495,-0.41,1645174089.40625,P13,D01,0,0,1
1496,-0.69,1645174089.421875,P13,D01,0,0,1
1497,-1.03,1645174089.4375,P13,D01,0,0,1
1498,-1.31,1645174089.453125,P13,D01,0,0,1
1499,-1.41,1645174089.46875,P13,D01,0,0,1
1500,-1.26,1645174089.484375,P13,D01,0,0,1
1501,-0.81,1645174089.5,P13,D01,0,0,1
1502,-0.13,1645174089.515625,P13,D01,0,0,1
1503,0.61,1645174089.53125,P13,D01,0,0,1
1504,1.19,1645174089.546875,P13,D01,0,0,1
1505,1.41,1645174089.5625,P13,D01,0,0,1
1506,1.2,1645174089.578125,P13,D01,0,0,1
1507,0.6,1645174089.59375,P13,D01,0,0,1
1508,-0.17,1645174089.609375,P13,D01,0,0,1
1509,-0.9,1645174089.625,P13,D01,0,0,1
1510,-1.4,1645174089.640625,P13,D01,0,0,1
1511,-1.61,1645174089.65625,P13,D01,0,0,1
1512,-1.56,1645174089.671875,P13,D01,0,0,1
1513,-1.39,1645174089.6875,P13,D01,0,0,1
1514,-1.18,1645174089.703125,P13,D01,0,0,1
1515,-1.02,1645174089.71875,P13,D01,0,0,1
1516,-0.9,1645174089.734375,P13,D01,0,0,1
1517,-0.82,1645174089.75,P13,D01,0,0,1
1518,-0.79,1645174089.765625,P13,D01,0,0,1
1519,-0.85,1645174089.78125,P13,D01,0,0,1
1520,-0.99,1645174089.796875,P13,D01,0,0,1
1521,-1.18,1645174089.8125,P13,D01,0,0,1
1522,-1.32,1645174089.828125,P13,D01,0,0,1
1523,-1.25,1645174089.84375,P13,D01,0,0,1
1524,-0.85,1645174089.859375,P13,D01,0,0,1
1525,-0.09,1645174089.875,P13,D01,0,0,1
1526,0.95,1645174089.890625,P13,D01,0,0,1
1527,2.06,1645174089.90625,P13,D01,0,0,1
1528,2.98,1645174089.921875,P13,D01,0,0,1
1529,3.48,1645174089.9375,P13,D01,0,0,1
1530,3.47,1645174089.953125,P13,D01,0,0,1
1531,2.98,1645174089.96875,P13,D01,0,0,1
1532,2.21,1645174089.984375,P13,D01,0,0,1
1533,1.41,1645174090.0,P13,D01,0,0,1
1534,0.81,1645174090.015625,P13,D01,0,0,1
1535,0.55,1645174090.03125,P13,D01,0,0,1
1536,0.63,1645174090.046875,P13,D01,0,0,1
1537,0.95,1645174090.0625,P13,D01,0,0,1
1538,1.34,1645174090.078125,P13,D01,0,0,1
1539,1.66,1645174090.09375,P13,D01,0,0,1
1540,1.86,1645174090.109375,P13,D01,0,0,1
1541,1.91,1645174090.125,P13,D01,0,0,1
1542,1.83,1645174090.140625,P13,D01,0,0,1
1543,1.62,1645174090.15625,P13,D01,0,0,1
1544,1.3,1645174090.171875,P13,D01,0,0,1
1545,0.85,1645174090.1875,P13,D01,0,0,1
1546,0.31,1645174090.203125,P13,D01,0,0,1
1547,-0.23,1645174090.21875,P13,D01,0,0,1
1548,-0.64,1645174090.234375,P13,D01,0,0,1
1549,-0.82,1645174090.25,P13,D01,0,0,1
1550,-0.74,1645174090.265625,P13,D01,0,0,1
1551,-0.46,1645174090.28125,P13,D01,0,0,1
1552,-0.12,1645174090.296875,P13,D01,0,0,1
1553,0.14,1645174090.3125,P13,D01,0,0,1
1554,0.26,1645174090.328125,P13,D01,0,0,1
1555,0.25,1645174090.34375,P13,D01,0,0,1
1556,0.22,1645174090.359375,P13,D01,0,0,1
1557,0.23,1645174090.375,P13,D01,0,0,1
1558,0.28,1645174090.390625,P13,D01,0,0,1
1559,0.27,1645174090.40625,P13,D01,0,0,1
1560,0.11,1645174090.421875,P13,D01,0,0,1
1561,-0.21,1645174090.4375,P13,D01,0,0,1
1562,-0.61,1645174090.453125,P13,D01,0,0,1
1563,-0.92,1645174090.46875,P13,D01,0,0,1
1564,-1.0,1645174090.484375,P13,D01,0,0,1
1565,-0.82,1645174090.5,P13,D01,0,0,1
1566,-0.43,1645174090.515625,P13,D01,0,0,1
1567,0.01,1645174090.53125,P13,D01,0,0,1
1568,0.42,1645174090.546875,P13,D01,0,0,1
1569,0.73,1645174090.5625,P13,D01,0,0,1
1570,0.97,1645174090.578125,P13,D01,0,0,1
1571,1.09,1645174090.59375,P13,D01,0,0,1
1572,1.08,1645174090.609375,P13,D01,0,0,1
1573,0.87,1645174090.625,P13,D01,0,0,1
1574,0.45,1645174090.640625,P13,D01,0,0,1
1575,-0.11,1645174090.65625,P13,D01,0,0,1
1576,-0.65,1645174090.671875,P13,D01,0,0,1
1577,-1.03,1645174090.6875,P13,D01,0,0,1
1578,-1.14,1645174090.703125,P13,D01,0,0,1
1579,-0.97,1645174090.71875,P13,D01,0,0,1
1580,-0.57,1645174090.734375,P13,D01,0,0,1
1581,-0.05,1645174090.75,P13,D01,0,0,1
1582,0.48,1645174090.765625,P13,D01,0,0,1
1583,0.89,1645174090.78125,P13,D01,0,0,1
1584,1.08,1645174090.796875,P13,D01,0,0,1
1585,1.02,1645174090.8125,P13,D01,0,0,1
1586,0.73,1645174090.828125,P13,D01,0,0,1
1587,0.35,1645174090.84375,P13,D01,0,0,1
1588,0.02,1645174090.859375,P13,D01,0,0,1
1589,-0.14,1645174090.875,P13,D01,0,0,1
1590,-0.11,1645174090.890625,P13,D01,0,0,1
1591,0.04,1645174090.90625,P13,D01,0,0,1
1592,0.16,1645174090.921875,P13,D01,0,0,1
1593,0.17,1645174090.9375,P13,D01,0,0,1
1594,0.03,1645174090.953125,P13,D01,0,0,1
1595,-0.19,1645174090.96875,P13,D01,0,0,1
1596,-0.41,1645174090.984375,P13,D01,0,0,1
1597,-0.56,1645174091.0,P13,D01,0,0,1
1598,-0.64,1645174091.015625,P13,D01,0,0,1
1599,-0.66,1645174091.03125,P13,D01,0,0,1
1600,-0.66,1645174091.046875,P13,D01,0,0,1
1601,-0.7,1645174091.0625,P13,D01,0,0,1
1602,-0.8,1645174091.078125,P13,D01,0,0,1
1603,-0.97,1645174091.09375,P13,D01,0,0,1
1604,-1.18,1645174091.109375,P13,D01,0,0,1
1605,-1.37,1645174091.125,P13,D01,0,0,1
1606,-1.49,1645174091.140625,P13,D01,0,0,1
1607,-1.51,1645174091.15625,P13,D01,0,0,1
1608,-1.46,1645174091.171875,P13,D01,0,0,1
1609,-1.41,1645174091.1875,P13,D01,0,0,1
1610,-1.39,1645174091.203125,P13,D01,0,0,1
1611,-1.39,1645174091.21875,P13,D01,0,0,1
1612,-1.29,1645174091.234375,P13,D01,0,0,1
1613,-0.95,1645174091.25,P13,D01,0,0,1
1614,-0.32,1645174091.265625,P13,D01,0,0,1
1615,0.48,1645174091.28125,P13,D01,0,0,1
1616,1.22,1645174091.296875,P13,D01,0,0,1
1617,1.63,1645174091.3125,P13,D01,0,0,1
1618,1.59,1645174091.328125,P13,D01,0,0,1
1619,1.13,1645174091.34375,P13,D01,0,0,1
1620,0.46,1645174091.359375,P13,D01,0,0,1
1621,-0.15,1645174091.375,P13,D01,0,0,1
1622,-0.52,1645174091.390625,P13,D01,0,0,1
1623,-0.61,1645174091.40625,P13,D01,0,0,1
1624,-0.5,1645174091.421875,P13,D01,0,0,1
1625,-0.3,1645174091.4375,P13,D01,0,0,1
1626,-0.11,1645174091.453125,P13,D01,0,0,1
1627,0.04,1645174091.46875,P13,D01,0,0,1
1628,0.11,1645174091.484375,P13,D01,0,0,1
1629,0.14,1645174091.5,P13,D01,0,0,1
1630,0.1,1645174091.515625,P13,D01,0,0,1
1631,0.02,1645174091.53125,P13,D01,0,0,1
1632,-0.13,1645174091.546875,P13,D01,0,0,1
1633,-0.33,1645174091.5625,P13,D01,0,0,1
1634,-0.58,1645174091.578125,P13,D01,0,0,1
1635,-0.85,1645174091.59375,P13,D01,0,0,1
1636,-1.16,1645174091.609375,P13,D01,0,0,1
1637,-1.48,1645174091.625,P13,D01,0,0,1
1638,-1.8,1645174091.640625,P13,D01,0,0,1
1639,-2.1,1645174091.65625,P13,D01,0,0,1
1640,-2.35,1645174091.671875,P13,D01,0,0,1
1641,-2.5,1645174091.6875,P13,D01,0,0,1
1642,-2.5,1645174091.703125,P13,D01,0,0,1
1643,-2.3,1645174091.71875,P13,D01,0,0,1
1644,-1.91,1645174091.734375,P13,D01,0,0,1
1645,-1.36,1645174091.75,P13,D01,0,0,1
1646,-0.77,1645174091.765625,P13,D01,0,0,1
1647,-0.26,1645174091.78125,P13,D01,0,0,1
1648,0.06,1645174091.796875,P13,D01,0,0,1
1649,0.14,1645174091.8125,P13,D01,0,0,1
1650,-0.02,1645174091.828125,P13,D01,0,0,1
1651,-0.35,1645174091.84375,P13,D01,0,0,1
1652,-0.75,1645174091.859375,P13,D01,0,0,1
1653,-1.11,1645174091.875,P13,D01,0,0,1
1654,-1.35,1645174091.890625,P13,D01,0,0,1
1655,-1.41,1645174091.90625,P13,D01,0,0,1
1656,-1.25,1645174091.921875,P13,D01,0,0,1
1657,-0.91,1645174091.9375,P13,D01,0,0,1
1658,-0.43,1645174091.953125,P13,D01,0,0,1
1659,0.1,1645174091.96875,P13,D01,0,0,1
1660,0.61,1645174091.984375,P13,D01,0,0,1
1661,1.08,1645174092.0,P13,D01,0,0,1
1662,1.47,1645174092.015625,P13,D01,0,0,1
1663,1.76,1645174092.03125,P13,D01,0,0,1
1664,1.95,1645174092.046875,P13,D01,0,0,1
1665,2.03,1645174092.0625,P13,D01,0,0,1
1666,2.01,1645174092.078125,P13,D01,0,0,1
1667,1.92,1645174092.09375,P13,D01,0,0,1
1668,1.79,1645174092.109375,P13,D01,0,0,1
1669,1.66,1645174092.125,P13,D01,0,0,1
1670,1.53,1645174092.140625,P13,D01,0,0,1
1671,1.41,1645174092.15625,P13,D01,0,0,1
1672,1.24,1645174092.171875,P13,D01,0,0,1
1673,1.0,1645174092.1875,P13,D01,0,0,1
1674,0.71,1645174092.203125,P13,D01,0,0,1
1675,0.43,1645174092.21875,P13,D01,0,0,1
1676,0.22,1645174092.234375,P13,D01,0,0,1
1677,0.14,1645174092.25,P13,D01,0,0,1
1678,0.2,1645174092.265625,P13,D01,0,0,1
1679,0.36,1645174092.28125,P13,D01,0,0,1
1680,0.55,1645174092.296875,P13,D01,0,0,1
1681,0.7,1645174092.3125,P13,D01,0,0,1
1682,0.8,1645174092.328125,P13,D01,0,0,1
1683,0.85,1645174092.34375,P13,D01,0,0,1
1684,0.89,1645174092.359375,P13,D01,0,0,1
1685,0.94,1645174092.375,P13,D01,0,0,1
1686,0.99,1645174092.390625,P13,D01,0,0,1
1687,1.01,1645174092.40625,P13,D01,0,0,1
1688,0.92,1645174092.421875,P13,D01,0,0,1
1689,0.66,1645174092.4375,P13,D01,0,0,1
1690,0.23,1645174092.453125,P13,D01,0,0,1
1691,-0.33,1645174092.46875,P13,D01,0,0,1
1692,-0.92,1645174092.484375,P13,D01,0,0,1
1693,-1.39,1645174092.5,P13,D01,0,0,1
1694,-1.62,1645174092.515625,P13,D01,0,0,1
1695,-1.56,1645174092.53125,P13,D01,0,0,1
1696,-1.24,1645174092.546875,P13,D01,0,0,1
1697,-0.77,1645174092.5625,P13,D01,0,0,1
1698,-0.3,1645174092.578125,P13,D01,0,0,1
1699,0.04,1645174092.59375,P13,D01,0,0,1
1700,0.21,1645174092.609375,P13,D01,0,0,1
1701,0.27,1645174092.625,P13,D01,0,0,1
1702,0.29,1645174092.640625,P13,D01,0,0,1
1703,0.34,1645174092.65625,P13,D01,0,0,1
1704,0.41,1645174092.671875,P13,D01,0,0,1
1705,0.46,1645174092.6875,P13,D01,0,0,1
1706,0.42,1645174092.703125,P13,D01,0,0,1
1707,0.28,1645174092.71875,P13,D01,0,0,1
1708,0.09,1645174092.734375,P13,D01,0,0,1
1709,-0.09,1645174092.75,P13,D01,0,0,1
1710,-0.16,1645174092.765625,P13,D01,0,0,1
1711,-0.09,1645174092.78125,P13,D01,0,0,1
1712,0.12,1645174092.796875,P13,D01,0,0,1
1713,0.41,1645174092.8125,P13,D01,0,0,1
1714,0.71,1645174092.828125,P13,D01,0,0,1
1715,0.97,1645174092.84375,P13,D01,0,0,1
1716,1.15,1645174092.859375,P13,D01,0,0,1
1717,1.28,1645174092.875,P13,D01,0,0,1
1718,1.39,1645174092.890625,P13,D01,0,0,1
1719,1.51,1645174092.90625,P13,D01,0,0,1
1720,1.63,1645174092.921875,P13,D01,0,0,1
1721,1.68,1645174092.9375,P13,D01,0,0,1
1722,1.57,1645174092.953125,P13,D01,0,0,1
1723,1.23,1645174092.96875,P13,D01,0,0,1
1724,0.69,1645174092.984375,P13,D01,0,0,1
1725,0.08,1645174093.0,P13,D01,0,0,1
1726,-0.4,1645174093.015625,P13,D01,0,0,1
1727,-0.62,1645174093.03125,P13,D01,0,0,1
1728,-0.51,1645174093.046875,P13,D01,0,0,1
1729,-0.17,1645174093.0625,P13,D01,0,0,1
1730,0.22,1645174093.078125,P13,D01,0,0,1
1731,0.48,1645174093.09375,P13,D01,0,0,1
1732,0.53,1645174093.109375,P13,D01,0,0,1
1733,0.4,1645174093.125,P13,D01,0,0,1
1734,0.2,1645174093.140625,P13,D01,0,0,1
1735,0.09,1645174093.15625,P13,D01,0,0,1
1736,0.12,1645174093.171875,P13,D01,0,0,1
1737,0.3,1645174093.1875,P13,D01,0,0,1
1738,0.54,1645174093.203125,P13,D01,0,0,1
1739,0.73,1645174093.21875,P13,D01,0,0,1
1740,0.78,1645174093.234375,P13,D01,0,0,1
1741,0.63,1645174093.25,P13,D01,0,0,1
1742,0.27,1645174093.265625,P13,D01,0,0,1
1743,-0.24,1645174093.28125,P13,D01,0,0,1
1744,-0.78,1645174093.296875,P13,D01,0,0,1
1745,-1.24,1645174093.3125,P13,D01,0,0,1
1746,-1.5,1645174093.328125,P13,D01,0,0,1
1747,-1.51,1645174093.34375,P13,D01,0,0,1
1748,-1.31,1645174093.359375,P13,D01,0,0,1
1749,-0.98,1645174093.375,P13,D01,0,0,1
1750,-0.64,1645174093.390625,P13,D01,0,0,1
1751,-0.4,1645174093.40625,P13,D01,0,0,1
1752,-0.31,1645174093.421875,P13,D01,0,0,1
1753,-0.35,1645174093.4375,P13,D01,0,0,1
1754,-0.46,1645174093.453125,P13,D01,0,0,1
1755,-0.59,1645174093.46875,P13,D01,0,0,1
1756,-0.68,1645174093.484375,P13,D01,0,0,1
1757,-0.75,1645174093.5,P13,D01,0,0,1
1758,-0.82,1645174093.515625,P13,D01,0,0,1
1759,-0.92,1645174093.53125,P13,D01,0,0,1
1760,-1.08,1645174093.546875,P13,D01,0,0,1
1761,-1.24,1645174093.5625,P13,D01,0,0,1
1762,-1.35,1645174093.578125,P13,D01,0,0,1
1763,-1.35,1645174093.59375,P13,D01,0,0,1
1764,-1.22,1645174093.609375,P13,D01,0,0,1
1765,-1.02,1645174093.625,P13,D01,0,0,1
1766,-0.85,1645174093.640625,P13,D01,0,0,1
1767,-0.78,1645174093.65625,P13,D01,0,0,1
1768,-0.81,1645174093.671875,P13,D01,0,0,1
1769,-0.85,1645174093.6875,P13,D01,0,0,1
1770,-0.77,1645174093.703125,P13,D01,0,0,1
1771,-0.51,1645174093.71875,P13,D01,0,0,1
1772,-0.12,1645174093.734375,P13,D01,0,0,1
1773,0.27,1645174093.75,P13,D01,0,0,1
1774,0.46,1645174093.765625,P13,D01,0,0,1
1775,0.39,1645174093.78125,P13,D01,0,0,1
1776,0.1,1645174093.796875,P13,D01,0,0,1
1777,-0.22,1645174093.8125,P13,D01,0,0,1
1778,-0.38,1645174093.828125,P13,D01,0,0,1
1779,-0.3,1645174093.84375,P13,D01,0,0,1
1780,-0.02,1645174093.859375,P13,D01,0,0,1
1781,0.3,1645174093.875,P13,D01,0,0,1
1782,0.53,1645174093.890625,P13,D01,0,0,1
1783,0.6,1645174093.90625,P13,D01,0,0,1
1784,0.54,1645174093.921875,P13,D01,0,0,1
1785,0.46,1645174093.9375,P13,D01,0,0,1
1786,0.46,1645174093.953125,P13,D01,0,0,1
1787,0.56,1645174093.96875,P13,D01,0,0,1
1788,0.73,1645174093.984375,P13,D01,0,0,1
1789,0.9,1645174094.0,P13,D01,0,0,1
1790,0.97,1645174094.015625,P13,D01,0,0,1
1791,0.94,1645174094.03125,P13,D01,0,0,1
1792,0.83,1645174094.046875,P13,D01,0,0,1
1793,0.71,1645174094.0625,P13,D01,0,0,1
1794,0.63,1645174094.078125,P13,D01,0,0,1
1795,0.59,1645174094.09375,P13,D01,0,0,1
1796,0.55,1645174094.109375,P13,D01,0,0,1
1797,0.46,1645174094.125,P13,D01,0,0,1
1798,0.26,1645174094.140625,P13,D01,0,0,1
1799,-0.02,1645174094.15625,P13,D01,0,0,1
1800,-0.3,1645174094.171875,P13,D01,0,0,1
1801,-0.49,1645174094.1875,P13,D01,0,0,1
1802,-0.48,1645174094.203125,P13,D01,0,0,1
1803,-0.27,1645174094.21875,P13,D01,0,0,1
1804,0.08,1645174094.234375,P13,D01,0,0,1
1805,0.45,1645174094.25,P13,D01,0,0,1
1806,0.72,1645174094.265625,P13,D01,0,0,1
1807,0.83,1645174094.28125,P13,D01,0,0,1
1808,0.84,1645174094.296875,P13,D01,0,0,1
1809,0.84,1645174094.3125,P13,D01,0,0,1
1810,0.93,1645174094.328125,P13,D01,0,0,1
1811,1.17,1645174094.34375,P13,D01,0,0,1
1812,1.5,1645174094.359375,P13,D01,0,0,1
1813,1.82,1645174094.375,P13,D01,0,0,1
1814,2.02,1645174094.390625,P13,D01,0,0,1
1815,2.03,1645174094.40625,P13,D01,0,0,1
1816,1.88,1645174094.421875,P13,D01,0,0,1
1817,1.63,1645174094.4375,P13,D01,0,0,1
1818,1.38,1645174094.453125,P13,D01,0,0,1
1819,1.18,1645174094.46875,P13,D01,0,0,1
1820,1.03,1645174094.484375,P13,D01,0,0,1
1821,0.93,1645174094.5,P13,D01,0,0,1
1822,0.89,1645174094.515625,P13,D01,0,0,1
1823,0.89,1645174094.53125,P13,D01,0,0,1
1824,0.92,1645174094.546875,P13,D01,0,0,1
1825,0.91,1645174094.5625,P13,D01,0,0,1
1826,0.81,1645174094.578125,P13,D01,0,0,1
1827,0.55,1645174094.59375,P13,D01,0,0,1
1828,0.15,1645174094.609375,P13,D01,0,0,1
1829,-0.35,1645174094.625,P13,D01,0,0,1
1830,-0.87,1645174094.640625,P13,D01,0,0,1
1831,-1.33,1645174094.65625,P13,D01,0,0,1
1832,-1.68,1645174094.671875,P13,D01,0,0,1
1833,-1.91,1645174094.6875,P13,D01,0,0,1
1834,-2.02,1645174094.703125,P13,D01,0,0,1
1835,-2.01,1645174094.71875,P13,D01,0,0,1
1836,-1.89,1645174094.734375,P13,D01,0,0,1
1837,-1.68,1645174094.75,P13,D01,0,0,1
1838,-1.45,1645174094.765625,P13,D01,0,0,1
1839,-1.28,1645174094.78125,P13,D01,0,0,1
1840,-1.22,1645174094.796875,P13,D01,0,0,1
1841,-1.23,1645174094.8125,P13,D01,0,0,1
1842,-1.25,1645174094.828125,P13,D01,0,0,1
1843,-1.16,1645174094.84375,P13,D01,0,0,1
1844,-0.88,1645174094.859375,P13,D01,0,0,1
1845,-0.45,1645174094.875,P13,D01,0,0,1
1846,0.03,1645174094.890625,P13,D01,0,0,1
1847,0.42,1645174094.90625,P13,D01,0,0,1
1848,0.61,1645174094.921875,P13,D01,0,0,1
1849,0.59,1645174094.9375,P13,D01,0,0,1
1850,0.43,1645174094.953125,P13,D01,0,0,1
1851,0.24,1645174094.96875,P13,D01,0,0,1
1852,0.11,1645174094.984375,P13,D01,0,0,1
1853,0.04,1645174095.0,P13,D01,0,0,1
1854,-0.0,1645174095.015625,P13,D01,0,0,1
1855,-0.1,1645174095.03125,P13,D01,0,0,1
1856,-0.25,1645174095.046875,P13,D01,0,0,1
1857,-0.39,1645174095.0625,P13,D01,0,0,1
1858,-0.43,1645174095.078125,P13,D01,0,0,1
1859,-0.28,1645174095.09375,P13,D01,0,0,1
1860,0.03,1645174095.109375,P13,D01,0,0,1
1861,0.38,1645174095.125,P13,D01,0,0,1
1862,0.6,1645174095.140625,P13,D01,0,0,1
1863,0.58,1645174095.15625,P13,D01,0,0,1
1864,0.32,1645174095.171875,P13,D01,0,0,1
1865,-0.06,1645174095.1875,P13,D01,0,0,1
1866,-0.36,1645174095.203125,P13,D01,0,0,1
1867,-0.49,1645174095.21875,P13,D01,0,0,1
1868,-0.42,1645174095.234375,P13,D01,0,0,1
1869,-0.25,1645174095.25,P13,D01,0,0,1
1870,-0.09,1645174095.265625,P13,D01,0,0,1
1871,0.01,1645174095.28125,P13,D01,0,0,1
1872,0.08,1645174095.296875,P13,D01,0,0,1
1873,0.18,1645174095.3125,P13,D01,0,0,1
1874,0.36,1645174095.328125,P13,D01,0,0,1
1875,0.59,1645174095.34375,P13,D01,0,0,1
1876,0.76,1645174095.359375,P13,D01,0,0,1
1877,0.78,1645174095.375,P13,D01,0,0,1
1878,0.59,1645174095.390625,P13,D01,0,0,1
1879,0.25,1645174095.40625,P13,D01,0,0,1
1880,-0.14,1645174095.421875,P13,D01,0,0,1
1881,-0.44,1645174095.4375,P13,D01,0,0,1
1882,-0.54,1645174095.453125,P13,D01,0,0,1
1883,-0.44,1645174095.46875,P13,D01,0,0,1
1884,-0.18,1645174095.484375,P13,D01,0,0,1
1885,0.09,1645174095.5,P13,D01,0,0,1
1886,0.27,1645174095.515625,P13,D01,0,0,1
1887,0.28,1645174095.53125,P13,D01,0,0,1
1888,0.17,1645174095.546875,P13,D01,0,0,1
1889,0.02,1645174095.5625,P13,D01,0,0,1
1890,-0.04,1645174095.578125,P13,D01,0,0,1
1891,0.04,1645174095.59375,P13,D01,0,0,1
1892,0.24,1645174095.609375,P13,D01,0,0,1
1893,0.52,1645174095.625,P13,D01,0,0,1
1894,0.79,1645174095.640625,P13,D01,0,0,1
1895,1.05,1645174095.65625,P13,D01,0,0,1
1896,1.3,1645174095.671875,P13,D01,0,0,1
1897,1.55,1645174095.6875,P13,D01,0,0,1
1898,1.76,1645174095.703125,P13,D01,0,0,1
1899,1.84,1645174095.71875,P13,D01,0,0,1
1900,1.71,1645174095.734375,P13,D01,0,0,1
1901,1.32,1645174095.75,P13,D01,0,0,1
1902,0.72,1645174095.765625,P13,D01,0,0,1
1903,0.04,1645174095.78125,P13,D01,0,0,1
1904,-0.56,1645174095.796875,P13,D01,0,0,1
1905,-0.96,1645174095.8125,P13,D01,0,0,1
1906,-1.15,1645174095.828125,P13,D01,0,0,1
1907,-1.17,1645174095.84375,P13,D01,0,0,1
1908,-1.14,1645174095.859375,P13,D01,0,0,1
1909,-1.11,1645174095.875,P13,D01,0,0,1
1910,-1.12,1645174095.890625,P13,D01,0,0,1
1911,-1.12,1645174095.90625,P13,D01,0,0,1
1912,-1.06,1645174095.921875,P13,D01,0,0,1
1913,-0.92,1645174095.9375,P13,D01,0,0,1
1914,-0.74,1645174095.953125,P13,D01,0,0,1
1915,-0.57,1645174095.96875,P13,D01,0,0,1
1916,-0.46,1645174095.984375,P13,D01,0,0,1
1917,-0.44,1645174096.0,P13,D01,0,0,1
1918,-0.48,1645174096.015625,P13,D01,0,0,1
1919,-0.52,1645174096.03125,P13,D01,0,0,1
1920,-0.54,1645174096.046875,P13,D01,0,0,1
1921,-0.52,1645174096.0625,P13,D01,0,0,1
1922,-0.49,1645174096.078125,P13,D01,0,0,1
1923,-0.47,1645174096.09375,P13,D01,0,0,1
1924,-0.48,1645174096.109375,P13,D01,0,0,1
1925,-0.53,1645174096.125,P13,D01,0,0,1
1926,-0.62,1645174096.140625,P13,D01,0,0,1
1927,-0.76,1645174096.15625,P13,D01,0,0,1
1928,-0.92,1645174096.171875,P13,D01,0,0,1
1929,-1.07,1645174096.1875,P13,D01,0,0,1
1930,-1.18,1645174096.203125,P13,D01,0,0,1
1931,-1.18,1645174096.21875,P13,D01,0,0,1
1932,-1.06,1645174096.234375,P13,D01,0,0,1
1933,-0.84,1645174096.25,P13,D01,0,0,1
1934,-0.55,1645174096.265625,P13,D01,0,0,1
1935,-0.22,1645174096.28125,P13,D01,0,0,1
1936,0.08,1645174096.296875,P13,D01,0,0,1
1937,0.35,1645174096.3125,P13,D01,0,0,1
1938,0.57,1645174096.328125,P13,D01,0,0,1
1939,0.72,1645174096.34375,P13,D01,0,0,1
1940,0.79,1645174096.359375,P13,D01,0,0,1
1941,0.75,1645174096.375,P13,D01,0,0,1
1942,0.58,1645174096.390625,P13,D01,0,0,1
1943,0.3,1645174096.40625,P13,D01,0,0,1
1944,-0.03,1645174096.421875,P13,D01,0,0,1
1945,-0.32,1645174096.4375,P13,D01,0,0,1
1946,-0.49,1645174096.453125,P13,D01,0,0,1
1947,-0.49,1645174096.46875,P13,D01,0,0,1
1948,-0.39,1645174096.484375,P13,D01,0,0,1
1949,-0.3,1645174096.5,P13,D01,0,0,1
1950,-0.33,1645174096.515625,P13,D01,0,0,1
1951,-0.53,1645174096.53125,P13,D01,0,0,1
1952,-0.82,1645174096.546875,P13,D01,0,0,1
1953,-1.03,1645174096.5625,P13,D01,0,0,1
1954,-1.01,1645174096.578125,P13,D01,0,0,1
1955,-0.75,1645174096.59375,P13,D01,0,0,1
1956,-0.34,1645174096.609375,P13,D01,0,0,1
1957,-0.0,1645174096.625,P13,D01,0,0,1
1958,0.12,1645174096.640625,P13,D01,0,0,1
1959,0.02,1645174096.65625,P13,D01,0,0,1
1960,-0.17,1645174096.671875,P13,D01,0,0,1
1961,-0.28,1645174096.6875,P13,D01,0,0,1
1962,-0.19,1645174096.703125,P13,D01,0,0,1
1963,0.04,1645174096.71875,P13,D01,0,0,1
1964,0.26,1645174096.734375,P13,D01,0,0,1
1965,0.27,1645174096.75,P13,D01,0,0,1
1966,0.05,1645174096.765625,P13,D01,0,0,1
1967,-0.29,1645174096.78125,P13,D01,0,0,1
1968,-0.53,1645174096.796875,P13,D01,0,0,1
1969,-0.49,1645174096.8125,P13,D01,0,0,1
1970,-0.15,1645174096.828125,P13,D01,0,0,1
1971,0.34,1645174096.84375,P13,D01,0,0,1
1972,0.74,1645174096.859375,P13,D01,0,0,1
1973,0.84,1645174096.875,P13,D01,0,0,1
1974,0.64,1645174096.890625,P13,D01,0,0,1
1975,0.25,1645174096.90625,P13,D01,0,0,1
1976,-0.08,1645174096.921875,P13,D01,0,0,1
1977,-0.19,1645174096.9375,P13,D01,0,0,1
1978,-0.04,1645174096.953125,P13,D01,0,0,1
1979,0.31,1645174096.96875,P13,D01,0,0,1
1980,0.74,1645174096.984375,P13,D01,0,0,1
1981,1.14,1645174097.0,P13,D01,0,0,1
1982,1.46,1645174097.015625,P13,D01,0,0,1
1983,1.66,1645174097.03125,P13,D01,0,0,1
1984,1.72,1645174097.046875,P13,D01,0,0,1
1985,1.6,1645174097.0625,P13,D01,0,0,1
1986,1.3,1645174097.078125,P13,D01,0,0,1
1987,0.85,1645174097.09375,P13,D01,0,0,1
1988,0.35,1645174097.109375,P13,D01,0,0,1
1989,-0.1,1645174097.125,P13,D01,0,0,1
1990,-0.4,1645174097.140625,P13,D01,0,0,1
1991,-0.53,1645174097.15625,P13,D01,0,0,1
1992,-0.52,1645174097.171875,P13,D01,0,0,1
1993,-0.47,1645174097.1875,P13,D01,0,0,1
1994,-0.44,1645174097.203125,P13,D01,0,0,1
1995,-0.51,1645174097.21875,P13,D01,0,0,1
1996,-0.66,1645174097.234375,P13,D01,0,0,1
1997,-0.86,1645174097.25,P13,D01,0,0,1
1998,-1.05,1645174097.265625,P13,D01,0,0,1
1999,-1.15,1645174097.28125,P13,D01,0,0,1
2000,-1.12,1645174097.296875,P13,D01,0,0,1
2001,-0.95,1645174097.3125,P13,D01,0,0,1
2002,-0.68,1645174097.328125,P13,D01,0,0,1
2003,-0.38,1645174097.34375,P13,D01,0,0,1
2004,-0.11,1645174097.359375,P13,D01,0,0,1
2005,0.09,1645174097.375,P13,D01,0,0,1
2006,0.22,1645174097.390625,P13,D01,0,0,1
2007,0.29,1645174097.40625,P13,D01,0,0,1
2008,0.32,1645174097.421875,P13,D01,0,0,1
2009,0.29,1645174097.4375,P13,D01,0,0,1
2010,0.19,1645174097.453125,P13,D01,0,0,1
2011,0.01,1645174097.46875,P13,D01,0,0,1
2012,-0.21,1645174097.484375,P13,D01,0,0,1
2013,-0.42,1645174097.5,P13,D01,0,0,1
2014,-0.54,1645174097.515625,P13,D01,0,0,1
2015,-0.58,1645174097.53125,P13,D01,0,0,1
2016,-0.54,1645174097.546875,P13,D01,0,0,1
2017,-0.46,1645174097.5625,P13,D01,0,0,1
2018,-0.35,1645174097.578125,P13,D01,0,0,1
2019,-0.22,1645174097.59375,P13,D01,0,0,1
2020,-0.06,1645174097.609375,P13,D01,0,0,1
2021,0.11,1645174097.625,P13,D01,0,0,1
2022,0.22,1645174097.640625,P13,D01,0,0,1
2023,0.22,1645174097.65625,P13,D01,0,0,1
2024,0.09,1645174097.671875,P13,D01,0,0,1
2025,-0.11,1645174097.6875,P13,D01,0,0,1
2026,-0.25,1645174097.703125,P13,D01,0,0,1
2027,-0.19,1645174097.71875,P13,D01,0,0,1
2028,0.11,1645174097.734375,P13,D01,0,0,1
2029,0.56,1645174097.75,P13,D01,0,0,1
2030,1.01,1645174097.765625,P13,D01,0,0,1
2031,1.28,1645174097.78125,P13,D01,0,0,1
2032,1.3,1645174097.796875,P13,D01,0,0,1
2033,1.11,1645174097.8125,P13,D01,0,0,1
2034,0.85,1645174097.828125,P13,D01,0,0,1
2035,0.63,1645174097.84375,P13,D01,0,0,1
2036,0.52,1645174097.859375,P13,D01,0,0,1
2037,0.5,1645174097.875,P13,D01,0,0,1
2038,0.49,1645174097.890625,P13,D01,0,0,1
2039,0.41,1645174097.90625,P13,D01,0,0,1
2040,0.25,1645174097.921875,P13,D01,0,0,1
2041,0.06,1645174097.9375,P13,D01,0,0,1
2042,-0.06,1645174097.953125,P13,D01,0,0,1
2043,-0.04,1645174097.96875,P13,D01,0,0,1
2044,0.14,1645174097.984375,P13,D01,0,0,1
2045,0.4,1645174098.0,P13,D01,0,0,1
2046,0.65,1645174098.015625,P13,D01,0,0,1
2047,0.8,1645174098.03125,P13,D01,0,0,1
2048,0.8,1645174098.046875,P13,D01,0,0,1
2049,0.66,1645174098.0625,P13,D01,0,0,1
2050,0.43,1645174098.078125,P13,D01,0,0,1
2051,0.17,1645174098.09375,P13,D01,0,0,1
2052,-0.04,1645174098.109375,P13,D01,0,0,1
2053,-0.16,1645174098.125,P13,D01,0,0,1
2054,-0.14,1645174098.140625,P13,D01,0,0,1
2055,-0.01,1645174098.15625,P13,D01,0,0,1
2056,0.18,1645174098.171875,P13,D01,0,0,1
2057,0.29,1645174098.1875,P13,D01,0,0,1
2058,0.23,1645174098.203125,P13,D01,0,0,1
2059,-0.02,1645174098.21875,P13,D01,0,0,1
2060,-0.41,1645174098.234375,P13,D01,0,0,1
2061,-0.78,1645174098.25,P13,D01,0,0,1
2062,-1.01,1645174098.265625,P13,D01,0,0,1
2063,-1.03,1645174098.28125,P13,D01,0,0,1
2064,-0.89,1645174098.296875,P13,D01,0,0,1
2065,-0.71,1645174098.3125,P13,D01,0,0,1
2066,-0.58,1645174098.328125,P13,D01,0,0,1
2067,-0.53,1645174098.34375,P13,D01,0,0,1
2068,-0.5,1645174098.359375,P13,D01,0,0,1
2069,-0.43,1645174098.375,P13,D01,0,0,1
2070,-0.29,1645174098.390625,P13,D01,0,0,1
2071,-0.11,1645174098.40625,P13,D01,0,0,1
2072,0.01,1645174098.421875,P13,D01,0,0,1
2073,0.03,1645174098.4375,P13,D01,0,0,1
2074,-0.02,1645174098.453125,P13,D01,0,0,1
2075,-0.09,1645174098.46875,P13,D01,0,0,1
2076,-0.11,1645174098.484375,P13,D01,0,0,1
2077,-0.08,1645174098.5,P13,D01,0,0,1
2078,-0.05,1645174098.515625,P13,D01,0,0,1
2079,-0.09,1645174098.53125,P13,D01,0,0,1
2080,-0.2,1645174098.546875,P13,D01,0,0,1
2081,-0.32,1645174098.5625,P13,D01,0,0,1
2082,-0.36,1645174098.578125,P13,D01,0,0,1
2083,-0.25,1645174098.59375,P13,D01,0,0,1
2084,-0.0,1645174098.609375,P13,D01,0,0,1
2085,0.27,1645174098.625,P13,D01,0,0,1
2086,0.44,1645174098.640625,P13,D01,0,0,1
2087,0.39,1645174098.65625,P13,D01,0,0,1
2088,0.13,1645174098.671875,P13,D01,0,0,1
2089,-0.27,1645174098.6875,P13,D01,0,0,1
2090,-0.67,1645174098.703125,P13,D01,0,0,1
2091,-0.96,1645174098.71875,P13,D01,0,0,1
2092,-1.05,1645174098.734375,P13,D01,0,0,1
2093,-0.91,1645174098.75,P13,D01,0,0,1
2094,-0.59,1645174098.765625,P13,D01,0,0,1
2095,-0.14,1645174098.78125,P13,D01,0,0,1
2096,0.33,1645174098.796875,P13,D01,0,0,1
2097,0.7,1645174098.8125,P13,D01,0,0,1
2098,0.85,1645174098.828125,P13,D01,0,0,1
2099,0.74,1645174098.84375,P13,D01,0,0,1
2100,0.39,1645174098.859375,P13,D01,0,0,1
2101,-0.1,1645174098.875,P13,D01,0,0,1
2102,-0.61,1645174098.890625,P13,D01,0,0,1
2103,-1.01,1645174098.90625,P13,D01,0,0,1
2104,-1.23,1645174098.921875,P13,D01,0,0,1
2105,-1.25,1645174098.9375,P13,D01,0,0,1
2106,-1.07,1645174098.953125,P13,D01,0,0,1
2107,-0.76,1645174098.96875,P13,D01,0,0,1
2108,-0.39,1645174098.984375,P13,D01,0,0,1
2109,-0.06,1645174099.0,P13,D01,0,0,1
2110,0.15,1645174099.015625,P13,D01,0,0,1
2111,0.21,1645174099.03125,P13,D01,0,0,1
2112,0.15,1645174099.046875,P13,D01,0,0,1
2113,0.05,1645174099.0625,P13,D01,0,0,1
2114,-0.02,1645174099.078125,P13,D01,0,0,1
2115,0.0,1645174099.09375,P13,D01,0,0,1
2116,0.13,1645174099.109375,P13,D01,0,0,1
2117,0.36,1645174099.125,P13,D01,0,0,1
2118,0.66,1645174099.140625,P13,D01,0,0,1
2119,1.01,1645174099.15625,P13,D01,0,0,1
2120,1.36,1645174099.171875,P13,D01,0,0,1
2121,1.63,1645174099.1875,P13,D01,0,0,1
2122,1.73,1645174099.203125,P13,D01,0,0,1
2123,1.6,1645174099.21875,P13,D01,0,0,1
2124,1.23,1645174099.234375,P13,D01,0,0,1
2125,0.71,1645174099.25,P13,D01,0,0,1
2126,0.15,1645174099.265625,P13,D01,0,0,1
2127,-0.31,1645174099.28125,P13,D01,0,0,1
2128,-0.59,1645174099.296875,P13,D01,0,0,1
2129,-0.7,1645174099.3125,P13,D01,0,0,1
2130,-0.7,1645174099.328125,P13,D01,0,0,1
2131,-0.68,1645174099.34375,P13,D01,0,0,1
2132,-0.68,1645174099.359375,P13,D01,0,0,1
2133,-0.72,1645174099.375,P13,D01,0,0,1
2134,-0.72,1645174099.390625,P13,D01,0,0,1
2135,-0.65,1645174099.40625,P13,D01,0,0,1
2136,-0.48,1645174099.421875,P13,D01,0,0,1
2137,-0.2,1645174099.4375,P13,D01,0,0,1
2138,0.11,1645174099.453125,P13,D01,0,0,1
2139,0.36,1645174099.46875,P13,D01,0,0,1
2140,0.49,1645174099.484375,P13,D01,0,0,1
2141,0.5,1645174099.5,P13,D01,0,0,1
2142,0.42,1645174099.515625,P13,D01,0,0,1
2143,0.34,1645174099.53125,P13,D01,0,0,1
2144,0.29,1645174099.546875,P13,D01,0,0,1
2145,0.27,1645174099.5625,P13,D01,0,0,1
2146,0.27,1645174099.578125,P13,D01,0,0,1
2147,0.27,1645174099.59375,P13,D01,0,0,1
2148,0.25,1645174099.609375,P13,D01,0,0,1
2149,0.24,1645174099.625,P13,D01,0,0,1
2150,0.25,1645174099.640625,P13,D01,0,0,1
2151,0.29,1645174099.65625,P13,D01,0,0,1
2152,0.33,1645174099.671875,P13,D01,0,0,1
2153,0.34,1645174099.6875,P13,D01,0,0,1
2154,0.32,1645174099.703125,P13,D01,0,0,1
2155,0.31,1645174099.71875,P13,D01,0,0,1
2156,0.34,1645174099.734375,P13,D01,0,0,1
2157,0.43,1645174099.75,P13,D01,0,0,1
2158,0.58,1645174099.765625,P13,D01,0,0,1
2159,0.72,1645174099.78125,P13,D01,0,0,1
2160,0.8,1645174099.796875,P13,D01,0,0,1
2161,0.78,1645174099.8125,P13,D01,0,0,1
2162,0.67,1645174099.828125,P13,D01,0,0,1
2163,0.53,1645174099.84375,P13,D01,0,0,1
2164,0.4,1645174099.859375,P13,D01,0,0,1
2165,0.31,1645174099.875,P13,D01,0,0,1
2166,0.26,1645174099.890625,P13,D01,0,0,1
2167,0.23,1645174099.90625,P13,D01,0,0,1
2168,0.24,1645174099.921875,P13,D01,0,0,1
2169,0.33,1645174099.9375,P13,D01,0,0,1
2170,0.51,1645174099.953125,P13,D01,0,0,1
2171,0.77,1645174099.96875,P13,D01,0,0,1
2172,1.02,1645174099.984375,P13,D01,0,0,1
2173,1.12,1645174100.0,P13,D01,0,0,1
2174,1.0,1645174100.015625,P13,D01,0,0,1
2175,0.64,1645174100.03125,P13,D01,0,0,1
2176,0.16,1645174100.046875,P13,D01,0,0,1
2177,-0.26,1645174100.0625,P13,D01,0,0,1
2178,-0.46,1645174100.078125,P13,D01,0,0,1
2179,-0.42,1645174100.09375,P13,D01,0,0,1
2180,-0.18,1645174100.109375,P13,D01,0,0,1
2181,0.09,1645174100.125,P13,D01,0,0,1
2182,0.29,1645174100.140625,P13,D01,0,0,1
2183,0.38,1645174100.15625,P13,D01,0,0,1
2184,0.38,1645174100.171875,P13,D01,0,0,1
2185,0.36,1645174100.1875,P13,D01,0,0,1
2186,0.35,1645174100.203125,P13,D01,0,0,1
2187,0.32,1645174100.21875,P13,D01,0,0,1
2188,0.25,1645174100.234375,P13,D01,0,0,1
2189,0.12,1645174100.25,P13,D01,0,0,1
2190,-0.05,1645174100.265625,P13,D01,0,0,1
2191,-0.17,1645174100.28125,P13,D01,0,0,1
2192,-0.2,1645174100.296875,P13,D01,0,0,1
2193,-0.13,1645174100.3125,P13,D01,0,0,1
2194,-0.05,1645174100.328125,P13,D01,0,0,1
2195,-0.03,1645174100.34375,P13,D01,0,0,1
2196,-0.15,1645174100.359375,P13,D01,0,0,1
2197,-0.4,1645174100.375,P13,D01,0,0,1
2198,-0.69,1645174100.390625,P13,D01,0,0,1
2199,-0.9,1645174100.40625,P13,D01,0,0,1
2200,-0.98,1645174100.421875,P13,D01,0,0,1
2201,-0.92,1645174100.4375,P13,D01,0,0,1
2202,-0.77,1645174100.453125,P13,D01,0,0,1
2203,-0.64,1645174100.46875,P13,D01,0,0,1
2204,-0.58,1645174100.484375,P13,D01,0,0,1
2205,-0.6,1645174100.5,P13,D01,0,0,1
2206,-0.64,1645174100.515625,P13,D01,0,0,1
2207,-0.65,1645174100.53125,P13,D01,0,0,1
2208,-0.57,1645174100.546875,P13,D01,0,0,1
2209,-0.35,1645174100.5625,P13,D01,0,0,1
2210,-0.03,1645174100.578125,P13,D01,0,0,1
2211,0.37,1645174100.59375,P13,D01,0,0,1
2212,0.78,1645174100.609375,P13,D01,0,0,1
2213,1.14,1645174100.625,P13,D01,0,0,1
2214,1.36,1645174100.640625,P13,D01,0,0,1
2215,1.39,1645174100.65625,P13,D01,0,0,1
2216,1.2,1645174100.671875,P13,D01,0,0,1
2217,0.83,1645174100.6875,P13,D01,0,0,1
2218,0.38,1645174100.703125,P13,D01,0,0,1
2219,-0.05,1645174100.71875,P13,D01,0,0,1
2220,-0.32,1645174100.734375,P13,D01,0,0,1
2221,-0.41,1645174100.75,P13,D01,0,0,1
2222,-0.32,1645174100.765625,P13,D01,0,0,1
2223,-0.11,1645174100.78125,P13,D01,0,0,1
2224,0.11,1645174100.796875,P13,D01,0,0,1
2225,0.28,1645174100.8125,P13,D01,0,0,1
2226,0.38,1645174100.828125,P13,D01,0,0,1
2227,0.44,1645174100.84375,P13,D01,0,0,1
2228,0.49,1645174100.859375,P13,D01,0,0,1
2229,0.53,1645174100.875,P13,D01,0,0,1
2230,0.56,1645174100.890625,P13,D01,0,0,1
2231,0.54,1645174100.90625,P13,D01,0,0,1
2232,0.46,1645174100.921875,P13,D01,0,0,1
2233,0.3,1645174100.9375,P13,D01,0,0,1
2234,0.07,1645174100.953125,P13,D01,0,0,1
2235,-0.2,1645174100.96875,P13,D01,0,0,1
2236,-0.48,1645174100.984375,P13,D01,0,0,1
2237,-0.7,1645174101.0,P13,D01,0,0,1
2238,-0.84,1645174101.015625,P13,D01,0,0,1
2239,-0.86,1645174101.03125,P13,D01,0,0,1
2240,-0.79,1645174101.046875,P13,D01,0,0,1
2241,-0.69,1645174101.0625,P13,D01,0,0,1
2242,-0.63,1645174101.078125,P13,D01,0,0,1
2243,-0.65,1645174101.09375,P13,D01,0,0,1
2244,-0.76,1645174101.109375,P13,D01,0,0,1
2245,-0.92,1645174101.125,P13,D01,0,0,1
2246,-1.03,1645174101.140625,P13,D01,0,0,1
2247,-1.06,1645174101.15625,P13,D01,0,0,1
2248,-0.99,1645174101.171875,P13,D01,0,0,1
2249,-0.87,1645174101.1875,P13,D01,0,0,1
2250,-0.77,1645174101.203125,P13,D01,0,0,1
2251,-0.77,1645174101.21875,P13,D01,0,0,1
2252,-0.91,1645174101.234375,P13,D01,0,0,1
2253,-1.16,1645174101.25,P13,D01,0,0,1
2254,-1.44,1645174101.265625,P13,D01,0,0,1
2255,-1.63,1645174101.28125,P13,D01,0,0,1
2256,-1.64,1645174101.296875,P13,D01,0,0,1
2257,-1.43,1645174101.3125,P13,D01,0,0,1
2258,-1.05,1645174101.328125,P13,D01,0,0,1
2259,-0.64,1645174101.34375,P13,D01,0,0,1
2260,-0.34,1645174101.359375,P13,D01,0,0,1
2261,-0.25,1645174101.375,P13,D01,0,0,1
2262,-0.37,1645174101.390625,P13,D01,0,0,1
2263,-0.6,1645174101.40625,P13,D01,0,0,1
2264,-0.8,1645174101.421875,P13,D01,0,0,1
2265,-0.86,1645174101.4375,P13,D01,0,0,1
2266,-0.76,1645174101.453125,P13,D01,0,0,1
2267,-0.53,1645174101.46875,P13,D01,0,0,1
2268,-0.28,1645174101.484375,P13,D01,0,0,1
2269,-0.08,1645174101.5,P13,D01,0,0,1
2270,0.04,1645174101.515625,P13,D01,0,0,1
2271,0.09,1645174101.53125,P13,D01,0,0,1
2272,0.1,1645174101.546875,P13,D01,0,0,1
2273,0.05,1645174101.5625,P13,D01,0,0,1
2274,-0.05,1645174101.578125,P13,D01,0,0,1
2275,-0.21,1645174101.59375,P13,D01,0,0,1
2276,-0.36,1645174101.609375,P13,D01,0,0,1
2277,-0.44,1645174101.625,P13,D01,0,0,1
2278,-0.36,1645174101.640625,P13,D01,0,0,1
2279,-0.09,1645174101.65625,P13,D01,0,0,1
2280,0.31,1645174101.671875,P13,D01,0,0,1
2281,0.74,1645174101.6875,P13,D01,0,0,1
2282,1.09,1645174101.703125,P13,D01,0,0,1
2283,1.31,1645174101.71875,P13,D01,0,0,1
2284,1.4,1645174101.734375,P13,D01,0,0,1
2285,1.41,1645174101.75,P13,D01,0,0,1
2286,1.43,1645174101.765625,P13,D01,0,0,1
2287,1.47,1645174101.78125,P13,D01,0,0,1
2288,1.53,1645174101.796875,P13,D01,0,0,1
2289,1.59,1645174101.8125,P13,D01,0,0,1
2290,1.59,1645174101.828125,P13,D01,0,0,1
2291,1.51,1645174101.84375,P13,D01,0,0,1
2292,1.35,1645174101.859375,P13,D01,0,0,1
2293,1.14,1645174101.875,P13,D01,0,0,1
2294,0.93,1645174101.890625,P13,D01,0,0,1
2295,0.77,1645174101.90625,P13,D01,0,0,1
2296,0.62,1645174101.921875,P13,D01,0,0,1
2297,0.47,1645174101.9375,P13,D01,0,0,1
2298,0.26,1645174101.953125,P13,D01,0,0,1
2299,-0.05,1645174101.96875,P13,D01,0,0,1
2300,-0.39,1645174101.984375,P13,D01,0,0,1
2301,-0.68,1645174102.0,P13,D01,0,0,1
2302,-0.8,1645174102.015625,P13,D01,0,0,1
2303,-0.7,1645174102.03125,P13,D01,0,0,1
2304,-0.42,1645174102.046875,P13,D01,0,0,1
2305,-0.07,1645174102.0625,P13,D01,0,0,1
2306,0.21,1645174102.078125,P13,D01,0,0,1
2307,0.34,1645174102.09375,P13,D01,0,0,1
2308,0.31,1645174102.109375,P13,D01,0,0,1
2309,0.17,1645174102.125,P13,D01,0,0,1
2310,-0.01,1645174102.140625,P13,D01,0,0,1
2311,-0.21,1645174102.15625,P13,D01,0,0,1
2312,-0.4,1645174102.171875,P13,D01,0,0,1
2313,-0.58,1645174102.1875,P13,D01,0,0,1
2314,-0.7,1645174102.203125,P13,D01,0,0,1
2315,-0.7,1645174102.21875,P13,D01,0,0,1
2316,-0.52,1645174102.234375,P13,D01,0,0,1
2317,-0.19,1645174102.25,P13,D01,0,0,1
2318,0.23,1645174102.265625,P13,D01,0,0,1
2319,0.61,1645174102.28125,P13,D01,0,0,1
2320,0.82,1645174102.296875,P13,D01,0,0,1
2321,0.81,1645174102.3125,P13,D01,0,0,1
2322,0.57,1645174102.328125,P13,D01,0,0,1
2323,0.21,1645174102.34375,P13,D01,0,0,1
2324,-0.16,1645174102.359375,P13,D01,0,0,1
2325,-0.41,1645174102.375,P13,D01,0,0,1
2326,-0.47,1645174102.390625,P13,D01,0,0,1
2327,-0.3,1645174102.40625,P13,D01,0,0,1
2328,0.05,1645174102.421875,P13,D01,0,0,1
2329,0.48,1645174102.4375,P13,D01,0,0,1
2330,0.85,1645174102.453125,P13,D01,0,0,1
2331,1.09,1645174102.46875,P13,D01,0,0,1
2332,1.15,1645174102.484375,P13,D01,0,0,1
2333,1.07,1645174102.5,P13,D01,0,0,1
2334,0.88,1645174102.515625,P13,D01,0,0,1
2335,0.65,1645174102.53125,P13,D01,0,0,1
2336,0.41,1645174102.546875,P13,D01,0,0,1
2337,0.17,1645174102.5625,P13,D01,0,0,1
2338,-0.06,1645174102.578125,P13,D01,0,0,1
2339,-0.25,1645174102.59375,P13,D01,0,0,1
2340,-0.39,1645174102.609375,P13,D01,0,0,1
2341,-0.47,1645174102.625,P13,D01,0,0,1
2342,-0.48,1645174102.640625,P13,D01,0,0,1
2343,-0.4,1645174102.65625,P13,D01,0,0,1
2344,-0.27,1645174102.671875,P13,D01,0,0,1
2345,-0.1,1645174102.6875,P13,D01,0,0,1
2346,0.03,1645174102.703125,P13,D01,0,0,1
2347,0.08,1645174102.71875,P13,D01,0,0,1
2348,0.01,1645174102.734375,P13,D01,0,0,1
2349,-0.15,1645174102.75,P13,D01,0,0,1
2350,-0.34,1645174102.765625,P13,D01,0,0,1
2351,-0.49,1645174102.78125,P13,D01,0,0,1
2352,-0.58,1645174102.796875,P13,D01,0,0,1
2353,-0.63,1645174102.8125,P13,D01,0,0,1
2354,-0.71,1645174102.828125,P13,D01,0,0,1
2355,-0.87,1645174102.84375,P13,D01,0,0,1
2356,-1.07,1645174102.859375,P13,D01,0,0,1
2357,-1.22,1645174102.875,P13,D01,0,0,1
2358,-1.21,1645174102.890625,P13,D01,0,0,1
2359,-1.0,1645174102.90625,P13,D01,0,0,1
2360,-0.64,1645174102.921875,P13,D01,0,0,1
2361,-0.22,1645174102.9375,P13,D01,0,0,1
2362,0.17,1645174102.953125,P13,D01,0,0,1
2363,0.47,1645174102.96875,P13,D01,0,0,1
2364,0.72,1645174102.984375,P13,D01,0,0,1
2365,0.95,1645174103.0,P13,D01,0,0,1
2366,1.19,1645174103.015625,P13,D01,0,0,1
2367,1.39,1645174103.03125,P13,D01,0,0,1
2368,1.46,1645174103.046875,P13,D01,0,0,1
2369,1.32,1645174103.0625,P13,D01,0,0,1
2370,0.93,1645174103.078125,P13,D01,0,0,1
2371,0.33,1645174103.09375,P13,D01,0,0,1
2372,-0.35,1645174103.109375,P13,D01,0,0,1
2373,-0.9,1645174103.125,P13,D01,0,0,1
2374,-1.17,1645174103.140625,P13,D01,0,0,1
2375,-1.1,1645174103.15625,P13,D01,0,0,1
2376,-0.74,1645174103.171875,P13,D01,0,0,1
2377,-0.22,1645174103.1875,P13,D01,0,0,1
2378,0.27,1645174103.203125,P13,D01,0,0,1
2379,0.57,1645174103.21875,P13,D01,0,0,1
2380,0.61,1645174103.234375,P13,D01,0,0,1
2381,0.41,1645174103.25,P13,D01,0,0,1
2382,0.08,1645174103.265625,P13,D01,0,0,1
2383,-0.29,1645174103.28125,P13,D01,0,0,1
2384,-0.58,1645174103.296875,P13,D01,0,0,1
2385,-0.73,1645174103.3125,P13,D01,0,0,1
2386,-0.7,1645174103.328125,P13,D01,0,0,1
2387,-0.53,1645174103.34375,P13,D01,0,0,1
2388,-0.26,1645174103.359375,P13,D01,0,0,1
2389,0.01,1645174103.375,P13,D01,0,0,1
2390,0.2,1645174103.390625,P13,D01,0,0,1
2391,0.24,1645174103.40625,P13,D01,0,0,1
2392,0.1,1645174103.421875,P13,D01,0,0,1
2393,-0.13,1645174103.4375,P13,D01,0,0,1
2394,-0.36,1645174103.453125,P13,D01,0,0,1
2395,-0.47,1645174103.46875,P13,D01,0,0,1
2396,-0.38,1645174103.484375,P13,D01,0,0,1
2397,-0.1,1645174103.5,P13,D01,0,0,1
2398,0.26,1645174103.515625,P13,D01,0,0,1
2399,0.55,1645174103.53125,P13,D01,0,0,1
2400,0.68,1645174103.546875,P13,D01,0,0,1
2401,0.59,1645174103.5625,P13,D01,0,0,1
2402,0.35,1645174103.578125,P13,D01,0,0,1
2403,0.08,1645174103.59375,P13,D01,0,0,1
2404,-0.13,1645174103.609375,P13,D01,0,0,1
2405,-0.24,1645174103.625,P13,D01,0,0,1
2406,-0.26,1645174103.640625,P13,D01,0,0,1
2407,-0.28,1645174103.65625,P13,D01,0,0,1
2408,-0.32,1645174103.671875,P13,D01,0,0,1
2409,-0.39,1645174103.6875,P13,D01,0,0,1
2410,-0.42,1645174103.703125,P13,D01,0,0,1
2411,-0.34,1645174103.71875,P13,D01,0,0,1
2412,-0.13,1645174103.734375,P13,D01,0,0,1
2413,0.18,1645174103.75,P13,D01,0,0,1
2414,0.51,1645174103.765625,P13,D01,0,0,1
2415,0.79,1645174103.78125,P13,D01,0,0,1
2416,0.97,1645174103.796875,P13,D01,0,0,1
2417,1.03,1645174103.8125,P13,D01,0,0,1
2418,0.95,1645174103.828125,P13,D01,0,0,1
2419,0.74,1645174103.84375,P13,D01,0,0,1
2420,0.4,1645174103.859375,P13,D01,0,0,1
2421,-0.02,1645174103.875,P13,D01,0,0,1
2422,-0.46,1645174103.890625,P13,D01,0,0,1
2423,-0.84,1645174103.90625,P13,D01,0,0,1
2424,-1.06,1645174103.921875,P13,D01,0,0,1
2425,-1.1,1645174103.9375,P13,D01,0,0,1
2426,-0.98,1645174103.953125,P13,D01,0,0,1
2427,-0.79,1645174103.96875,P13,D01,0,0,1
2428,-0.61,1645174103.984375,P13,D01,0,0,1
2429,-0.49,1645174104.0,P13,D01,0,0,1
2430,-0.4,1645174104.015625,P13,D01,0,0,1
2431,-0.26,1645174104.03125,P13,D01,0,0,1
2432,-0.03,1645174104.046875,P13,D01,0,0,1
2433,0.28,1645174104.0625,P13,D01,0,0,1
2434,0.57,1645174104.078125,P13,D01,0,0,1
2435,0.73,1645174104.09375,P13,D01,0,0,1
2436,0.68,1645174104.109375,P13,D01,0,0,1
2437,0.45,1645174104.125,P13,D01,0,0,1
2438,0.14,1645174104.140625,P13,D01,0,0,1
2439,-0.13,1645174104.15625,P13,D01,0,0,1
2440,-0.31,1645174104.171875,P13,D01,0,0,1
2441,-0.45,1645174104.1875,P13,D01,0,0,1
2442,-0.66,1645174104.203125,P13,D01,0,0,1
2443,-1.02,1645174104.21875,P13,D01,0,0,1
2444,-1.5,1645174104.234375,P13,D01,0,0,1
2445,-2.0,1645174104.25,P13,D01,0,0,1
2446,-2.33,1645174104.265625,P13,D01,0,0,1
2447,-2.4,1645174104.28125,P13,D01,0,0,1
2448,-2.2,1645174104.296875,P13,D01,0,0,1
2449,-1.84,1645174104.3125,P13,D01,0,0,1
2450,-1.46,1645174104.328125,P13,D01,0,0,1
2451,-1.19,1645174104.34375,P13,D01,0,0,1
2452,-1.05,1645174104.359375,P13,D01,0,0,1
2453,-0.99,1645174104.375,P13,D01,0,0,1
2454,-0.93,1645174104.390625,P13,D01,0,0,1
2455,-0.81,1645174104.40625,P13,D01,0,0,1
2456,-0.6,1645174104.421875,P13,D01,0,0,1
2457,-0.33,1645174104.4375,P13,D01,0,0,1
2458,-0.09,1645174104.453125,P13,D01,0,0,1
2459,0.07,1645174104.46875,P13,D01,0,0,1
2460,0.11,1645174104.484375,P13,D01,0,0,1
2461,0.03,1645174104.5,P13,D01,0,0,1
2462,-0.13,1645174104.515625,P13,D01,0,0,1
2463,-0.27,1645174104.53125,P13,D01,0,0,1
2464,-0.35,1645174104.546875,P13,D01,0,0,1
2465,-0.32,1645174104.5625,P13,D01,0,0,1
2466,-0.19,1645174104.578125,P13,D01,0,0,1
2467,0.01,1645174104.59375,P13,D01,0,0,1
2468,0.24,1645174104.609375,P13,D01,0,0,1
2469,0.47,1645174104.625,P13,D01,0,0,1
2470,0.73,1645174104.640625,P13,D01,0,0,1
2471,0.98,1645174104.65625,P13,D01,0,0,1
2472,1.17,1645174104.671875,P13,D01,0,0,1
2473,1.24,1645174104.6875,P13,D01,0,0,1
2474,1.12,1645174104.703125,P13,D01,0,0,1
2475,0.83,1645174104.71875,P13,D01,0,0,1
2476,0.44,1645174104.734375,P13,D01,0,0,1
2477,0.1,1645174104.75,P13,D01,0,0,1
2478,-0.08,1645174104.765625,P13,D01,0,0,1
2479,-0.05,1645174104.78125,P13,D01,0,0,1
2480,0.12,1645174104.796875,P13,D01,0,0,1
2481,0.36,1645174104.8125,P13,D01,0,0,1
2482,0.56,1645174104.828125,P13,D01,0,0,1
2483,0.72,1645174104.84375,P13,D01,0,0,1
2484,0.85,1645174104.859375,P13,D01,0,0,1
2485,1.03,1645174104.875,P13,D01,0,0,1
2486,1.24,1645174104.890625,P13,D01,0,0,1
2487,1.43,1645174104.90625,P13,D01,0,0,1
2488,1.53,1645174104.921875,P13,D01,0,0,1
2489,1.49,1645174104.9375,P13,D01,0,0,1
2490,1.33,1645174104.953125,P13,D01,0,0,1
2491,1.14,1645174104.96875,P13,D01,0,0,1
2492,1.02,1645174104.984375,P13,D01,0,0,1
2493,1.02,1645174105.0,P13,D01,0,0,1
2494,1.15,1645174105.015625,P13,D01,0,0,1
2495,1.32,1645174105.03125,P13,D01,0,0,1
2496,1.43,1645174105.046875,P13,D01,0,0,1
2497,1.42,1645174105.0625,P13,D01,0,0,1
2498,1.26,1645174105.078125,P13,D01,0,0,1
2499,1.01,1645174105.09375,P13,D01,0,0,1
2500,0.75,1645174105.109375,P13,D01,0,0,1
2501,0.53,1645174105.125,P13,D01,0,0,1
2502,0.41,1645174105.140625,P13,D01,0,0,1
2503,0.36,1645174105.15625,P13,D01,0,0,1
2504,0.33,1645174105.171875,P13,D01,0,0,1
2505,0.26,1645174105.1875,P13,D01,0,0,1
2506,0.1,1645174105.203125,P13,D01,0,0,1
2507,-0.14,1645174105.21875,P13,D01,0,0,1
2508,-0.41,1645174105.234375,P13,D01,0,0,1
2509,-0.64,1645174105.25,P13,D01,0,0,1
2510,-0.71,1645174105.265625,P13,D01,0,0,1
2511,-0.6,1645174105.28125,P13,D01,0,0,1
2512,-0.33,1645174105.296875,P13,D01,0,0,1
2513,-0.01,1645174105.3125,P13,D01,0,0,1
2514,0.25,1645174105.328125,P13,D01,0,0,1
2515,0.35,1645174105.34375,P13,D01,0,0,1
2516,0.28,1645174105.359375,P13,D01,0,0,1
2517,0.15,1645174105.375,P13,D01,0,0,1
2518,0.07,1645174105.390625,P13,D01,0,0,1
2519,0.15,1645174105.40625,P13,D01,0,0,1
2520,0.37,1645174105.421875,P13,D01,0,0,1
2521,0.64,1645174105.4375,P13,D01,0,0,1
2522,0.84,1645174105.453125,P13,D01,0,0,1
2523,0.91,1645174105.46875,P13,D01,0,0,1
2524,0.82,1645174105.484375,P13,D01,0,0,1
2525,0.64,1645174105.5,P13,D01,0,0,1
2526,0.43,1645174105.515625,P13,D01,0,0,1
2527,0.24,1645174105.53125,P13,D01,0,0,1
2528,0.09,1645174105.546875,P13,D01,0,0,1
2529,-0.02,1645174105.5625,P13,D01,0,0,1
2530,-0.07,1645174105.578125,P13,D01,0,0,1
2531,-0.03,1645174105.59375,P13,D01,0,0,1
2532,0.08,1645174105.609375,P13,D01,0,0,1
2533,0.22,1645174105.625,P13,D01,0,0,1
2534,0.29,1645174105.640625,P13,D01,0,0,1
2535,0.21,1645174105.65625,P13,D01,0,0,1
2536,-0.06,1645174105.671875,P13,D01,0,0,1
2537,-0.43,1645174105.6875,P13,D01,0,0,1
2538,-0.76,1645174105.703125,P13,D01,0,0,1
2539,-0.85,1645174105.71875,P13,D01,0,0,1
2540,-0.62,1645174105.734375,P13,D01,0,0,1
2541,-0.1,1645174105.75,P13,D01,0,0,1
2542,0.56,1645174105.765625,P13,D01,0,0,1
2543,1.18,1645174105.78125,P13,D01,0,0,1
2544,1.61,1645174105.796875,P13,D01,0,0,1
2545,1.85,1645174105.8125,P13,D01,0,0,1
2546,1.96,1645174105.828125,P13,D01,0,0,1
2547,2.03,1645174105.84375,P13,D01,0,0,1
2548,2.1,1645174105.859375,P13,D01,0,0,1
2549,2.11,1645174105.875,P13,D01,0,0,1
2550,2.01,1645174105.890625,P13,D01,0,0,1
2551,1.73,1645174105.90625,P13,D01,0,0,1
2552,1.31,1645174105.921875,P13,D01,0,0,1
2553,0.82,1645174105.9375,P13,D01,0,0,1
2554,0.35,1645174105.953125,P13,D01,0,0,1
2555,-0.04,1645174105.96875,P13,D01,0,0,1
2556,-0.37,1645174105.984375,P13,D01,0,0,1
2557,-0.64,1645174106.0,P13,D01,0,0,1
2558,-0.88,1645174106.015625,P13,D01,0,0,1
2559,-1.03,1645174106.03125,P13,D01,0,0,1
2560,-1.09,1645174106.046875,P13,D01,0,0,1
2561,-1.05,1645174106.0625,P13,D01,0,0,1
2562,-0.97,1645174106.078125,P13,D01,0,0,1
2563,-0.93,1645174106.09375,P13,D01,0,0,1
2564,-0.96,1645174106.109375,P13,D01,0,0,1
2565,-1.03,1645174106.125,P13,D01,0,0,1
2566,-1.06,1645174106.140625,P13,D01,0,0,1
2567,-0.95,1645174106.15625,P13,D01,0,0,1
2568,-0.67,1645174106.171875,P13,D01,0,0,1
2569,-0.23,1645174106.1875,P13,D01,0,0,1
2570,0.25,1645174106.203125,P13,D01,0,0,1
2571,0.69,1645174106.21875,P13,D01,0,0,1
2572,0.99,1645174106.234375,P13,D01,0,0,1
2573,1.11,1645174106.25,P13,D01,0,0,1
2574,1.05,1645174106.265625,P13,D01,0,0,1
2575,0.85,1645174106.28125,P13,D01,0,0,1
2576,0.6,1645174106.296875,P13,D01,0,0,1
2577,0.36,1645174106.3125,P13,D01,0,0,1
2578,0.2,1645174106.328125,P13,D01,0,0,1
2579,0.13,1645174106.34375,P13,D01,0,0,1
2580,0.08,1645174106.359375,P13,D01,0,0,1
2581,-0.03,1645174106.375,P13,D01,0,0,1
2582,-0.24,1645174106.390625,P13,D01,0,0,1
2583,-0.55,1645174106.40625,P13,D01,0,0,1
2584,-0.87,1645174106.421875,P13,D01,0,0,1
2585,-1.11,1645174106.4375,P13,D01,0,0,1
2586,-1.2,1645174106.453125,P13,D01,0,0,1
2587,-1.14,1645174106.46875,P13,D01,0,0,1
2588,-1.0,1645174106.484375,P13,D01,0,0,1
2589,-0.86,1645174106.5,P13,D01,0,0,1
2590,-0.74,1645174106.515625,P13,D01,0,0,1
2591,-0.63,1645174106.53125,P13,D01,0,0,1
2592,-0.49,1645174106.546875,P13,D01,0,0,1
2593,-0.29,1645174106.5625,P13,D01,0,0,1
2594,-0.07,1645174106.578125,P13,D01,0,0,1
2595,0.11,1645174106.59375,P13,D01,0,0,1
2596,0.22,1645174106.609375,P13,D01,0,0,1
2597,0.24,1645174106.625,P13,D01,0,0,1
2598,0.21,1645174106.640625,P13,D01,0,0,1
2599,0.13,1645174106.65625,P13,D01,0,0,1
2600,0.0,1645174106.671875,P13,D01,0,0,1
2601,-0.22,1645174106.6875,P13,D01,0,0,1
2602,-0.56,1645174106.703125,P13,D01,0,0,1
2603,-0.96,1645174106.71875,P13,D01,0,0,1
2604,-1.31,1645174106.734375,P13,D01,0,0,1
2605,-1.46,1645174106.75,P13,D01,0,0,1
2606,-1.33,1645174106.765625,P13,D01,0,0,1
2607,-0.97,1645174106.78125,P13,D01,0,0,1
2608,-0.49,1645174106.796875,P13,D01,0,0,1
2609,-0.08,1645174106.8125,P13,D01,0,0,1
2610,0.13,1645174106.828125,P13,D01,0,0,1
2611,0.13,1645174106.84375,P13,D01,0,0,1
2612,-0.01,1645174106.859375,P13,D01,0,0,1
2613,-0.16,1645174106.875,P13,D01,0,0,1
2614,-0.18,1645174106.890625,P13,D01,0,0,1
2615,-0.02,1645174106.90625,P13,D01,0,0,1
2616,0.28,1645174106.921875,P13,D01,0,0,1
2617,0.59,1645174106.9375,P13,D01,0,0,1
2618,0.79,1645174106.953125,P13,D01,0,0,1
2619,0.82,1645174106.96875,P13,D01,0,0,1
2620,0.73,1645174106.984375,P13,D01,0,0,1
2621,0.64,1645174107.0,P13,D01,0,0,1
2622,0.67,1645174107.015625,P13,D01,0,0,1
2623,0.85,1645174107.03125,P13,D01,0,0,1
2624,1.08,1645174107.046875,P13,D01,0,0,1
2625,1.19,1645174107.0625,P13,D01,0,0,1
2626,1.05,1645174107.078125,P13,D01,0,0,1
2627,0.67,1645174107.09375,P13,D01,0,0,1
2628,0.17,1645174107.109375,P13,D01,0,0,1
2629,-0.24,1645174107.125,P13,D01,0,0,1
2630,-0.44,1645174107.140625,P13,D01,0,0,1
2631,-0.42,1645174107.15625,P13,D01,0,0,1
2632,-0.3,1645174107.171875,P13,D01,0,0,1
2633,-0.2,1645174107.1875,P13,D01,0,0,1
2634,-0.19,1645174107.203125,P13,D01,0,0,1
2635,-0.25,1645174107.21875,P13,D01,0,0,1
2636,-0.29,1645174107.234375,P13,D01,0,0,1
2637,-0.23,1645174107.25,P13,D01,0,0,1
2638,-0.04,1645174107.265625,P13,D01,0,0,1
2639,0.19,1645174107.28125,P13,D01,0,0,1
2640,0.35,1645174107.296875,P13,D01,0,0,1
2641,0.34,1645174107.3125,P13,D01,0,0,1
2642,0.16,1645174107.328125,P13,D01,0,0,1
2643,-0.16,1645174107.34375,P13,D01,0,0,1
2644,-0.51,1645174107.359375,P13,D01,0,0,1
2645,-0.8,1645174107.375,P13,D01,0,0,1
2646,-0.98,1645174107.390625,P13,D01,0,0,1
2647,-1.05,1645174107.40625,P13,D01,0,0,1
2648,-1.05,1645174107.421875,P13,D01,0,0,1
2649,-1.05,1645174107.4375,P13,D01,0,0,1
2650,-1.08,1645174107.453125,P13,D01,0,0,1
2651,-1.13,1645174107.46875,P13,D01,0,0,1
2652,-1.16,1645174107.484375,P13,D01,0,0,1
2653,-1.1,1645174107.5,P13,D01,0,0,1
2654,-0.95,1645174107.515625,P13,D01,0,0,1
2655,-0.71,1645174107.53125,P13,D01,0,0,1
2656,-0.47,1645174107.546875,P13,D01,0,0,1
2657,-0.29,1645174107.5625,P13,D01,0,0,1
2658,-0.2,1645174107.578125,P13,D01,0,0,1
2659,-0.19,1645174107.59375,P13,D01,0,0,1
2660,-0.19,1645174107.609375,P13,D01,0,0,1
2661,-0.15,1645174107.625,P13,D01,0,0,1
2662,-0.06,1645174107.640625,P13,D01,0,0,1
2663,0.05,1645174107.65625,P13,D01,0,0,1
2664,0.11,1645174107.671875,P13,D01,0,0,1
2665,0.09,1645174107.6875,P13,D01,0,0,1
2666,-0.01,1645174107.703125,P13,D01,0,0,1
2667,-0.15,1645174107.71875,P13,D01,0,0,1
2668,-0.29,1645174107.734375,P13,D01,0,0,1
2669,-0.42,1645174107.75,P13,D01,0,0,1
2670,-0.54,1645174107.765625,P13,D01,0,0,1
2671,-0.67,1645174107.78125,P13,D01,0,0,1
2672,-0.77,1645174107.796875,P13,D01,0,0,1
2673,-0.78,1645174107.8125,P13,D01,0,0,1
2674,-0.64,1645174107.828125,P13,D01,0,0,1
2675,-0.34,1645174107.84375,P13,D01,0,0,1
2676,0.05,1645174107.859375,P13,D01,0,0,1
2677,0.41,1645174107.875,P13,D01,0,0,1
2678,0.61,1645174107.890625,P13,D01,0,0,1
2679,0.61,1645174107.90625,P13,D01,0,0,1
2680,0.4,1645174107.921875,P13,D01,0,0,1
2681,0.08,1645174107.9375,P13,D01,0,0,1
2682,-0.25,1645174107.953125,P13,D01,0,0,1
2683,-0.5,1645174107.96875,P13,D01,0,0,1
2684,-0.6,1645174107.984375,P13,D01,0,0,1
2685,-0.52,1645174108.0,P13,D01,0,0,1
2686,-0.3,1645174108.015625,P13,D01,0,0,1
2687,-0.03,1645174108.03125,P13,D01,0,0,1
2688,0.2,1645174108.046875,P13,D01,0,0,1
2689,0.28,1645174108.0625,P13,D01,0,0,1
2690,0.19,1645174108.078125,P13,D01,0,0,1
2691,-0.01,1645174108.09375,P13,D01,0,0,1
2692,-0.2,1645174108.109375,P13,D01,0,0,1
2693,-0.22,1645174108.125,P13,D01,0,0,1
2694,-0.03,1645174108.140625,P13,D01,0,0,1
2695,0.32,1645174108.15625,P13,D01,0,0,1
2696,0.68,1645174108.171875,P13,D01,0,0,1
2697,0.87,1645174108.1875,P13,D01,0,0,1
2698,0.8,1645174108.203125,P13,D01,0,0,1
2699,0.47,1645174108.21875,P13,D01,0,0,1
2700,0.01,1645174108.234375,P13,D01,0,0,1
2701,-0.43,1645174108.25,P13,D01,0,0,1
2702,-0.72,1645174108.265625,P13,D01,0,0,1
2703,-0.84,1645174108.28125,P13,D01,0,0,1
2704,-0.8,1645174108.296875,P13,D01,0,0,1
2705,-0.67,1645174108.3125,P13,D01,0,0,1
2706,-0.51,1645174108.328125,P13,D01,0,0,1
2707,-0.36,1645174108.34375,P13,D01,0,0,1
2708,-0.22,1645174108.359375,P13,D01,0,0,1
2709,-0.05,1645174108.375,P13,D01,0,0,1
2710,0.19,1645174108.390625,P13,D01,0,0,1
2711,0.49,1645174108.40625,P13,D01,0,0,1
2712,0.83,1645174108.421875,P13,D01,0,0,1
2713,1.11,1645174108.4375,P13,D01,0,0,1
2714,1.29,1645174108.453125,P13,D01,0,0,1
2715,1.31,1645174108.46875,P13,D01,0,0,1
2716,1.19,1645174108.484375,P13,D01,0,0,1
2717,1.0,1645174108.5,P13,D01,0,0,1
2718,0.79,1645174108.515625,P13,D01,0,0,1
2719,0.6,1645174108.53125,P13,D01,0,0,1
2720,0.38,1645174108.546875,P13,D01,0,0,1
2721,0.05,1645174108.5625,P13,D01,0,0,1
2722,-0.42,1645174108.578125,P13,D01,0,0,1
2723,-1.01,1645174108.59375,P13,D01,0,0,1
2724,-1.56,1645174108.609375,P13,D01,0,0,1
2725,-1.86,1645174108.625,P13,D01,0,0,1
2726,-1.77,1645174108.640625,P13,D01,0,0,1
2727,-1.26,1645174108.65625,P13,D01,0,0,1
2728,-0.47,1645174108.671875,P13,D01,0,0,1
2729,0.32,1645174108.6875,P13,D01,0,0,1
2730,0.89,1645174108.703125,P13,D01,0,0,1
2731,1.1,1645174108.71875,P13,D01,0,0,1
2732,0.98,1645174108.734375,P13,D01,0,0,1
2733,0.7,1645174108.75,P13,D01,0,0,1
2734,0.42,1645174108.765625,P13,D01,0,0,1
2735,0.26,1645174108.78125,P13,D01,0,0,1
2736,0.21,1645174108.796875,P13,D01,0,0,1
2737,0.17,1645174108.8125,P13,D01,0,0,1
2738,0.04,1645174108.828125,P13,D01,0,0,1
2739,-0.23,1645174108.84375,P13,D01,0,0,1
2740,-0.52,1645174108.859375,P13,D01,0,0,1
2741,-0.69,1645174108.875,P13,D01,0,0,1
2742,-0.63,1645174108.890625,P13,D01,0,0,1
2743,-0.32,1645174108.90625,P13,D01,0,0,1
2744,0.12,1645174108.921875,P13,D01,0,0,1
2745,0.51,1645174108.9375,P13,D01,0,0,1
2746,0.7,1645174108.953125,P13,D01,0,0,1
2747,0.67,1645174108.96875,P13,D01,0,0,1
2748,0.47,1645174108.984375,P13,D01,0,0,1
2749,0.25,1645174109.0,P13,D01,0,0,1
2750,0.1,1645174109.015625,P13,D01,0,0,1
2751,0.06,1645174109.03125,P13,D01,0,0,1
2752,0.07,1645174109.046875,P13,D01,0,0,1
2753,0.08,1645174109.0625,P13,D01,0,0,1
2754,0.07,1645174109.078125,P13,D01,0,0,1
2755,0.11,1645174109.09375,P13,D01,0,0,1
2756,0.26,1645174109.109375,P13,D01,0,0,1
2757,0.54,1645174109.125,P13,D01,0,0,1
2758,0.88,1645174109.140625,P13,D01,0,0,1
2759,1.16,1645174109.15625,P13,D01,0,0,1
2760,1.24,1645174109.171875,P13,D01,0,0,1
2761,1.06,1645174109.1875,P13,D01,0,0,1
2762,0.67,1645174109.203125,P13,D01,0,0,1
2763,0.21,1645174109.21875,P13,D01,0,0,1
2764,-0.17,1645174109.234375,P13,D01,0,0,1
2765,-0.36,1645174109.25,P13,D01,0,0,1
2766,-0.38,1645174109.265625,P13,D01,0,0,1
2767,-0.3,1645174109.28125,P13,D01,0,0,1
2768,-0.23,1645174109.296875,P13,D01,0,0,1
2769,-0.24,1645174109.3125,P13,D01,0,0,1
2770,-0.33,1645174109.328125,P13,D01,0,0,1
2771,-0.44,1645174109.34375,P13,D01,0,0,1
2772,-0.5,1645174109.359375,P13,D01,0,0,1
2773,-0.46,1645174109.375,P13,D01,0,0,1
2774,-0.31,1645174109.390625,P13,D01,0,0,1
2775,-0.1,1645174109.40625,P13,D01,0,0,1
2776,0.12,1645174109.421875,P13,D01,0,0,1
2777,0.26,1645174109.4375,P13,D01,0,0,1
2778,0.29,1645174109.453125,P13,D01,0,0,1
2779,0.21,1645174109.46875,P13,D01,0,0,1
2780,0.07,1645174109.484375,P13,D01,0,0,1
2781,-0.06,1645174109.5,P13,D01,0,0,1
2782,-0.14,1645174109.515625,P13,D01,0,0,1
2783,-0.13,1645174109.53125,P13,D01,0,0,1
2784,-0.02,1645174109.546875,P13,D01,0,0,1
2785,0.13,1645174109.5625,P13,D01,0,0,1
2786,0.3,1645174109.578125,P13,D01,0,0,1
2787,0.43,1645174109.59375,P13,D01,0,0,1
2788,0.5,1645174109.609375,P13,D01,0,0,1
2789,0.52,1645174109.625,P13,D01,0,0,1
2790,0.51,1645174109.640625,P13,D01,0,0,1
2791,0.5,1645174109.65625,P13,D01,0,0,1
2792,0.5,1645174109.671875,P13,D01,0,0,1
2793,0.53,1645174109.6875,P13,D01,0,0,1
2794,0.57,1645174109.703125,P13,D01,0,0,1
2795,0.61,1645174109.71875,P13,D01,0,0,1
2796,0.6,1645174109.734375,P13,D01,0,0,1
2797,0.56,1645174109.75,P13,D01,0,0,1
2798,0.5,1645174109.765625,P13,D01,0,0,1
2799,0.47,1645174109.78125,P13,D01,0,0,1
2800,0.51,1645174109.796875,P13,D01,0,0,1
2801,0.59,1645174109.8125,P13,D01,0,0,1
2802,0.63,1645174109.828125,P13,D01,0,0,1
2803,0.55,1645174109.84375,P13,D01,0,0,1
2804,0.28,1645174109.859375,P13,D01,0,0,1
2805,-0.14,1645174109.875,P13,D01,0,0,1
2806,-0.57,1645174109.890625,P13,D01,0,0,1
2807,-0.87,1645174109.90625,P13,D01,0,0,1
2808,-0.93,1645174109.921875,P13,D01,0,0,1
2809,-0.76,1645174109.9375,P13,D01,0,0,1
2810,-0.48,1645174109.953125,P13,D01,0,0,1
2811,-0.28,1645174109.96875,P13,D01,0,0,1
2812,-0.3,1645174109.984375,P13,D01,0,0,1
2813,-0.59,1645174110.0,P13,D01,0,0,1
2814,-1.08,1645174110.015625,P13,D01,0,0,1
2815,-1.57,1645174110.03125,P13,D01,0,0,1
2816,-1.88,1645174110.046875,P13,D01,0,0,1
2817,-1.89,1645174110.0625,P13,D01,0,0,1
2818,-1.62,1645174110.078125,P13,D01,0,0,1
2819,-1.2,1645174110.09375,P13,D01,0,0,1
2820,-0.78,1645174110.109375,P13,D01,0,0,1
2821,-0.49,1645174110.125,P13,D01,0,0,1
2822,-0.34,1645174110.140625,P13,D01,0,0,1
2823,-0.27,1645174110.15625,P13,D01,0,0,1
2824,-0.2,1645174110.171875,P13,D01,0,0,1
2825,-0.08,1645174110.1875,P13,D01,0,0,1
2826,0.05,1645174110.203125,P13,D01,0,0,1
2827,0.16,1645174110.21875,P13,D01,0,0,1
2828,0.19,1645174110.234375,P13,D01,0,0,1
2829,0.16,1645174110.25,P13,D01,0,0,1
2830,0.12,1645174110.265625,P13,D01,0,0,1
2831,0.12,1645174110.28125,P13,D01,0,0,1
2832,0.16,1645174110.296875,P13,D01,0,0,1
2833,0.22,1645174110.3125,P13,D01,0,0,1
2834,0.28,1645174110.328125,P13,D01,0,0,1
2835,0.34,1645174110.34375,P13,D01,0,0,1
2836,0.44,1645174110.359375,P13,D01,0,0,1
2837,0.59,1645174110.375,P13,D01,0,0,1
2838,0.76,1645174110.390625,P13,D01,0,0,1
2839,0.89,1645174110.40625,P13,D01,0,0,1
2840,0.89,1645174110.421875,P13,D01,0,0,1
2841,0.75,1645174110.4375,P13,D01,0,0,1
2842,0.5,1645174110.453125,P13,D01,0,0,1
2843,0.25,1645174110.46875,P13,D01,0,0,1
2844,0.06,1645174110.484375,P13,D01,0,0,1
2845,-0.01,1645174110.5,P13,D01,0,0,1
2846,0.02,1645174110.515625,P13,D01,0,0,1
2847,0.11,1645174110.53125,P13,D01,0,0,1
2848,0.22,1645174110.546875,P13,D01,0,0,1
2849,0.33,1645174110.5625,P13,D01,0,0,1
2850,0.43,1645174110.578125,P13,D01,0,0,1
2851,0.53,1645174110.59375,P13,D01,0,0,1
2852,0.62,1645174110.609375,P13,D01,0,0,1
2853,0.67,1645174110.625,P13,D01,0,0,1
2854,0.63,1645174110.640625,P13,D01,0,0,1
2855,0.45,1645174110.65625,P13,D01,0,0,1
2856,0.12,1645174110.671875,P13,D01,0,0,1
2857,-0.32,1645174110.6875,P13,D01,0,0,1
2858,-0.8,1645174110.703125,P13,D01,0,0,1
2859,-1.18,1645174110.71875,P13,D01,0,0,1
2860,-1.38,1645174110.734375,P13,D01,0,0,1
2861,-1.39,1645174110.75,P13,D01,0,0,1
2862,-1.27,1645174110.765625,P13,D01,0,0,1
2863,-1.12,1645174110.78125,P13,D01,0,0,1
2864,-1.05,1645174110.796875,P13,D01,0,0,1
2865,-1.06,1645174110.8125,P13,D01,0,0,1
2866,-1.1,1645174110.828125,P13,D01,0,0,1
2867,-1.08,1645174110.84375,P13,D01,0,0,1
2868,-0.9,1645174110.859375,P13,D01,0,0,1
2869,-0.55,1645174110.875,P13,D01,0,0,1
2870,-0.09,1645174110.890625,P13,D01,0,0,1
2871,0.39,1645174110.90625,P13,D01,0,0,1
2872,0.79,1645174110.921875,P13,D01,0,0,1
2873,1.06,1645174110.9375,P13,D01,0,0,1
2874,1.16,1645174110.953125,P13,D01,0,0,1
2875,1.09,1645174110.96875,P13,D01,0,0,1
2876,0.83,1645174110.984375,P13,D01,0,0,1
2877,0.39,1645174111.0,P13,D01,0,0,1
2878,-0.14,1645174111.015625,P13,D01,0,0,1
2879,-0.67,1645174111.03125,P13,D01,0,0,1
2880,-1.04,1645174111.046875,P13,D01,0,0,1
2881,-1.14,1645174111.0625,P13,D01,0,0,1
2882,-0.94,1645174111.078125,P13,D01,0,0,1
2883,-0.54,1645174111.09375,P13,D01,0,0,1
2884,-0.1,1645174111.109375,P13,D01,0,0,1
2885,0.19,1645174111.125,P13,D01,0,0,1
2886,0.27,1645174111.140625,P13,D01,0,0,1
2887,0.15,1645174111.15625,P13,D01,0,0,1
2888,-0.01,1645174111.171875,P13,D01,0,0,1
2889,-0.06,1645174111.1875,P13,D01,0,0,1
2890,0.07,1645174111.203125,P13,D01,0,0,1
2891,0.35,1645174111.21875,P13,D01,0,0,1
2892,0.67,1645174111.234375,P13,D01,0,0,1
2893,0.89,1645174111.25,P13,D01,0,0,1
2894,0.97,1645174111.265625,P13,D01,0,0,1
2895,0.93,1645174111.28125,P13,D01,0,0,1
2896,0.85,1645174111.296875,P13,D01,0,0,1
2897,0.8,1645174111.3125,P13,D01,0,0,1
2898,0.8,1645174111.328125,P13,D01,0,0,1
2899,0.83,1645174111.34375,P13,D01,0,0,1
2900,0.84,1645174111.359375,P13,D01,0,0,1
2901,0.8,1645174111.375,P13,D01,0,0,1
2902,0.68,1645174111.390625,P13,D01,0,0,1
2903,0.51,1645174111.40625,P13,D01,0,0,1
2904,0.3,1645174111.421875,P13,D01,0,0,1
2905,0.07,1645174111.4375,P13,D01,0,0,1
2906,-0.16,1645174111.453125,P13,D01,0,0,1
2907,-0.37,1645174111.46875,P13,D01,0,0,1
2908,-0.56,1645174111.484375,P13,D01,0,0,1
2909,-0.72,1645174111.5,P13,D01,0,0,1
2910,-0.85,1645174111.515625,P13,D01,0,0,1
2911,-0.95,1645174111.53125,P13,D01,0,0,1
2912,-0.98,1645174111.546875,P13,D01,0,0,1
2913,-0.92,1645174111.5625,P13,D01,0,0,1
2914,-0.77,1645174111.578125,P13,D01,0,0,1
2915,-0.54,1645174111.59375,P13,D01,0,0,1
2916,-0.32,1645174111.609375,P13,D01,0,0,1
2917,-0.16,1645174111.625,P13,D01,0,0,1
2918,-0.1,1645174111.640625,P13,D01,0,0,1
2919,-0.13,1645174111.65625,P13,D01,0,0,1
