,data,timestamp,participant,document,val,arou,eng
0,-0.69,1644844326.765625,P08,D02,1,1,1
1,-0.31,1644844326.78125,P08,D02,1,1,1
2,0.09,1644844326.796875,P08,D02,1,1,1
3,0.34,1644844326.8125,P08,D02,1,1,1
4,0.34,1644844326.828125,P08,D02,1,1,1
5,0.13,1644844326.84375,P08,D02,1,1,1
6,-0.13,1644844326.859375,P08,D02,1,1,1
7,-0.28,1644844326.875,P08,D02,1,1,1
8,-0.26,1644844326.890625,P08,D02,1,1,1
9,-0.08,1644844326.90625,P08,D02,1,1,1
10,0.12,1644844326.921875,P08,D02,1,1,1
11,0.21,1644844326.9375,P08,D02,1,1,1
12,0.14,1644844326.953125,P08,D02,1,1,1
13,-0.08,1644844326.96875,P08,D02,1,1,1
14,-0.37,1644844326.984375,P08,D02,1,1,1
15,-0.6,1644844327.0,P08,D02,1,1,1
16,-0.68,1644844327.015625,P08,D02,1,1,1
17,-0.59,1644844327.03125,P08,D02,1,1,1
18,-0.34,1644844327.046875,P08,D02,1,1,1
19,-0.03,1644844327.0625,P08,D02,1,1,1
20,0.23,1644844327.078125,P08,D02,1,1,1
21,0.38,1644844327.09375,P08,D02,1,1,1
22,0.39,1644844327.109375,P08,D02,1,1,1
23,0.33,1644844327.125,P08,D02,1,1,1
24,0.27,1644844327.140625,P08,D02,1,1,1
25,0.3,1644844327.15625,P08,D02,1,1,1
26,0.41,1644844327.171875,P08,D02,1,1,1
27,0.53,1644844327.1875,P08,D02,1,1,1
28,0.56,1644844327.203125,P08,D02,1,1,1
29,0.44,1644844327.21875,P08,D02,1,1,1
30,0.22,1644844327.234375,P08,D02,1,1,1
31,0.04,1644844327.25,P08,D02,1,1,1
32,0.01,1644844327.265625,P08,D02,1,1,1
33,0.19,1644844327.28125,P08,D02,1,1,1
34,0.47,1644844327.296875,P08,D02,1,1,1
35,0.67,1644844327.3125,P08,D02,1,1,1
36,0.64,1644844327.328125,P08,D02,1,1,1
37,0.33,1644844327.34375,P08,D02,1,1,1
38,-0.16,1644844327.359375,P08,D02,1,1,1
39,-0.64,1644844327.375,P08,D02,1,1,1
40,-0.91,1644844327.390625,P08,D02,1,1,1
41,-0.93,1644844327.40625,P08,D02,1,1,1
42,-0.74,1644844327.421875,P08,D02,1,1,1
43,-0.51,1644844327.4375,P08,D02,1,1,1
44,-0.36,1644844327.453125,P08,D02,1,1,1
45,-0.33,1644844327.46875,P08,D02,1,1,1
46,-0.38,1644844327.484375,P08,D02,1,1,1
47,-0.43,1644844327.5,P08,D02,1,1,1
48,-0.4,1644844327.515625,P08,D02,1,1,1
49,-0.27,1644844327.53125,P08,D02,1,1,1
50,-0.11,1644844327.546875,P08,D02,1,1,1
51,0.02,1644844327.5625,P08,D02,1,1,1
52,0.04,1644844327.578125,P08,D02,1,1,1
53,-0.07,1644844327.59375,P08,D02,1,1,1
54,-0.23,1644844327.609375,P08,D02,1,1,1
55,-0.38,1644844327.625,P08,D02,1,1,1
56,-0.41,1644844327.640625,P08,D02,1,1,1
57,-0.3,1644844327.65625,P08,D02,1,1,1
58,-0.06,1644844327.671875,P08,D02,1,1,1
59,0.21,1644844327.6875,P08,D02,1,1,1
60,0.42,1644844327.703125,P08,D02,1,1,1
61,0.48,1644844327.71875,P08,D02,1,1,1
62,0.41,1644844327.734375,P08,D02,1,1,1
63,0.27,1644844327.75,P08,D02,1,1,1
64,0.14,1644844327.765625,P08,D02,1,1,1
65,0.12,1644844327.78125,P08,D02,1,1,1
66,0.22,1644844327.796875,P08,D02,1,1,1
67,0.41,1644844327.8125,P08,D02,1,1,1
68,0.59,1644844327.828125,P08,D02,1,1,1
69,0.67,1644844327.84375,P08,D02,1,1,1
70,0.62,1644844327.859375,P08,D02,1,1,1
71,0.45,1644844327.875,P08,D02,1,1,1
72,0.25,1644844327.890625,P08,D02,1,1,1
73,0.09,1644844327.90625,P08,D02,1,1,1
74,0.02,1644844327.921875,P08,D02,1,1,1
75,0.07,1644844327.9375,P08,D02,1,1,1
76,0.19,1644844327.953125,P08,D02,1,1,1
77,0.34,1644844327.96875,P08,D02,1,1,1
78,0.5,1644844327.984375,P08,D02,1,1,1
79,0.66,1644844328.0,P08,D02,1,1,1
80,0.81,1644844328.015625,P08,D02,1,1,1
81,0.89,1644844328.03125,P08,D02,1,1,1
82,0.85,1644844328.046875,P08,D02,1,1,1
83,0.64,1644844328.0625,P08,D02,1,1,1
84,0.26,1644844328.078125,P08,D02,1,1,1
85,-0.21,1644844328.09375,P08,D02,1,1,1
86,-0.65,1644844328.109375,P08,D02,1,1,1
87,-0.93,1644844328.125,P08,D02,1,1,1
88,-1.01,1644844328.140625,P08,D02,1,1,1
89,-0.89,1644844328.15625,P08,D02,1,1,1
90,-0.64,1644844328.171875,P08,D02,1,1,1
91,-0.32,1644844328.1875,P08,D02,1,1,1
92,0.01,1644844328.203125,P08,D02,1,1,1
93,0.3,1644844328.21875,P08,D02,1,1,1
94,0.48,1644844328.234375,P08,D02,1,1,1
95,0.51,1644844328.25,P08,D02,1,1,1
96,0.39,1644844328.265625,P08,D02,1,1,1
97,0.18,1644844328.28125,P08,D02,1,1,1
98,-0.02,1644844328.296875,P08,D02,1,1,1
99,-0.11,1644844328.3125,P08,D02,1,1,1
100,-0.02,1644844328.328125,P08,D02,1,1,1
101,0.23,1644844328.34375,P08,D02,1,1,1
102,0.5,1644844328.359375,P08,D02,1,1,1
103,0.7,1644844328.375,P08,D02,1,1,1
104,0.72,1644844328.390625,P08,D02,1,1,1
105,0.57,1644844328.40625,P08,D02,1,1,1
106,0.33,1644844328.421875,P08,D02,1,1,1
107,0.05,1644844328.4375,P08,D02,1,1,1
108,-0.2,1644844328.453125,P08,D02,1,1,1
109,-0.37,1644844328.46875,P08,D02,1,1,1
110,-0.46,1644844328.484375,P08,D02,1,1,1
111,-0.44,1644844328.5,P08,D02,1,1,1
112,-0.29,1644844328.515625,P08,D02,1,1,1
113,-0.03,1644844328.53125,P08,D02,1,1,1
114,0.26,1644844328.546875,P08,D02,1,1,1
115,0.48,1644844328.5625,P08,D02,1,1,1
116,0.56,1644844328.578125,P08,D02,1,1,1
117,0.47,1644844328.59375,P08,D02,1,1,1
118,0.26,1644844328.609375,P08,D02,1,1,1
119,0.03,1644844328.625,P08,D02,1,1,1
120,-0.15,1644844328.640625,P08,D02,1,1,1
121,-0.25,1644844328.65625,P08,D02,1,1,1
122,-0.34,1644844328.671875,P08,D02,1,1,1
123,-0.46,1644844328.6875,P08,D02,1,1,1
124,-0.64,1644844328.703125,P08,D02,1,1,1
125,-0.84,1644844328.71875,P08,D02,1,1,1
126,-0.97,1644844328.734375,P08,D02,1,1,1
127,-0.94,1644844328.75,P08,D02,1,1,1
128,-0.72,1644844328.765625,P08,D02,1,1,1
129,-0.33,1644844328.78125,P08,D02,1,1,1
130,0.08,1644844328.796875,P08,D02,1,1,1
131,0.4,1644844328.8125,P08,D02,1,1,1
132,0.52,1644844328.828125,P08,D02,1,1,1
133,0.4,1644844328.84375,P08,D02,1,1,1
134,0.11,1644844328.859375,P08,D02,1,1,1
135,-0.23,1644844328.875,P08,D02,1,1,1
136,-0.46,1644844328.890625,P08,D02,1,1,1
137,-0.51,1644844328.90625,P08,D02,1,1,1
138,-0.36,1644844328.921875,P08,D02,1,1,1
139,-0.09,1644844328.9375,P08,D02,1,1,1
140,0.19,1644844328.953125,P08,D02,1,1,1
141,0.4,1644844328.96875,P08,D02,1,1,1
142,0.48,1644844328.984375,P08,D02,1,1,1
143,0.49,1644844329.0,P08,D02,1,1,1
144,0.48,1644844329.015625,P08,D02,1,1,1
145,0.49,1644844329.03125,P08,D02,1,1,1
146,0.53,1644844329.046875,P08,D02,1,1,1
147,0.55,1644844329.0625,P08,D02,1,1,1
148,0.5,1644844329.078125,P08,D02,1,1,1
149,0.4,1644844329.09375,P08,D02,1,1,1
150,0.3,1644844329.109375,P08,D02,1,1,1
151,0.28,1644844329.125,P08,D02,1,1,1
152,0.35,1644844329.140625,P08,D02,1,1,1
153,0.46,1644844329.15625,P08,D02,1,1,1
154,0.49,1644844329.171875,P08,D02,1,1,1
155,0.36,1644844329.1875,P08,D02,1,1,1
156,0.03,1644844329.203125,P08,D02,1,1,1
157,-0.41,1644844329.21875,P08,D02,1,1,1
158,-0.81,1644844329.234375,P08,D02,1,1,1
159,-1.03,1644844329.25,P08,D02,1,1,1
160,-1.01,1644844329.265625,P08,D02,1,1,1
161,-0.81,1644844329.28125,P08,D02,1,1,1
162,-0.56,1644844329.296875,P08,D02,1,1,1
163,-0.36,1644844329.3125,P08,D02,1,1,1
164,-0.24,1644844329.328125,P08,D02,1,1,1
165,-0.17,1644844329.34375,P08,D02,1,1,1
166,-0.09,1644844329.359375,P08,D02,1,1,1
167,0.04,1644844329.375,P08,D02,1,1,1
168,0.15,1644844329.390625,P08,D02,1,1,1
169,0.15,1644844329.40625,P08,D02,1,1,1
170,-0.02,1644844329.421875,P08,D02,1,1,1
171,-0.33,1644844329.4375,P08,D02,1,1,1
172,-0.64,1644844329.453125,P08,D02,1,1,1
173,-0.84,1644844329.46875,P08,D02,1,1,1
174,-0.85,1644844329.484375,P08,D02,1,1,1
175,-0.72,1644844329.5,P08,D02,1,1,1
176,-0.56,1644844329.515625,P08,D02,1,1,1
177,-0.49,1644844329.53125,P08,D02,1,1,1
178,-0.54,1644844329.546875,P08,D02,1,1,1
179,-0.64,1644844329.5625,P08,D02,1,1,1
180,-0.67,1644844329.578125,P08,D02,1,1,1
181,-0.56,1644844329.59375,P08,D02,1,1,1
182,-0.34,1644844329.609375,P08,D02,1,1,1
183,-0.11,1644844329.625,P08,D02,1,1,1
184,-0.03,1644844329.640625,P08,D02,1,1,1
185,-0.17,1644844329.65625,P08,D02,1,1,1
186,-0.51,1644844329.671875,P08,D02,1,1,1
187,-0.93,1644844329.6875,P08,D02,1,1,1
188,-1.21,1644844329.703125,P08,D02,1,1,1
189,-1.21,1644844329.71875,P08,D02,1,1,1
190,-0.86,1644844329.734375,P08,D02,1,1,1
191,-0.24,1644844329.75,P08,D02,1,1,1
192,0.46,1644844329.765625,P08,D02,1,1,1
193,1.05,1644844329.78125,P08,D02,1,1,1
194,1.4,1644844329.796875,P08,D02,1,1,1
195,1.47,1644844329.8125,P08,D02,1,1,1
196,1.33,1644844329.828125,P08,D02,1,1,1
197,1.07,1644844329.84375,P08,D02,1,1,1
198,0.79,1644844329.859375,P08,D02,1,1,1
199,0.54,1644844329.875,P08,D02,1,1,1
200,0.32,1644844329.890625,P08,D02,1,1,1
201,0.14,1644844329.90625,P08,D02,1,1,1
202,0.01,1644844329.921875,P08,D02,1,1,1
203,-0.05,1644844329.9375,P08,D02,1,1,1
204,-0.03,1644844329.953125,P08,D02,1,1,1
205,0.09,1644844329.96875,P08,D02,1,1,1
206,0.29,1644844329.984375,P08,D02,1,1,1
207,0.53,1644844330.0,P08,D02,1,1,1
208,0.75,1644844330.015625,P08,D02,1,1,1
209,0.91,1644844330.03125,P08,D02,1,1,1
210,0.97,1644844330.046875,P08,D02,1,1,1
211,0.95,1644844330.0625,P08,D02,1,1,1
212,0.87,1644844330.078125,P08,D02,1,1,1
213,0.78,1644844330.09375,P08,D02,1,1,1
214,0.68,1644844330.109375,P08,D02,1,1,1
215,0.58,1644844330.125,P08,D02,1,1,1
216,0.44,1644844330.140625,P08,D02,1,1,1
217,0.23,1644844330.15625,P08,D02,1,1,1
218,-0.01,1644844330.171875,P08,D02,1,1,1
219,-0.23,1644844330.1875,P08,D02,1,1,1
220,-0.34,1644844330.203125,P08,D02,1,1,1
221,-0.31,1644844330.21875,P08,D02,1,1,1
222,-0.17,1644844330.234375,P08,D02,1,1,1
223,-0.0,1644844330.25,P08,D02,1,1,1
224,0.13,1644844330.265625,P08,D02,1,1,1
225,0.18,1644844330.28125,P08,D02,1,1,1
226,0.17,1644844330.296875,P08,D02,1,1,1
227,0.13,1644844330.3125,P08,D02,1,1,1
228,0.09,1644844330.328125,P08,D02,1,1,1
229,0.03,1644844330.34375,P08,D02,1,1,1
230,-0.07,1644844330.359375,P08,D02,1,1,1
231,-0.2,1644844330.375,P08,D02,1,1,1
232,-0.36,1644844330.390625,P08,D02,1,1,1
233,-0.49,1644844330.40625,P08,D02,1,1,1
234,-0.56,1644844330.421875,P08,D02,1,1,1
235,-0.55,1644844330.4375,P08,D02,1,1,1
236,-0.49,1644844330.453125,P08,D02,1,1,1
237,-0.43,1644844330.46875,P08,D02,1,1,1
238,-0.39,1644844330.484375,P08,D02,1,1,1
239,-0.39,1644844330.5,P08,D02,1,1,1
240,-0.43,1644844330.515625,P08,D02,1,1,1
241,-0.46,1644844330.53125,P08,D02,1,1,1
242,-0.46,1644844330.546875,P08,D02,1,1,1
243,-0.39,1644844330.5625,P08,D02,1,1,1
244,-0.27,1644844330.578125,P08,D02,1,1,1
245,-0.11,1644844330.59375,P08,D02,1,1,1
246,0.05,1644844330.609375,P08,D02,1,1,1
247,0.15,1644844330.625,P08,D02,1,1,1
248,0.18,1644844330.640625,P08,D02,1,1,1
249,0.15,1644844330.65625,P08,D02,1,1,1
250,0.1,1644844330.671875,P08,D02,1,1,1
251,0.1,1644844330.6875,P08,D02,1,1,1
252,0.17,1644844330.703125,P08,D02,1,1,1
253,0.33,1644844330.71875,P08,D02,1,1,1
254,0.53,1644844330.734375,P08,D02,1,1,1
255,0.71,1644844330.75,P08,D02,1,1,1
256,0.78,1644844330.765625,P08,D02,1,1,1
257,0.72,1644844330.78125,P08,D02,1,1,1
258,0.49,1644844330.796875,P08,D02,1,1,1
259,0.15,1644844330.8125,P08,D02,1,1,1
260,-0.23,1644844330.828125,P08,D02,1,1,1
261,-0.58,1644844330.84375,P08,D02,1,1,1
262,-0.84,1644844330.859375,P08,D02,1,1,1
263,-0.99,1644844330.875,P08,D02,1,1,1
264,-1.04,1644844330.890625,P08,D02,1,1,1
265,-1.0,1644844330.90625,P08,D02,1,1,1
266,-0.9,1644844330.921875,P08,D02,1,1,1
267,-0.75,1644844330.9375,P08,D02,1,1,1
268,-0.57,1644844330.953125,P08,D02,1,1,1
269,-0.39,1644844330.96875,P08,D02,1,1,1
270,-0.21,1644844330.984375,P08,D02,1,1,1
271,-0.04,1644844331.0,P08,D02,1,1,1
272,0.11,1644844331.015625,P08,D02,1,1,1
273,0.22,1644844331.03125,P08,D02,1,1,1
274,0.26,1644844331.046875,P08,D02,1,1,1
275,0.24,1644844331.0625,P08,D02,1,1,1
276,0.18,1644844331.078125,P08,D02,1,1,1
277,0.13,1644844331.09375,P08,D02,1,1,1
278,0.15,1644844331.109375,P08,D02,1,1,1
279,0.29,1644844331.125,P08,D02,1,1,1
280,0.55,1644844331.140625,P08,D02,1,1,1
281,0.82,1644844331.15625,P08,D02,1,1,1
282,1.01,1644844331.171875,P08,D02,1,1,1
283,1.02,1644844331.1875,P08,D02,1,1,1
284,0.81,1644844331.203125,P08,D02,1,1,1
285,0.45,1644844331.21875,P08,D02,1,1,1
286,0.08,1644844331.234375,P08,D02,1,1,1
287,-0.19,1644844331.25,P08,D02,1,1,1
288,-0.27,1644844331.265625,P08,D02,1,1,1
289,-0.15,1644844331.28125,P08,D02,1,1,1
290,0.09,1644844331.296875,P08,D02,1,1,1
291,0.37,1644844331.3125,P08,D02,1,1,1
292,0.57,1644844331.328125,P08,D02,1,1,1
293,0.63,1644844331.34375,P08,D02,1,1,1
294,0.55,1644844331.359375,P08,D02,1,1,1
295,0.39,1644844331.375,P08,D02,1,1,1
296,0.21,1644844331.390625,P08,D02,1,1,1
297,0.05,1644844331.40625,P08,D02,1,1,1
298,-0.04,1644844331.421875,P08,D02,1,1,1
299,-0.05,1644844331.4375,P08,D02,1,1,1
300,0.05,1644844331.453125,P08,D02,1,1,1
301,0.27,1644844331.46875,P08,D02,1,1,1
302,0.57,1644844331.484375,P08,D02,1,1,1
303,0.86,1644844331.5,P08,D02,1,1,1
304,1.02,1644844331.515625,P08,D02,1,1,1
305,0.93,1644844331.53125,P08,D02,1,1,1
306,0.56,1644844331.546875,P08,D02,1,1,1
307,0.0,1644844331.5625,P08,D02,1,1,1
308,-0.56,1644844331.578125,P08,D02,1,1,1
309,-0.89,1644844331.59375,P08,D02,1,1,1
310,-0.88,1644844331.609375,P08,D02,1,1,1
311,-0.57,1644844331.625,P08,D02,1,1,1
312,-0.12,1644844331.640625,P08,D02,1,1,1
313,0.25,1644844331.65625,P08,D02,1,1,1
314,0.46,1644844331.671875,P08,D02,1,1,1
315,0.49,1644844331.6875,P08,D02,1,1,1
316,0.44,1644844331.703125,P08,D02,1,1,1
317,0.38,1644844331.71875,P08,D02,1,1,1
318,0.32,1644844331.734375,P08,D02,1,1,1
319,0.23,1644844331.75,P08,D02,1,1,1
320,0.06,1644844331.765625,P08,D02,1,1,1
321,-0.17,1644844331.78125,P08,D02,1,1,1
322,-0.4,1644844331.796875,P08,D02,1,1,1
323,-0.52,1644844331.8125,P08,D02,1,1,1
324,-0.5,1644844331.828125,P08,D02,1,1,1
325,-0.34,1644844331.84375,P08,D02,1,1,1
326,-0.17,1644844331.859375,P08,D02,1,1,1
327,-0.09,1644844331.875,P08,D02,1,1,1
328,-0.17,1644844331.890625,P08,D02,1,1,1
329,-0.38,1644844331.90625,P08,D02,1,1,1
330,-0.63,1644844331.921875,P08,D02,1,1,1
331,-0.8,1644844331.9375,P08,D02,1,1,1
332,-0.83,1644844331.953125,P08,D02,1,1,1
333,-0.72,1644844331.96875,P08,D02,1,1,1
334,-0.55,1644844331.984375,P08,D02,1,1,1
335,-0.39,1644844332.0,P08,D02,1,1,1
336,-0.29,1644844332.015625,P08,D02,1,1,1
337,-0.25,1644844332.03125,P08,D02,1,1,1
338,-0.25,1644844332.046875,P08,D02,1,1,1
339,-0.23,1644844332.0625,P08,D02,1,1,1
340,-0.17,1644844332.078125,P08,D02,1,1,1
341,-0.08,1644844332.09375,P08,D02,1,1,1
342,-0.0,1644844332.109375,P08,D02,1,1,1
343,0.03,1644844332.125,P08,D02,1,1,1
344,-0.01,1644844332.140625,P08,D02,1,1,1
345,-0.11,1644844332.15625,P08,D02,1,1,1
346,-0.21,1644844332.171875,P08,D02,1,1,1
347,-0.29,1644844332.1875,P08,D02,1,1,1
348,-0.32,1644844332.203125,P08,D02,1,1,1
349,-0.3,1644844332.21875,P08,D02,1,1,1
350,-0.24,1644844332.234375,P08,D02,1,1,1
351,-0.16,1644844332.25,P08,D02,1,1,1
352,-0.08,1644844332.265625,P08,D02,1,1,1
353,0.01,1644844332.28125,P08,D02,1,1,1
354,0.14,1644844332.296875,P08,D02,1,1,1
355,0.28,1644844332.3125,P08,D02,1,1,1
356,0.43,1644844332.328125,P08,D02,1,1,1
357,0.56,1644844332.34375,P08,D02,1,1,1
358,0.63,1644844332.359375,P08,D02,1,1,1
359,0.63,1644844332.375,P08,D02,1,1,1
360,0.59,1644844332.390625,P08,D02,1,1,1
361,0.49,1644844332.40625,P08,D02,1,1,1
362,0.37,1644844332.421875,P08,D02,1,1,1
363,0.25,1644844332.4375,P08,D02,1,1,1
364,0.15,1644844332.453125,P08,D02,1,1,1
365,0.06,1644844332.46875,P08,D02,1,1,1
366,-0.0,1644844332.484375,P08,D02,1,1,1
367,-0.06,1644844332.5,P08,D02,1,1,1
368,-0.12,1644844332.515625,P08,D02,1,1,1
369,-0.14,1644844332.53125,P08,D02,1,1,1
370,-0.1,1644844332.546875,P08,D02,1,1,1
371,0.04,1644844332.5625,P08,D02,1,1,1
372,0.26,1644844332.578125,P08,D02,1,1,1
373,0.49,1644844332.59375,P08,D02,1,1,1
374,0.65,1644844332.609375,P08,D02,1,1,1
375,0.63,1644844332.625,P08,D02,1,1,1
376,0.41,1644844332.640625,P08,D02,1,1,1
377,0.04,1644844332.65625,P08,D02,1,1,1
378,-0.35,1644844332.671875,P08,D02,1,1,1
379,-0.67,1644844332.6875,P08,D02,1,1,1
380,-0.82,1644844332.703125,P08,D02,1,1,1
381,-0.79,1644844332.71875,P08,D02,1,1,1
382,-0.63,1644844332.734375,P08,D02,1,1,1
383,-0.4,1644844332.75,P08,D02,1,1,1
384,-0.19,1644844332.765625,P08,D02,1,1,1
385,-0.04,1644844332.78125,P08,D02,1,1,1
386,0.01,1644844332.796875,P08,D02,1,1,1
387,-0.03,1644844332.8125,P08,D02,1,1,1
388,-0.13,1644844332.828125,P08,D02,1,1,1
389,-0.25,1644844332.84375,P08,D02,1,1,1
390,-0.34,1644844332.859375,P08,D02,1,1,1
391,-0.37,1644844332.875,P08,D02,1,1,1
392,-0.34,1644844332.890625,P08,D02,1,1,1
393,-0.24,1644844332.90625,P08,D02,1,1,1
394,-0.08,1644844332.921875,P08,D02,1,1,1
395,0.1,1644844332.9375,P08,D02,1,1,1
396,0.23,1644844332.953125,P08,D02,1,1,1
397,0.25,1644844332.96875,P08,D02,1,1,1
398,0.1,1644844332.984375,P08,D02,1,1,1
399,-0.19,1644844333.0,P08,D02,1,1,1
400,-0.52,1644844333.015625,P08,D02,1,1,1
401,-0.73,1644844333.03125,P08,D02,1,1,1
402,-0.72,1644844333.046875,P08,D02,1,1,1
403,-0.46,1644844333.0625,P08,D02,1,1,1
404,-0.01,1644844333.078125,P08,D02,1,1,1
405,0.5,1644844333.09375,P08,D02,1,1,1
406,0.93,1644844333.109375,P08,D02,1,1,1
407,1.18,1644844333.125,P08,D02,1,1,1
408,1.21,1644844333.140625,P08,D02,1,1,1
409,1.06,1644844333.15625,P08,D02,1,1,1
410,0.79,1644844333.171875,P08,D02,1,1,1
411,0.48,1644844333.1875,P08,D02,1,1,1
412,0.22,1644844333.203125,P08,D02,1,1,1
413,0.06,1644844333.21875,P08,D02,1,1,1
414,0.03,1644844333.234375,P08,D02,1,1,1
415,0.12,1644844333.25,P08,D02,1,1,1
416,0.28,1644844333.265625,P08,D02,1,1,1
417,0.43,1644844333.28125,P08,D02,1,1,1
418,0.5,1644844333.296875,P08,D02,1,1,1
419,0.45,1644844333.3125,P08,D02,1,1,1
420,0.27,1644844333.328125,P08,D02,1,1,1
421,-0.01,1644844333.34375,P08,D02,1,1,1
422,-0.3,1644844333.359375,P08,D02,1,1,1
423,-0.54,1644844333.375,P08,D02,1,1,1
424,-0.67,1644844333.390625,P08,D02,1,1,1
425,-0.7,1644844333.40625,P08,D02,1,1,1
426,-0.65,1644844333.421875,P08,D02,1,1,1
427,-0.6,1644844333.4375,P08,D02,1,1,1
428,-0.55,1644844333.453125,P08,D02,1,1,1
429,-0.49,1644844333.46875,P08,D02,1,1,1
430,-0.38,1644844333.484375,P08,D02,1,1,1
431,-0.21,1644844333.5,P08,D02,1,1,1
432,-0.01,1644844333.515625,P08,D02,1,1,1
433,0.14,1644844333.53125,P08,D02,1,1,1
434,0.16,1644844333.546875,P08,D02,1,1,1
435,0.01,1644844333.5625,P08,D02,1,1,1
436,-0.23,1644844333.578125,P08,D02,1,1,1
437,-0.45,1644844333.59375,P08,D02,1,1,1
438,-0.48,1644844333.609375,P08,D02,1,1,1
439,-0.27,1644844333.625,P08,D02,1,1,1
440,0.15,1644844333.640625,P08,D02,1,1,1
441,0.63,1644844333.65625,P08,D02,1,1,1
442,0.99,1644844333.671875,P08,D02,1,1,1
443,1.08,1644844333.6875,P08,D02,1,1,1
444,0.86,1644844333.703125,P08,D02,1,1,1
445,0.44,1644844333.71875,P08,D02,1,1,1
446,-0.06,1644844333.734375,P08,D02,1,1,1
447,-0.46,1644844333.75,P08,D02,1,1,1
448,-0.68,1644844333.765625,P08,D02,1,1,1
449,-0.7,1644844333.78125,P08,D02,1,1,1
450,-0.56,1644844333.796875,P08,D02,1,1,1
451,-0.3,1644844333.8125,P08,D02,1,1,1
452,-0.0,1644844333.828125,P08,D02,1,1,1
453,0.3,1644844333.84375,P08,D02,1,1,1
454,0.57,1644844333.859375,P08,D02,1,1,1
455,0.78,1644844333.875,P08,D02,1,1,1
456,0.91,1644844333.890625,P08,D02,1,1,1
457,0.96,1644844333.90625,P08,D02,1,1,1
458,0.92,1644844333.921875,P08,D02,1,1,1
459,0.81,1644844333.9375,P08,D02,1,1,1
460,0.64,1644844333.953125,P08,D02,1,1,1
461,0.45,1644844333.96875,P08,D02,1,1,1
462,0.29,1644844333.984375,P08,D02,1,1,1
463,0.18,1644844334.0,P08,D02,1,1,1
464,0.13,1644844334.015625,P08,D02,1,1,1
465,0.12,1644844334.03125,P08,D02,1,1,1
466,0.07,1644844334.046875,P08,D02,1,1,1
467,-0.03,1644844334.0625,P08,D02,1,1,1
468,-0.18,1644844334.078125,P08,D02,1,1,1
469,-0.33,1644844334.09375,P08,D02,1,1,1
470,-0.43,1644844334.109375,P08,D02,1,1,1
471,-0.48,1644844334.125,P08,D02,1,1,1
472,-0.51,1644844334.140625,P08,D02,1,1,1
473,-0.57,1644844334.15625,P08,D02,1,1,1
474,-0.67,1644844334.171875,P08,D02,1,1,1
475,-0.74,1644844334.1875,P08,D02,1,1,1
476,-0.68,1644844334.203125,P08,D02,1,1,1
477,-0.43,1644844334.21875,P08,D02,1,1,1
478,-0.01,1644844334.234375,P08,D02,1,1,1
479,0.45,1644844334.25,P08,D02,1,1,1
480,0.78,1644844334.265625,P08,D02,1,1,1
481,0.88,1644844334.28125,P08,D02,1,1,1
482,0.73,1644844334.296875,P08,D02,1,1,1
483,0.4,1644844334.3125,P08,D02,1,1,1
484,0.01,1644844334.328125,P08,D02,1,1,1
485,-0.32,1644844334.34375,P08,D02,1,1,1
486,-0.55,1644844334.359375,P08,D02,1,1,1
487,-0.66,1644844334.375,P08,D02,1,1,1
488,-0.67,1644844334.390625,P08,D02,1,1,1
489,-0.62,1644844334.40625,P08,D02,1,1,1
490,-0.53,1644844334.421875,P08,D02,1,1,1
491,-0.44,1644844334.4375,P08,D02,1,1,1
492,-0.37,1644844334.453125,P08,D02,1,1,1
493,-0.35,1644844334.46875,P08,D02,1,1,1
494,-0.36,1644844334.484375,P08,D02,1,1,1
495,-0.38,1644844334.5,P08,D02,1,1,1
496,-0.37,1644844334.515625,P08,D02,1,1,1
497,-0.29,1644844334.53125,P08,D02,1,1,1
498,-0.12,1644844334.546875,P08,D02,1,1,1
499,0.07,1644844334.5625,P08,D02,1,1,1
500,0.23,1644844334.578125,P08,D02,1,1,1
501,0.28,1644844334.59375,P08,D02,1,1,1
502,0.16,1644844334.609375,P08,D02,1,1,1
503,-0.07,1644844334.625,P08,D02,1,1,1
504,-0.32,1644844334.640625,P08,D02,1,1,1
505,-0.45,1644844334.65625,P08,D02,1,1,1
506,-0.38,1644844334.671875,P08,D02,1,1,1
507,-0.15,1644844334.6875,P08,D02,1,1,1
508,0.12,1644844334.703125,P08,D02,1,1,1
509,0.27,1644844334.71875,P08,D02,1,1,1
510,0.2,1644844334.734375,P08,D02,1,1,1
511,-0.05,1644844334.75,P08,D02,1,1,1
512,-0.33,1644844334.765625,P08,D02,1,1,1
513,-0.5,1644844334.78125,P08,D02,1,1,1
514,-0.47,1644844334.796875,P08,D02,1,1,1
515,-0.28,1644844334.8125,P08,D02,1,1,1
516,-0.04,1644844334.828125,P08,D02,1,1,1
517,0.13,1644844334.84375,P08,D02,1,1,1
518,0.19,1644844334.859375,P08,D02,1,1,1
519,0.18,1644844334.875,P08,D02,1,1,1
520,0.16,1644844334.890625,P08,D02,1,1,1
521,0.19,1644844334.90625,P08,D02,1,1,1
522,0.27,1644844334.921875,P08,D02,1,1,1
523,0.38,1644844334.9375,P08,D02,1,1,1
524,0.46,1644844334.953125,P08,D02,1,1,1
525,0.5,1644844334.96875,P08,D02,1,1,1
526,0.5,1644844334.984375,P08,D02,1,1,1
527,0.51,1644844335.0,P08,D02,1,1,1
528,0.52,1644844335.015625,P08,D02,1,1,1
529,0.55,1644844335.03125,P08,D02,1,1,1
530,0.57,1644844335.046875,P08,D02,1,1,1
531,0.55,1644844335.0625,P08,D02,1,1,1
532,0.46,1644844335.078125,P08,D02,1,1,1
533,0.29,1644844335.09375,P08,D02,1,1,1
534,0.07,1644844335.109375,P08,D02,1,1,1
535,-0.13,1644844335.125,P08,D02,1,1,1
536,-0.26,1644844335.140625,P08,D02,1,1,1
537,-0.27,1644844335.15625,P08,D02,1,1,1
538,-0.21,1644844335.171875,P08,D02,1,1,1
539,-0.16,1644844335.1875,P08,D02,1,1,1
540,-0.2,1644844335.203125,P08,D02,1,1,1
541,-0.33,1644844335.21875,P08,D02,1,1,1
542,-0.46,1644844335.234375,P08,D02,1,1,1
543,-0.45,1644844335.25,P08,D02,1,1,1
544,-0.22,1644844335.265625,P08,D02,1,1,1
545,0.22,1644844335.28125,P08,D02,1,1,1
546,0.7,1644844335.296875,P08,D02,1,1,1
547,1.03,1644844335.3125,P08,D02,1,1,1
548,1.08,1644844335.328125,P08,D02,1,1,1
549,0.82,1644844335.34375,P08,D02,1,1,1
550,0.4,1644844335.359375,P08,D02,1,1,1
551,0.02,1644844335.375,P08,D02,1,1,1
552,-0.14,1644844335.390625,P08,D02,1,1,1
553,-0.05,1644844335.40625,P08,D02,1,1,1
554,0.24,1644844335.421875,P08,D02,1,1,1
555,0.56,1644844335.4375,P08,D02,1,1,1
556,0.76,1644844335.453125,P08,D02,1,1,1
557,0.77,1644844335.46875,P08,D02,1,1,1
558,0.61,1644844335.484375,P08,D02,1,1,1
559,0.4,1644844335.5,P08,D02,1,1,1
560,0.28,1644844335.515625,P08,D02,1,1,1
561,0.34,1644844335.53125,P08,D02,1,1,1
562,0.56,1644844335.546875,P08,D02,1,1,1
563,0.79,1644844335.5625,P08,D02,1,1,1
564,0.88,1644844335.578125,P08,D02,1,1,1
565,0.75,1644844335.59375,P08,D02,1,1,1
566,0.44,1644844335.609375,P08,D02,1,1,1
567,0.11,1644844335.625,P08,D02,1,1,1
568,-0.07,1644844335.640625,P08,D02,1,1,1
569,-0.03,1644844335.65625,P08,D02,1,1,1
570,0.13,1644844335.671875,P08,D02,1,1,1
571,0.25,1644844335.6875,P08,D02,1,1,1
572,0.15,1644844335.703125,P08,D02,1,1,1
573,-0.21,1644844335.71875,P08,D02,1,1,1
574,-0.72,1644844335.734375,P08,D02,1,1,1
575,-1.18,1644844335.75,P08,D02,1,1,1
576,-1.46,1644844335.765625,P08,D02,1,1,1
577,-1.5,1644844335.78125,P08,D02,1,1,1
578,-1.38,1644844335.796875,P08,D02,1,1,1
579,-1.23,1644844335.8125,P08,D02,1,1,1
580,-1.15,1644844335.828125,P08,D02,1,1,1
581,-1.14,1644844335.84375,P08,D02,1,1,1
582,-1.15,1644844335.859375,P08,D02,1,1,1
583,-1.1,1644844335.875,P08,D02,1,1,1
584,-0.93,1644844335.890625,P08,D02,1,1,1
585,-0.62,1644844335.90625,P08,D02,1,1,1
586,-0.22,1644844335.921875,P08,D02,1,1,1
587,0.19,1644844335.9375,P08,D02,1,1,1
588,0.53,1644844335.953125,P08,D02,1,1,1
589,0.73,1644844335.96875,P08,D02,1,1,1
590,0.78,1644844335.984375,P08,D02,1,1,1
591,0.71,1644844336.0,P08,D02,1,1,1
592,0.58,1644844336.015625,P08,D02,1,1,1
593,0.43,1644844336.03125,P08,D02,1,1,1
594,0.29,1644844336.046875,P08,D02,1,1,1
595,0.12,1644844336.0625,P08,D02,1,1,1
596,-0.08,1644844336.078125,P08,D02,1,1,1
597,-0.31,1644844336.09375,P08,D02,1,1,1
598,-0.5,1644844336.109375,P08,D02,1,1,1
599,-0.56,1644844336.125,P08,D02,1,1,1
600,-0.42,1644844336.140625,P08,D02,1,1,1
601,-0.13,1644844336.15625,P08,D02,1,1,1
602,0.24,1644844336.171875,P08,D02,1,1,1
603,0.53,1644844336.1875,P08,D02,1,1,1
604,0.66,1644844336.203125,P08,D02,1,1,1
605,0.61,1644844336.21875,P08,D02,1,1,1
606,0.44,1644844336.234375,P08,D02,1,1,1
607,0.24,1644844336.25,P08,D02,1,1,1
608,0.07,1644844336.265625,P08,D02,1,1,1
609,-0.06,1644844336.28125,P08,D02,1,1,1
610,-0.2,1644844336.296875,P08,D02,1,1,1
611,-0.37,1644844336.3125,P08,D02,1,1,1
612,-0.57,1644844336.328125,P08,D02,1,1,1
613,-0.73,1644844336.34375,P08,D02,1,1,1
614,-0.77,1644844336.359375,P08,D02,1,1,1
615,-0.66,1644844336.375,P08,D02,1,1,1
616,-0.42,1644844336.390625,P08,D02,1,1,1
617,-0.11,1644844336.40625,P08,D02,1,1,1
618,0.14,1644844336.421875,P08,D02,1,1,1
619,0.25,1644844336.4375,P08,D02,1,1,1
620,0.21,1644844336.453125,P08,D02,1,1,1
621,0.01,1644844336.46875,P08,D02,1,1,1
622,-0.27,1644844336.484375,P08,D02,1,1,1
623,-0.57,1644844336.5,P08,D02,1,1,1
624,-0.81,1644844336.515625,P08,D02,1,1,1
625,-0.94,1644844336.53125,P08,D02,1,1,1
626,-0.94,1644844336.546875,P08,D02,1,1,1
627,-0.82,1644844336.5625,P08,D02,1,1,1
628,-0.6,1644844336.578125,P08,D02,1,1,1
629,-0.35,1644844336.59375,P08,D02,1,1,1
630,-0.14,1644844336.609375,P08,D02,1,1,1
631,0.01,1644844336.625,P08,D02,1,1,1
632,0.1,1644844336.640625,P08,D02,1,1,1
633,0.16,1644844336.65625,P08,D02,1,1,1
634,0.28,1644844336.671875,P08,D02,1,1,1
635,0.48,1644844336.6875,P08,D02,1,1,1
636,0.78,1644844336.703125,P08,D02,1,1,1
637,1.1,1644844336.71875,P08,D02,1,1,1
638,1.38,1644844336.734375,P08,D02,1,1,1
639,1.52,1644844336.75,P08,D02,1,1,1
640,1.46,1644844336.765625,P08,D02,1,1,1
641,1.2,1644844336.78125,P08,D02,1,1,1
642,0.77,1644844336.796875,P08,D02,1,1,1
643,0.28,1644844336.8125,P08,D02,1,1,1
644,-0.14,1644844336.828125,P08,D02,1,1,1
645,-0.37,1644844336.84375,P08,D02,1,1,1
646,-0.36,1644844336.859375,P08,D02,1,1,1
647,-0.12,1644844336.875,P08,D02,1,1,1
648,0.22,1644844336.890625,P08,D02,1,1,1
649,0.56,1644844336.90625,P08,D02,1,1,1
650,0.78,1644844336.921875,P08,D02,1,1,1
651,0.84,1644844336.9375,P08,D02,1,1,1
652,0.72,1644844336.953125,P08,D02,1,1,1
653,0.48,1644844336.96875,P08,D02,1,1,1
654,0.13,1644844336.984375,P08,D02,1,1,1
655,-0.28,1644844337.0,P08,D02,1,1,1
656,-0.69,1644844337.015625,P08,D02,1,1,1
657,-1.03,1644844337.03125,P08,D02,1,1,1
658,-1.18,1644844337.046875,P08,D02,1,1,1
659,-1.09,1644844337.0625,P08,D02,1,1,1
660,-0.76,1644844337.078125,P08,D02,1,1,1
661,-0.31,1644844337.09375,P08,D02,1,1,1
662,0.1,1644844337.109375,P08,D02,1,1,1
663,0.31,1644844337.125,P08,D02,1,1,1
664,0.24,1644844337.140625,P08,D02,1,1,1
665,-0.02,1644844337.15625,P08,D02,1,1,1
666,-0.32,1644844337.171875,P08,D02,1,1,1
667,-0.49,1644844337.1875,P08,D02,1,1,1
668,-0.44,1644844337.203125,P08,D02,1,1,1
669,-0.2,1644844337.21875,P08,D02,1,1,1
670,0.08,1644844337.234375,P08,D02,1,1,1
671,0.27,1644844337.25,P08,D02,1,1,1
672,0.31,1644844337.265625,P08,D02,1,1,1
673,0.24,1644844337.28125,P08,D02,1,1,1
674,0.16,1644844337.296875,P08,D02,1,1,1
675,0.11,1644844337.3125,P08,D02,1,1,1
676,0.1,1644844337.328125,P08,D02,1,1,1
677,0.05,1644844337.34375,P08,D02,1,1,1
678,-0.1,1644844337.359375,P08,D02,1,1,1
679,-0.37,1644844337.375,P08,D02,1,1,1
680,-0.68,1644844337.390625,P08,D02,1,1,1
681,-0.9,1644844337.40625,P08,D02,1,1,1
682,-0.94,1644844337.421875,P08,D02,1,1,1
683,-0.76,1644844337.4375,P08,D02,1,1,1
684,-0.42,1644844337.453125,P08,D02,1,1,1
685,-0.02,1644844337.46875,P08,D02,1,1,1
686,0.33,1644844337.484375,P08,D02,1,1,1
687,0.57,1644844337.5,P08,D02,1,1,1
688,0.68,1644844337.515625,P08,D02,1,1,1
689,0.68,1644844337.53125,P08,D02,1,1,1
690,0.6,1644844337.546875,P08,D02,1,1,1
691,0.49,1644844337.5625,P08,D02,1,1,1
692,0.34,1644844337.578125,P08,D02,1,1,1
693,0.19,1644844337.59375,P08,D02,1,1,1
694,0.08,1644844337.609375,P08,D02,1,1,1
695,0.05,1644844337.625,P08,D02,1,1,1
696,0.15,1644844337.640625,P08,D02,1,1,1
697,0.35,1644844337.65625,P08,D02,1,1,1
698,0.57,1644844337.671875,P08,D02,1,1,1
699,0.71,1644844337.6875,P08,D02,1,1,1
700,0.68,1644844337.703125,P08,D02,1,1,1
701,0.46,1644844337.71875,P08,D02,1,1,1
702,0.1,1644844337.734375,P08,D02,1,1,1
703,-0.29,1644844337.75,P08,D02,1,1,1
704,-0.61,1644844337.765625,P08,D02,1,1,1
705,-0.8,1644844337.78125,P08,D02,1,1,1
706,-0.86,1644844337.796875,P08,D02,1,1,1
707,-0.81,1644844337.8125,P08,D02,1,1,1
708,-0.7,1644844337.828125,P08,D02,1,1,1
709,-0.56,1644844337.84375,P08,D02,1,1,1
710,-0.42,1644844337.859375,P08,D02,1,1,1
711,-0.31,1644844337.875,P08,D02,1,1,1
712,-0.27,1644844337.890625,P08,D02,1,1,1
713,-0.32,1644844337.90625,P08,D02,1,1,1
714,-0.45,1644844337.921875,P08,D02,1,1,1
715,-0.61,1644844337.9375,P08,D02,1,1,1
716,-0.73,1644844337.953125,P08,D02,1,1,1
717,-0.78,1644844337.96875,P08,D02,1,1,1
718,-0.73,1644844337.984375,P08,D02,1,1,1
719,-0.63,1644844338.0,P08,D02,1,1,1
720,-0.51,1644844338.015625,P08,D02,1,1,1
721,-0.4,1644844338.03125,P08,D02,1,1,1
722,-0.27,1644844338.046875,P08,D02,1,1,1
723,-0.09,1644844338.0625,P08,D02,1,1,1
724,0.17,1644844338.078125,P08,D02,1,1,1
725,0.47,1644844338.09375,P08,D02,1,1,1
726,0.71,1644844338.109375,P08,D02,1,1,1
727,0.79,1644844338.125,P08,D02,1,1,1
728,0.69,1644844338.140625,P08,D02,1,1,1
729,0.43,1644844338.15625,P08,D02,1,1,1
730,0.14,1644844338.171875,P08,D02,1,1,1
731,-0.09,1644844338.1875,P08,D02,1,1,1
732,-0.2,1644844338.203125,P08,D02,1,1,1
733,-0.2,1644844338.21875,P08,D02,1,1,1
734,-0.15,1644844338.234375,P08,D02,1,1,1
735,-0.11,1644844338.25,P08,D02,1,1,1
736,-0.09,1644844338.265625,P08,D02,1,1,1
737,-0.07,1644844338.28125,P08,D02,1,1,1
738,-0.01,1644844338.296875,P08,D02,1,1,1
739,0.08,1644844338.3125,P08,D02,1,1,1
740,0.18,1644844338.328125,P08,D02,1,1,1
741,0.26,1644844338.34375,P08,D02,1,1,1
742,0.29,1644844338.359375,P08,D02,1,1,1
743,0.32,1644844338.375,P08,D02,1,1,1
744,0.36,1644844338.390625,P08,D02,1,1,1
745,0.44,1644844338.40625,P08,D02,1,1,1
746,0.53,1644844338.421875,P08,D02,1,1,1
747,0.6,1644844338.4375,P08,D02,1,1,1
748,0.58,1644844338.453125,P08,D02,1,1,1
749,0.47,1644844338.46875,P08,D02,1,1,1
750,0.31,1644844338.484375,P08,D02,1,1,1
751,0.16,1644844338.5,P08,D02,1,1,1
752,0.06,1644844338.515625,P08,D02,1,1,1
753,0.03,1644844338.53125,P08,D02,1,1,1
754,0.04,1644844338.546875,P08,D02,1,1,1
755,0.01,1644844338.5625,P08,D02,1,1,1
756,-0.06,1644844338.578125,P08,D02,1,1,1
757,-0.18,1644844338.59375,P08,D02,1,1,1
758,-0.29,1644844338.609375,P08,D02,1,1,1
759,-0.34,1644844338.625,P08,D02,1,1,1
760,-0.31,1644844338.640625,P08,D02,1,1,1
761,-0.24,1644844338.65625,P08,D02,1,1,1
762,-0.2,1644844338.671875,P08,D02,1,1,1
763,-0.25,1644844338.6875,P08,D02,1,1,1
764,-0.42,1644844338.703125,P08,D02,1,1,1
765,-0.66,1644844338.71875,P08,D02,1,1,1
766,-0.86,1644844338.734375,P08,D02,1,1,1
767,-0.93,1644844338.75,P08,D02,1,1,1
768,-0.81,1644844338.765625,P08,D02,1,1,1
769,-0.51,1644844338.78125,P08,D02,1,1,1
770,-0.12,1644844338.796875,P08,D02,1,1,1
771,0.26,1644844338.8125,P08,D02,1,1,1
772,0.53,1644844338.828125,P08,D02,1,1,1
773,0.67,1644844338.84375,P08,D02,1,1,1
774,0.7,1644844338.859375,P08,D02,1,1,1
775,0.67,1644844338.875,P08,D02,1,1,1
776,0.6,1644844338.890625,P08,D02,1,1,1
777,0.51,1644844338.90625,P08,D02,1,1,1
778,0.44,1644844338.921875,P08,D02,1,1,1
779,0.41,1644844338.9375,P08,D02,1,1,1
780,0.48,1644844338.953125,P08,D02,1,1,1
781,0.66,1644844338.96875,P08,D02,1,1,1
782,0.89,1644844338.984375,P08,D02,1,1,1
783,1.06,1644844339.0,P08,D02,1,1,1
784,1.05,1644844339.015625,P08,D02,1,1,1
785,0.83,1644844339.03125,P08,D02,1,1,1
786,0.45,1644844339.046875,P08,D02,1,1,1
787,0.09,1644844339.0625,P08,D02,1,1,1
788,-0.13,1644844339.078125,P08,D02,1,1,1
789,-0.14,1644844339.09375,P08,D02,1,1,1
790,0.02,1644844339.109375,P08,D02,1,1,1
791,0.22,1644844339.125,P08,D02,1,1,1
792,0.33,1644844339.140625,P08,D02,1,1,1
793,0.3,1644844339.15625,P08,D02,1,1,1
794,0.15,1644844339.171875,P08,D02,1,1,1
795,-0.05,1644844339.1875,P08,D02,1,1,1
796,-0.24,1644844339.203125,P08,D02,1,1,1
797,-0.43,1644844339.21875,P08,D02,1,1,1
798,-0.61,1644844339.234375,P08,D02,1,1,1
799,-0.81,1644844339.25,P08,D02,1,1,1
800,-0.99,1644844339.265625,P08,D02,1,1,1
801,-1.07,1644844339.28125,P08,D02,1,1,1
802,-1.02,1644844339.296875,P08,D02,1,1,1
803,-0.82,1644844339.3125,P08,D02,1,1,1
804,-0.54,1644844339.328125,P08,D02,1,1,1
805,-0.25,1644844339.34375,P08,D02,1,1,1
806,-0.03,1644844339.359375,P08,D02,1,1,1
807,0.12,1644844339.375,P08,D02,1,1,1
808,0.23,1644844339.390625,P08,D02,1,1,1
809,0.34,1644844339.40625,P08,D02,1,1,1
810,0.49,1644844339.421875,P08,D02,1,1,1
811,0.65,1644844339.4375,P08,D02,1,1,1
812,0.77,1644844339.453125,P08,D02,1,1,1
813,0.79,1644844339.46875,P08,D02,1,1,1
814,0.74,1644844339.484375,P08,D02,1,1,1
815,0.67,1644844339.5,P08,D02,1,1,1
816,0.65,1644844339.515625,P08,D02,1,1,1
817,0.67,1644844339.53125,P08,D02,1,1,1
818,0.63,1644844339.546875,P08,D02,1,1,1
819,0.45,1644844339.5625,P08,D02,1,1,1
820,0.06,1644844339.578125,P08,D02,1,1,1
821,-0.47,1644844339.59375,P08,D02,1,1,1
822,-0.99,1644844339.609375,P08,D02,1,1,1
823,-1.32,1644844339.625,P08,D02,1,1,1
824,-1.4,1644844339.640625,P08,D02,1,1,1
825,-1.24,1644844339.65625,P08,D02,1,1,1
826,-1.0,1644844339.671875,P08,D02,1,1,1
827,-0.78,1644844339.6875,P08,D02,1,1,1
828,-0.64,1644844339.703125,P08,D02,1,1,1
829,-0.59,1644844339.71875,P08,D02,1,1,1
830,-0.56,1644844339.734375,P08,D02,1,1,1
831,-0.54,1644844339.75,P08,D02,1,1,1
832,-0.53,1644844339.765625,P08,D02,1,1,1
833,-0.55,1644844339.78125,P08,D02,1,1,1
834,-0.57,1644844339.796875,P08,D02,1,1,1
835,-0.53,1644844339.8125,P08,D02,1,1,1
836,-0.39,1644844339.828125,P08,D02,1,1,1
837,-0.15,1644844339.84375,P08,D02,1,1,1
838,0.12,1644844339.859375,P08,D02,1,1,1
839,0.34,1644844339.875,P08,D02,1,1,1
840,0.46,1644844339.890625,P08,D02,1,1,1
841,0.49,1644844339.90625,P08,D02,1,1,1
842,0.52,1644844339.921875,P08,D02,1,1,1
843,0.59,1644844339.9375,P08,D02,1,1,1
844,0.7,1644844339.953125,P08,D02,1,1,1
845,0.76,1644844339.96875,P08,D02,1,1,1
846,0.71,1644844339.984375,P08,D02,1,1,1
847,0.53,1644844340.0,P08,D02,1,1,1
848,0.29,1644844340.015625,P08,D02,1,1,1
849,0.12,1644844340.03125,P08,D02,1,1,1
850,0.11,1644844340.046875,P08,D02,1,1,1
851,0.26,1644844340.0625,P08,D02,1,1,1
852,0.49,1644844340.078125,P08,D02,1,1,1
853,0.68,1644844340.09375,P08,D02,1,1,1
854,0.73,1644844340.109375,P08,D02,1,1,1
855,0.63,1644844340.125,P08,D02,1,1,1
856,0.44,1644844340.140625,P08,D02,1,1,1
857,0.23,1644844340.15625,P08,D02,1,1,1
858,0.08,1644844340.171875,P08,D02,1,1,1
859,0.02,1644844340.1875,P08,D02,1,1,1
860,0.07,1644844340.203125,P08,D02,1,1,1
861,0.19,1644844340.21875,P08,D02,1,1,1
862,0.29,1644844340.234375,P08,D02,1,1,1
863,0.33,1644844340.25,P08,D02,1,1,1
864,0.24,1644844340.265625,P08,D02,1,1,1
865,0.04,1644844340.28125,P08,D02,1,1,1
866,-0.18,1644844340.296875,P08,D02,1,1,1
867,-0.35,1644844340.3125,P08,D02,1,1,1
868,-0.41,1644844340.328125,P08,D02,1,1,1
869,-0.36,1644844340.34375,P08,D02,1,1,1
870,-0.24,1644844340.359375,P08,D02,1,1,1
871,-0.11,1644844340.375,P08,D02,1,1,1
872,0.0,1644844340.390625,P08,D02,1,1,1
873,0.08,1644844340.40625,P08,D02,1,1,1
874,0.14,1644844340.421875,P08,D02,1,1,1
875,0.15,1644844340.4375,P08,D02,1,1,1
876,0.1,1644844340.453125,P08,D02,1,1,1
877,-0.02,1644844340.46875,P08,D02,1,1,1
878,-0.2,1644844340.484375,P08,D02,1,1,1
879,-0.36,1644844340.5,P08,D02,1,1,1
880,-0.44,1644844340.515625,P08,D02,1,1,1
881,-0.39,1644844340.53125,P08,D02,1,1,1
882,-0.22,1644844340.546875,P08,D02,1,1,1
883,-0.01,1644844340.5625,P08,D02,1,1,1
884,0.18,1644844340.578125,P08,D02,1,1,1
885,0.3,1644844340.59375,P08,D02,1,1,1
886,0.34,1644844340.609375,P08,D02,1,1,1
887,0.27,1644844340.625,P08,D02,1,1,1
888,0.09,1644844340.640625,P08,D02,1,1,1
889,-0.19,1644844340.65625,P08,D02,1,1,1
890,-0.5,1644844340.671875,P08,D02,1,1,1
891,-0.73,1644844340.6875,P08,D02,1,1,1
892,-0.77,1644844340.703125,P08,D02,1,1,1
893,-0.56,1644844340.71875,P08,D02,1,1,1
894,-0.13,1644844340.734375,P08,D02,1,1,1
895,0.34,1644844340.75,P08,D02,1,1,1
896,0.65,1644844340.765625,P08,D02,1,1,1
897,0.67,1644844340.78125,P08,D02,1,1,1
898,0.37,1644844340.796875,P08,D02,1,1,1
899,-0.08,1644844340.8125,P08,D02,1,1,1
900,-0.5,1644844340.828125,P08,D02,1,1,1
901,-0.7,1644844340.84375,P08,D02,1,1,1
902,-0.62,1644844340.859375,P08,D02,1,1,1
903,-0.31,1644844340.875,P08,D02,1,1,1
904,0.08,1644844340.890625,P08,D02,1,1,1
905,0.46,1644844340.90625,P08,D02,1,1,1
906,0.72,1644844340.921875,P08,D02,1,1,1
907,0.84,1644844340.9375,P08,D02,1,1,1
908,0.84,1644844340.953125,P08,D02,1,1,1
909,0.72,1644844340.96875,P08,D02,1,1,1
910,0.52,1644844340.984375,P08,D02,1,1,1
911,0.26,1644844341.0,P08,D02,1,1,1
912,-0.01,1644844341.015625,P08,D02,1,1,1
913,-0.22,1644844341.03125,P08,D02,1,1,1
914,-0.33,1644844341.046875,P08,D02,1,1,1
915,-0.3,1644844341.0625,P08,D02,1,1,1
916,-0.14,1644844341.078125,P08,D02,1,1,1
917,0.1,1644844341.09375,P08,D02,1,1,1
918,0.34,1644844341.109375,P08,D02,1,1,1
919,0.55,1644844341.125,P08,D02,1,1,1
920,0.7,1644844341.140625,P08,D02,1,1,1
921,0.8,1644844341.15625,P08,D02,1,1,1
922,0.84,1644844341.171875,P08,D02,1,1,1
923,0.84,1644844341.1875,P08,D02,1,1,1
924,0.81,1644844341.203125,P08,D02,1,1,1
925,0.75,1644844341.21875,P08,D02,1,1,1
926,0.66,1644844341.234375,P08,D02,1,1,1
927,0.51,1644844341.25,P08,D02,1,1,1
928,0.3,1644844341.265625,P08,D02,1,1,1
929,0.01,1644844341.28125,P08,D02,1,1,1
930,-0.31,1644844341.296875,P08,D02,1,1,1
931,-0.61,1644844341.3125,P08,D02,1,1,1
932,-0.81,1644844341.328125,P08,D02,1,1,1
933,-0.85,1644844341.34375,P08,D02,1,1,1
934,-0.76,1644844341.359375,P08,D02,1,1,1
935,-0.58,1644844341.375,P08,D02,1,1,1
936,-0.42,1644844341.390625,P08,D02,1,1,1
937,-0.31,1644844341.40625,P08,D02,1,1,1
938,-0.26,1644844341.421875,P08,D02,1,1,1
939,-0.21,1644844341.4375,P08,D02,1,1,1
940,-0.12,1644844341.453125,P08,D02,1,1,1
941,0.02,1644844341.46875,P08,D02,1,1,1
942,0.13,1644844341.484375,P08,D02,1,1,1
943,0.13,1644844341.5,P08,D02,1,1,1
944,-0.01,1644844341.515625,P08,D02,1,1,1
945,-0.26,1644844341.53125,P08,D02,1,1,1
946,-0.53,1644844341.546875,P08,D02,1,1,1
947,-0.73,1644844341.5625,P08,D02,1,1,1
948,-0.8,1644844341.578125,P08,D02,1,1,1
949,-0.74,1644844341.59375,P08,D02,1,1,1
950,-0.57,1644844341.609375,P08,D02,1,1,1
951,-0.33,1644844341.625,P08,D02,1,1,1
952,-0.09,1644844341.640625,P08,D02,1,1,1
953,0.12,1644844341.65625,P08,D02,1,1,1
954,0.24,1644844341.671875,P08,D02,1,1,1
955,0.21,1644844341.6875,P08,D02,1,1,1
956,0.05,1644844341.703125,P08,D02,1,1,1
957,-0.15,1644844341.71875,P08,D02,1,1,1
958,-0.27,1644844341.734375,P08,D02,1,1,1
959,-0.2,1644844341.75,P08,D02,1,1,1
960,0.11,1644844341.765625,P08,D02,1,1,1
961,0.57,1644844341.78125,P08,D02,1,1,1
962,1.02,1644844341.796875,P08,D02,1,1,1
963,1.3,1644844341.8125,P08,D02,1,1,1
964,1.3,1644844341.828125,P08,D02,1,1,1
965,1.01,1644844341.84375,P08,D02,1,1,1
966,0.52,1644844341.859375,P08,D02,1,1,1
967,-0.02,1644844341.875,P08,D02,1,1,1
968,-0.48,1644844341.890625,P08,D02,1,1,1
969,-0.75,1644844341.90625,P08,D02,1,1,1
970,-0.8,1644844341.921875,P08,D02,1,1,1
971,-0.7,1644844341.9375,P08,D02,1,1,1
972,-0.54,1644844341.953125,P08,D02,1,1,1
973,-0.46,1644844341.96875,P08,D02,1,1,1
974,-0.52,1644844341.984375,P08,D02,1,1,1
975,-0.71,1644844342.0,P08,D02,1,1,1
976,-0.95,1644844342.015625,P08,D02,1,1,1
977,-1.1,1644844342.03125,P08,D02,1,1,1
978,-1.07,1644844342.046875,P08,D02,1,1,1
979,-0.86,1644844342.0625,P08,D02,1,1,1
980,-0.57,1644844342.078125,P08,D02,1,1,1
981,-0.31,1644844342.09375,P08,D02,1,1,1
982,-0.17,1644844342.109375,P08,D02,1,1,1
983,-0.19,1644844342.125,P08,D02,1,1,1
984,-0.29,1644844342.140625,P08,D02,1,1,1
985,-0.38,1644844342.15625,P08,D02,1,1,1
986,-0.4,1644844342.171875,P08,D02,1,1,1
987,-0.35,1644844342.1875,P08,D02,1,1,1
988,-0.29,1644844342.203125,P08,D02,1,1,1
989,-0.28,1644844342.21875,P08,D02,1,1,1
990,-0.31,1644844342.234375,P08,D02,1,1,1
991,-0.32,1644844342.25,P08,D02,1,1,1
992,-0.21,1644844342.265625,P08,D02,1,1,1
993,0.09,1644844342.28125,P08,D02,1,1,1
994,0.56,1644844342.296875,P08,D02,1,1,1
995,1.08,1644844342.3125,P08,D02,1,1,1
996,1.51,1644844342.328125,P08,D02,1,1,1
997,1.73,1644844342.34375,P08,D02,1,1,1
998,1.69,1644844342.359375,P08,D02,1,1,1
999,1.42,1644844342.375,P08,D02,1,1,1
1000,1.0,1644844342.390625,P08,D02,1,1,1
1001,0.55,1644844342.40625,P08,D02,1,1,1
1002,0.19,1644844342.421875,P08,D02,1,1,1
1003,-0.05,1644844342.4375,P08,D02,1,1,1
1004,-0.14,1644844342.453125,P08,D02,1,1,1
1005,-0.11,1644844342.46875,P08,D02,1,1,1
1006,-0.02,1644844342.484375,P08,D02,1,1,1
1007,0.08,1644844342.5,P08,D02,1,1,1
1008,0.16,1644844342.515625,P08,D02,1,1,1
1009,0.21,1644844342.53125,P08,D02,1,1,1
1010,0.23,1644844342.546875,P08,D02,1,1,1
1011,0.23,1644844342.5625,P08,D02,1,1,1
1012,0.19,1644844342.578125,P08,D02,1,1,1
1013,0.11,1644844342.59375,P08,D02,1,1,1
1014,-0.01,1644844342.609375,P08,D02,1,1,1
1015,-0.15,1644844342.625,P08,D02,1,1,1
1016,-0.24,1644844342.640625,P08,D02,1,1,1
1017,-0.27,1644844342.65625,P08,D02,1,1,1
1018,-0.22,1644844342.671875,P08,D02,1,1,1
1019,-0.14,1644844342.6875,P08,D02,1,1,1
1020,-0.1,1644844342.703125,P08,D02,1,1,1
1021,-0.18,1644844342.71875,P08,D02,1,1,1
1022,-0.38,1644844342.734375,P08,D02,1,1,1
1023,-0.68,1644844342.75,P08,D02,1,1,1
1024,-0.98,1644844342.765625,P08,D02,1,1,1
1025,-1.18,1644844342.78125,P08,D02,1,1,1
1026,-1.17,1644844342.796875,P08,D02,1,1,1
1027,-0.95,1644844342.8125,P08,D02,1,1,1
1028,-0.55,1644844342.828125,P08,D02,1,1,1
1029,-0.11,1644844342.84375,P08,D02,1,1,1
1030,0.25,1644844342.859375,P08,D02,1,1,1
1031,0.43,1644844342.875,P08,D02,1,1,1
1032,0.41,1644844342.890625,P08,D02,1,1,1
1033,0.27,1644844342.90625,P08,D02,1,1,1
1034,0.07,1644844342.921875,P08,D02,1,1,1
1035,-0.09,1644844342.9375,P08,D02,1,1,1
1036,-0.21,1644844342.953125,P08,D02,1,1,1
1037,-0.27,1644844342.96875,P08,D02,1,1,1
1038,-0.32,1644844342.984375,P08,D02,1,1,1
1039,-0.33,1644844343.0,P08,D02,1,1,1
1040,-0.29,1644844343.015625,P08,D02,1,1,1
1041,-0.17,1644844343.03125,P08,D02,1,1,1
1042,0.01,1644844343.046875,P08,D02,1,1,1
1043,0.2,1644844343.0625,P08,D02,1,1,1
1044,0.3,1644844343.078125,P08,D02,1,1,1
1045,0.27,1644844343.09375,P08,D02,1,1,1
1046,0.15,1644844343.109375,P08,D02,1,1,1
1047,0.01,1644844343.125,P08,D02,1,1,1
1048,-0.06,1644844343.140625,P08,D02,1,1,1
1049,-0.02,1644844343.15625,P08,D02,1,1,1
1050,0.08,1644844343.171875,P08,D02,1,1,1
1051,0.16,1644844343.1875,P08,D02,1,1,1
1052,0.15,1644844343.203125,P08,D02,1,1,1
1053,0.03,1644844343.21875,P08,D02,1,1,1
1054,-0.12,1644844343.234375,P08,D02,1,1,1
1055,-0.22,1644844343.25,P08,D02,1,1,1
1056,-0.23,1644844343.265625,P08,D02,1,1,1
1057,-0.16,1644844343.28125,P08,D02,1,1,1
1058,-0.09,1644844343.296875,P08,D02,1,1,1
1059,-0.08,1644844343.3125,P08,D02,1,1,1
1060,-0.14,1644844343.328125,P08,D02,1,1,1
1061,-0.2,1644844343.34375,P08,D02,1,1,1
1062,-0.19,1644844343.359375,P08,D02,1,1,1
1063,-0.05,1644844343.375,P08,D02,1,1,1
1064,0.2,1644844343.390625,P08,D02,1,1,1
1065,0.48,1644844343.40625,P08,D02,1,1,1
1066,0.71,1644844343.421875,P08,D02,1,1,1
1067,0.83,1644844343.4375,P08,D02,1,1,1
1068,0.84,1644844343.453125,P08,D02,1,1,1
1069,0.76,1644844343.46875,P08,D02,1,1,1
1070,0.62,1644844343.484375,P08,D02,1,1,1
1071,0.42,1644844343.5,P08,D02,1,1,1
1072,0.2,1644844343.515625,P08,D02,1,1,1
1073,-0.03,1644844343.53125,P08,D02,1,1,1
1074,-0.21,1644844343.546875,P08,D02,1,1,1
1075,-0.27,1644844343.5625,P08,D02,1,1,1
1076,-0.18,1644844343.578125,P08,D02,1,1,1
1077,0.03,1644844343.59375,P08,D02,1,1,1
1078,0.31,1644844343.609375,P08,D02,1,1,1
1079,0.54,1644844343.625,P08,D02,1,1,1
1080,0.65,1644844343.640625,P08,D02,1,1,1
1081,0.6,1644844343.65625,P08,D02,1,1,1
1082,0.42,1644844343.671875,P08,D02,1,1,1
1083,0.18,1644844343.6875,P08,D02,1,1,1
1084,-0.03,1644844343.703125,P08,D02,1,1,1
1085,-0.15,1644844343.71875,P08,D02,1,1,1
1086,-0.21,1644844343.734375,P08,D02,1,1,1
1087,-0.23,1644844343.75,P08,D02,1,1,1
1088,-0.27,1644844343.765625,P08,D02,1,1,1
1089,-0.35,1644844343.78125,P08,D02,1,1,1
1090,-0.45,1644844343.796875,P08,D02,1,1,1
1091,-0.52,1644844343.8125,P08,D02,1,1,1
1092,-0.51,1644844343.828125,P08,D02,1,1,1
1093,-0.44,1644844343.84375,P08,D02,1,1,1
1094,-0.37,1644844343.859375,P08,D02,1,1,1
1095,-0.34,1644844343.875,P08,D02,1,1,1
1096,-0.39,1644844343.890625,P08,D02,1,1,1
1097,-0.49,1644844343.90625,P08,D02,1,1,1
1098,-0.57,1644844343.921875,P08,D02,1,1,1
1099,-0.56,1644844343.9375,P08,D02,1,1,1
1100,-0.44,1644844343.953125,P08,D02,1,1,1
1101,-0.2,1644844343.96875,P08,D02,1,1,1
1102,0.11,1644844343.984375,P08,D02,1,1,1
1103,0.45,1644844344.0,P08,D02,1,1,1
1104,0.76,1644844344.015625,P08,D02,1,1,1
1105,0.98,1644844344.03125,P08,D02,1,1,1
1106,1.06,1644844344.046875,P08,D02,1,1,1
1107,0.97,1644844344.0625,P08,D02,1,1,1
1108,0.75,1644844344.078125,P08,D02,1,1,1
1109,0.47,1644844344.09375,P08,D02,1,1,1
1110,0.2,1644844344.109375,P08,D02,1,1,1
1111,-0.01,1644844344.125,P08,D02,1,1,1
1112,-0.15,1644844344.140625,P08,D02,1,1,1
1113,-0.27,1644844344.15625,P08,D02,1,1,1
1114,-0.38,1644844344.171875,P08,D02,1,1,1
1115,-0.47,1644844344.1875,P08,D02,1,1,1
1116,-0.48,1644844344.203125,P08,D02,1,1,1
1117,-0.35,1644844344.21875,P08,D02,1,1,1
1118,-0.09,1644844344.234375,P08,D02,1,1,1
1119,0.25,1644844344.25,P08,D02,1,1,1
1120,0.59,1644844344.265625,P08,D02,1,1,1
1121,0.82,1644844344.28125,P08,D02,1,1,1
1122,0.92,1644844344.296875,P08,D02,1,1,1
1123,0.87,1644844344.3125,P08,D02,1,1,1
1124,0.72,1644844344.328125,P08,D02,1,1,1
1125,0.51,1644844344.34375,P08,D02,1,1,1
1126,0.29,1644844344.359375,P08,D02,1,1,1
1127,0.07,1644844344.375,P08,D02,1,1,1
1128,-0.12,1644844344.390625,P08,D02,1,1,1
1129,-0.25,1644844344.40625,P08,D02,1,1,1
1130,-0.29,1644844344.421875,P08,D02,1,1,1
1131,-0.28,1644844344.4375,P08,D02,1,1,1
1132,-0.22,1644844344.453125,P08,D02,1,1,1
1133,-0.16,1644844344.46875,P08,D02,1,1,1
1134,-0.13,1644844344.484375,P08,D02,1,1,1
1135,-0.13,1644844344.5,P08,D02,1,1,1
1136,-0.17,1644844344.515625,P08,D02,1,1,1
1137,-0.22,1644844344.53125,P08,D02,1,1,1
1138,-0.29,1644844344.546875,P08,D02,1,1,1
1139,-0.37,1644844344.5625,P08,D02,1,1,1
1140,-0.47,1644844344.578125,P08,D02,1,1,1
1141,-0.58,1644844344.59375,P08,D02,1,1,1
1142,-0.67,1644844344.609375,P08,D02,1,1,1
1143,-0.69,1644844344.625,P08,D02,1,1,1
1144,-0.59,1644844344.640625,P08,D02,1,1,1
1145,-0.35,1644844344.65625,P08,D02,1,1,1
1146,-0.0,1644844344.671875,P08,D02,1,1,1
1147,0.38,1644844344.6875,P08,D02,1,1,1
1148,0.69,1644844344.703125,P08,D02,1,1,1
1149,0.84,1644844344.71875,P08,D02,1,1,1
1150,0.84,1644844344.734375,P08,D02,1,1,1
1151,0.71,1644844344.75,P08,D02,1,1,1
1152,0.53,1644844344.765625,P08,D02,1,1,1
1153,0.37,1644844344.78125,P08,D02,1,1,1
1154,0.26,1644844344.796875,P08,D02,1,1,1
1155,0.16,1644844344.8125,P08,D02,1,1,1
1156,0.04,1644844344.828125,P08,D02,1,1,1
1157,-0.1,1644844344.84375,P08,D02,1,1,1
1158,-0.24,1644844344.859375,P08,D02,1,1,1
1159,-0.31,1644844344.875,P08,D02,1,1,1
1160,-0.26,1644844344.890625,P08,D02,1,1,1
1161,-0.1,1644844344.90625,P08,D02,1,1,1
1162,0.12,1644844344.921875,P08,D02,1,1,1
1163,0.3,1644844344.9375,P08,D02,1,1,1
1164,0.35,1644844344.953125,P08,D02,1,1,1
1165,0.23,1644844344.96875,P08,D02,1,1,1
1166,-0.02,1644844344.984375,P08,D02,1,1,1
1167,-0.3,1644844345.0,P08,D02,1,1,1
1168,-0.51,1644844345.015625,P08,D02,1,1,1
1169,-0.59,1644844345.03125,P08,D02,1,1,1
1170,-0.56,1644844345.046875,P08,D02,1,1,1
1171,-0.5,1644844345.0625,P08,D02,1,1,1
1172,-0.5,1644844345.078125,P08,D02,1,1,1
1173,-0.61,1644844345.09375,P08,D02,1,1,1
1174,-0.8,1644844345.109375,P08,D02,1,1,1
1175,-0.98,1644844345.125,P08,D02,1,1,1
1176,-1.02,1644844345.140625,P08,D02,1,1,1
1177,-0.83,1644844345.15625,P08,D02,1,1,1
1178,-0.44,1644844345.171875,P08,D02,1,1,1
1179,0.07,1644844345.1875,P08,D02,1,1,1
1180,0.54,1644844345.203125,P08,D02,1,1,1
1181,0.89,1644844345.21875,P08,D02,1,1,1
1182,1.11,1644844345.234375,P08,D02,1,1,1
1183,1.26,1644844345.25,P08,D02,1,1,1
1184,1.38,1644844345.265625,P08,D02,1,1,1
1185,1.45,1644844345.28125,P08,D02,1,1,1
1186,1.4,1644844345.296875,P08,D02,1,1,1
1187,1.12,1644844345.3125,P08,D02,1,1,1
1188,0.59,1644844345.328125,P08,D02,1,1,1
1189,-0.08,1644844345.34375,P08,D02,1,1,1
1190,-0.7,1644844345.359375,P08,D02,1,1,1
1191,-1.06,1644844345.375,P08,D02,1,1,1
1192,-1.07,1644844345.390625,P08,D02,1,1,1
1193,-0.78,1644844345.40625,P08,D02,1,1,1
1194,-0.37,1644844345.421875,P08,D02,1,1,1
1195,-0.06,1644844345.4375,P08,D02,1,1,1
1196,0.03,1644844345.453125,P08,D02,1,1,1
1197,-0.1,1644844345.46875,P08,D02,1,1,1
1198,-0.31,1644844345.484375,P08,D02,1,1,1
1199,-0.47,1644844345.5,P08,D02,1,1,1
1200,-0.5,1644844345.515625,P08,D02,1,1,1
1201,-0.4,1644844345.53125,P08,D02,1,1,1
1202,-0.24,1644844345.546875,P08,D02,1,1,1
1203,-0.09,1644844345.5625,P08,D02,1,1,1
1204,0.02,1644844345.578125,P08,D02,1,1,1
1205,0.11,1644844345.59375,P08,D02,1,1,1
1206,0.2,1644844345.609375,P08,D02,1,1,1
1207,0.29,1644844345.625,P08,D02,1,1,1
1208,0.35,1644844345.640625,P08,D02,1,1,1
1209,0.36,1644844345.65625,P08,D02,1,1,1
1210,0.32,1644844345.671875,P08,D02,1,1,1
1211,0.29,1644844345.6875,P08,D02,1,1,1
1212,0.36,1644844345.703125,P08,D02,1,1,1
1213,0.56,1644844345.71875,P08,D02,1,1,1
1214,0.86,1644844345.734375,P08,D02,1,1,1
1215,1.15,1644844345.75,P08,D02,1,1,1
1216,1.27,1644844345.765625,P08,D02,1,1,1
1217,1.13,1644844345.78125,P08,D02,1,1,1
1218,0.75,1644844345.796875,P08,D02,1,1,1
1219,0.26,1644844345.8125,P08,D02,1,1,1
1220,-0.2,1644844345.828125,P08,D02,1,1,1
1221,-0.49,1644844345.84375,P08,D02,1,1,1
1222,-0.6,1644844345.859375,P08,D02,1,1,1
1223,-0.61,1644844345.875,P08,D02,1,1,1
1224,-0.61,1644844345.890625,P08,D02,1,1,1
1225,-0.66,1644844345.90625,P08,D02,1,1,1
1226,-0.76,1644844345.921875,P08,D02,1,1,1
1227,-0.84,1644844345.9375,P08,D02,1,1,1
1228,-0.83,1644844345.953125,P08,D02,1,1,1
1229,-0.71,1644844345.96875,P08,D02,1,1,1
1230,-0.54,1644844345.984375,P08,D02,1,1,1
1231,-0.38,1644844346.0,P08,D02,1,1,1
1232,-0.27,1644844346.015625,P08,D02,1,1,1
1233,-0.21,1644844346.03125,P08,D02,1,1,1
1234,-0.13,1644844346.046875,P08,D02,1,1,1
1235,0.03,1644844346.0625,P08,D02,1,1,1
1236,0.25,1644844346.078125,P08,D02,1,1,1
1237,0.44,1644844346.09375,P08,D02,1,1,1
1238,0.49,1644844346.109375,P08,D02,1,1,1
1239,0.33,1644844346.125,P08,D02,1,1,1
1240,0.01,1644844346.140625,P08,D02,1,1,1
1241,-0.31,1644844346.15625,P08,D02,1,1,1
1242,-0.47,1644844346.171875,P08,D02,1,1,1
1243,-0.39,1644844346.1875,P08,D02,1,1,1
1244,-0.12,1644844346.203125,P08,D02,1,1,1
1245,0.14,1644844346.21875,P08,D02,1,1,1
1246,0.22,1644844346.234375,P08,D02,1,1,1
1247,0.06,1644844346.25,P08,D02,1,1,1
1248,-0.26,1644844346.265625,P08,D02,1,1,1
1249,-0.54,1644844346.28125,P08,D02,1,1,1
1250,-0.57,1644844346.296875,P08,D02,1,1,1
1251,-0.32,1644844346.3125,P08,D02,1,1,1
1252,0.11,1644844346.328125,P08,D02,1,1,1
1253,0.51,1644844346.34375,P08,D02,1,1,1
1254,0.71,1644844346.359375,P08,D02,1,1,1
1255,0.64,1644844346.375,P08,D02,1,1,1
1256,0.39,1644844346.390625,P08,D02,1,1,1
1257,0.13,1644844346.40625,P08,D02,1,1,1
1258,-0.03,1644844346.421875,P08,D02,1,1,1
1259,-0.05,1644844346.4375,P08,D02,1,1,1
1260,0.03,1644844346.453125,P08,D02,1,1,1
1261,0.12,1644844346.46875,P08,D02,1,1,1
1262,0.18,1644844346.484375,P08,D02,1,1,1
1263,0.21,1644844346.5,P08,D02,1,1,1
1264,0.24,1644844346.515625,P08,D02,1,1,1
1265,0.3,1644844346.53125,P08,D02,1,1,1
1266,0.36,1644844346.546875,P08,D02,1,1,1
1267,0.42,1644844346.5625,P08,D02,1,1,1
1268,0.43,1644844346.578125,P08,D02,1,1,1
1269,0.4,1644844346.59375,P08,D02,1,1,1
1270,0.32,1644844346.609375,P08,D02,1,1,1
1271,0.21,1644844346.625,P08,D02,1,1,1
1272,0.06,1644844346.640625,P08,D02,1,1,1
1273,-0.14,1644844346.65625,P08,D02,1,1,1
1274,-0.37,1644844346.671875,P08,D02,1,1,1
1275,-0.61,1644844346.6875,P08,D02,1,1,1
1276,-0.77,1644844346.703125,P08,D02,1,1,1
1277,-0.79,1644844346.71875,P08,D02,1,1,1
1278,-0.64,1644844346.734375,P08,D02,1,1,1
1279,-0.34,1644844346.75,P08,D02,1,1,1
1280,0.06,1644844346.765625,P08,D02,1,1,1
1281,0.48,1644844346.78125,P08,D02,1,1,1
1282,0.85,1644844346.796875,P08,D02,1,1,1
1283,1.1,1644844346.8125,P08,D02,1,1,1
1284,1.17,1644844346.828125,P08,D02,1,1,1
1285,1.04,1644844346.84375,P08,D02,1,1,1
1286,0.68,1644844346.859375,P08,D02,1,1,1
1287,0.12,1644844346.875,P08,D02,1,1,1
1288,-0.52,1644844346.890625,P08,D02,1,1,1
1289,-1.1,1644844346.90625,P08,D02,1,1,1
1290,-1.47,1644844346.921875,P08,D02,1,1,1
1291,-1.56,1644844346.9375,P08,D02,1,1,1
1292,-1.42,1644844346.953125,P08,D02,1,1,1
1293,-1.17,1644844346.96875,P08,D02,1,1,1
1294,-0.94,1644844346.984375,P08,D02,1,1,1
1295,-0.82,1644844347.0,P08,D02,1,1,1
1296,-0.78,1644844347.015625,P08,D02,1,1,1
1297,-0.77,1644844347.03125,P08,D02,1,1,1
1298,-0.71,1644844347.046875,P08,D02,1,1,1
1299,-0.58,1644844347.0625,P08,D02,1,1,1
1300,-0.43,1644844347.078125,P08,D02,1,1,1
1301,-0.33,1644844347.09375,P08,D02,1,1,1
1302,-0.3,1644844347.109375,P08,D02,1,1,1
1303,-0.32,1644844347.125,P08,D02,1,1,1
1304,-0.29,1644844347.140625,P08,D02,1,1,1
1305,-0.14,1644844347.15625,P08,D02,1,1,1
1306,0.15,1644844347.171875,P08,D02,1,1,1
1307,0.49,1644844347.1875,P08,D02,1,1,1
1308,0.78,1644844347.203125,P08,D02,1,1,1
1309,0.92,1644844347.21875,P08,D02,1,1,1
1310,0.88,1644844347.234375,P08,D02,1,1,1
1311,0.71,1644844347.25,P08,D02,1,1,1
1312,0.53,1644844347.265625,P08,D02,1,1,1
1313,0.44,1644844347.28125,P08,D02,1,1,1
1314,0.5,1644844347.296875,P08,D02,1,1,1
1315,0.66,1644844347.3125,P08,D02,1,1,1
1316,0.81,1644844347.328125,P08,D02,1,1,1
1317,0.86,1644844347.34375,P08,D02,1,1,1
1318,0.75,1644844347.359375,P08,D02,1,1,1
1319,0.52,1644844347.375,P08,D02,1,1,1
1320,0.27,1644844347.390625,P08,D02,1,1,1
1321,0.06,1644844347.40625,P08,D02,1,1,1
1322,-0.08,1644844347.421875,P08,D02,1,1,1
1323,-0.18,1644844347.4375,P08,D02,1,1,1
1324,-0.28,1644844347.453125,P08,D02,1,1,1
1325,-0.36,1644844347.46875,P08,D02,1,1,1
1326,-0.36,1644844347.484375,P08,D02,1,1,1
1327,-0.21,1644844347.5,P08,D02,1,1,1
1328,0.08,1644844347.515625,P08,D02,1,1,1
1329,0.42,1644844347.53125,P08,D02,1,1,1
1330,0.65,1644844347.546875,P08,D02,1,1,1
1331,0.63,1644844347.5625,P08,D02,1,1,1
1332,0.37,1644844347.578125,P08,D02,1,1,1
1333,-0.06,1644844347.59375,P08,D02,1,1,1
1334,-0.49,1644844347.609375,P08,D02,1,1,1
1335,-0.78,1644844347.625,P08,D02,1,1,1
1336,-0.85,1644844347.640625,P08,D02,1,1,1
1337,-0.73,1644844347.65625,P08,D02,1,1,1
1338,-0.5,1644844347.671875,P08,D02,1,1,1
1339,-0.23,1644844347.6875,P08,D02,1,1,1
1340,-0.01,1644844347.703125,P08,D02,1,1,1
1341,0.12,1644844347.71875,P08,D02,1,1,1
1342,0.17,1644844347.734375,P08,D02,1,1,1
1343,0.16,1644844347.75,P08,D02,1,1,1
1344,0.14,1644844347.765625,P08,D02,1,1,1
1345,0.14,1644844347.78125,P08,D02,1,1,1
1346,0.16,1644844347.796875,P08,D02,1,1,1
1347,0.17,1644844347.8125,P08,D02,1,1,1
1348,0.13,1644844347.828125,P08,D02,1,1,1
1349,0.02,1644844347.84375,P08,D02,1,1,1
1350,-0.15,1644844347.859375,P08,D02,1,1,1
1351,-0.33,1644844347.875,P08,D02,1,1,1
1352,-0.46,1644844347.890625,P08,D02,1,1,1
1353,-0.52,1644844347.90625,P08,D02,1,1,1
1354,-0.52,1644844347.921875,P08,D02,1,1,1
1355,-0.48,1644844347.9375,P08,D02,1,1,1
1356,-0.46,1644844347.953125,P08,D02,1,1,1
1357,-0.48,1644844347.96875,P08,D02,1,1,1
1358,-0.53,1644844347.984375,P08,D02,1,1,1
1359,-0.58,1644844348.0,P08,D02,1,1,1
1360,-0.6,1644844348.015625,P08,D02,1,1,1
1361,-0.59,1644844348.03125,P08,D02,1,1,1
1362,-0.54,1644844348.046875,P08,D02,1,1,1
1363,-0.48,1644844348.0625,P08,D02,1,1,1
1364,-0.41,1644844348.078125,P08,D02,1,1,1
1365,-0.36,1644844348.09375,P08,D02,1,1,1
1366,-0.31,1644844348.109375,P08,D02,1,1,1
1367,-0.24,1644844348.125,P08,D02,1,1,1
1368,-0.13,1644844348.140625,P08,D02,1,1,1
1369,0.02,1644844348.15625,P08,D02,1,1,1
1370,0.15,1644844348.171875,P08,D02,1,1,1
1371,0.24,1644844348.1875,P08,D02,1,1,1
1372,0.27,1644844348.203125,P08,D02,1,1,1
1373,0.25,1644844348.21875,P08,D02,1,1,1
1374,0.24,1644844348.234375,P08,D02,1,1,1
1375,0.29,1644844348.25,P08,D02,1,1,1
1376,0.45,1644844348.265625,P08,D02,1,1,1
1377,0.7,1644844348.28125,P08,D02,1,1,1
1378,1.0,1644844348.296875,P08,D02,1,1,1
1379,1.25,1644844348.3125,P08,D02,1,1,1
1380,1.38,1644844348.328125,P08,D02,1,1,1
1381,1.33,1644844348.34375,P08,D02,1,1,1
1382,1.12,1644844348.359375,P08,D02,1,1,1
1383,0.79,1644844348.375,P08,D02,1,1,1
1384,0.44,1644844348.390625,P08,D02,1,1,1
1385,0.14,1644844348.40625,P08,D02,1,1,1
1386,-0.07,1644844348.421875,P08,D02,1,1,1
1387,-0.17,1644844348.4375,P08,D02,1,1,1
1388,-0.21,1644844348.453125,P08,D02,1,1,1
1389,-0.23,1644844348.46875,P08,D02,1,1,1
1390,-0.23,1644844348.484375,P08,D02,1,1,1
1391,-0.22,1644844348.5,P08,D02,1,1,1
1392,-0.17,1644844348.515625,P08,D02,1,1,1
1393,-0.08,1644844348.53125,P08,D02,1,1,1
1394,0.01,1644844348.546875,P08,D02,1,1,1
1395,0.06,1644844348.5625,P08,D02,1,1,1
1396,0.04,1644844348.578125,P08,D02,1,1,1
1397,-0.02,1644844348.59375,P08,D02,1,1,1
1398,-0.05,1644844348.609375,P08,D02,1,1,1
1399,0.01,1644844348.625,P08,D02,1,1,1
1400,0.18,1644844348.640625,P08,D02,1,1,1
1401,0.39,1644844348.65625,P08,D02,1,1,1
1402,0.56,1644844348.671875,P08,D02,1,1,1
1403,0.61,1644844348.6875,P08,D02,1,1,1
1404,0.51,1644844348.703125,P08,D02,1,1,1
1405,0.33,1644844348.71875,P08,D02,1,1,1
1406,0.18,1644844348.734375,P08,D02,1,1,1
1407,0.13,1644844348.75,P08,D02,1,1,1
1408,0.17,1644844348.765625,P08,D02,1,1,1
1409,0.24,1644844348.78125,P08,D02,1,1,1
1410,0.28,1644844348.796875,P08,D02,1,1,1
1411,0.2,1644844348.8125,P08,D02,1,1,1
1412,0.04,1644844348.828125,P08,D02,1,1,1
1413,-0.16,1644844348.84375,P08,D02,1,1,1
1414,-0.32,1644844348.859375,P08,D02,1,1,1
1415,-0.4,1644844348.875,P08,D02,1,1,1
1416,-0.42,1644844348.890625,P08,D02,1,1,1
1417,-0.39,1644844348.90625,P08,D02,1,1,1
1418,-0.34,1644844348.921875,P08,D02,1,1,1
1419,-0.26,1644844348.9375,P08,D02,1,1,1
1420,-0.12,1644844348.953125,P08,D02,1,1,1
1421,0.07,1644844348.96875,P08,D02,1,1,1
1422,0.29,1644844348.984375,P08,D02,1,1,1
1423,0.49,1644844349.0,P08,D02,1,1,1
1424,0.59,1644844349.015625,P08,D02,1,1,1
1425,0.55,1644844349.03125,P08,D02,1,1,1
1426,0.37,1644844349.046875,P08,D02,1,1,1
1427,0.06,1644844349.0625,P08,D02,1,1,1
1428,-0.29,1644844349.078125,P08,D02,1,1,1
1429,-0.65,1644844349.09375,P08,D02,1,1,1
1430,-0.93,1644844349.109375,P08,D02,1,1,1
1431,-1.13,1644844349.125,P08,D02,1,1,1
1432,-1.21,1644844349.140625,P08,D02,1,1,1
1433,-1.18,1644844349.15625,P08,D02,1,1,1
1434,-1.06,1644844349.171875,P08,D02,1,1,1
1435,-0.85,1644844349.1875,P08,D02,1,1,1
1436,-0.57,1644844349.203125,P08,D02,1,1,1
1437,-0.22,1644844349.21875,P08,D02,1,1,1
1438,0.16,1644844349.234375,P08,D02,1,1,1
1439,0.52,1644844349.25,P08,D02,1,1,1
1440,0.81,1644844349.265625,P08,D02,1,1,1
1441,0.95,1644844349.28125,P08,D02,1,1,1
1442,0.88,1644844349.296875,P08,D02,1,1,1
1443,0.61,1644844349.3125,P08,D02,1,1,1
1444,0.22,1644844349.328125,P08,D02,1,1,1
1445,-0.18,1644844349.34375,P08,D02,1,1,1
1446,-0.43,1644844349.359375,P08,D02,1,1,1
1447,-0.5,1644844349.375,P08,D02,1,1,1
1448,-0.39,1644844349.390625,P08,D02,1,1,1
1449,-0.18,1644844349.40625,P08,D02,1,1,1
1450,0.03,1644844349.421875,P08,D02,1,1,1
1451,0.2,1644844349.4375,P08,D02,1,1,1
1452,0.34,1644844349.453125,P08,D02,1,1,1
1453,0.49,1644844349.46875,P08,D02,1,1,1
1454,0.67,1644844349.484375,P08,D02,1,1,1
1455,0.85,1644844349.5,P08,D02,1,1,1
1456,0.94,1644844349.515625,P08,D02,1,1,1
1457,0.88,1644844349.53125,P08,D02,1,1,1
1458,0.62,1644844349.546875,P08,D02,1,1,1
1459,0.21,1644844349.5625,P08,D02,1,1,1
1460,-0.24,1644844349.578125,P08,D02,1,1,1
1461,-0.63,1644844349.59375,P08,D02,1,1,1
1462,-0.87,1644844349.609375,P08,D02,1,1,1
1463,-0.96,1644844349.625,P08,D02,1,1,1
1464,-0.94,1644844349.640625,P08,D02,1,1,1
1465,-0.83,1644844349.65625,P08,D02,1,1,1
1466,-0.66,1644844349.671875,P08,D02,1,1,1
1467,-0.45,1644844349.6875,P08,D02,1,1,1
1468,-0.19,1644844349.703125,P08,D02,1,1,1
1469,0.08,1644844349.71875,P08,D02,1,1,1
1470,0.32,1644844349.734375,P08,D02,1,1,1
1471,0.46,1644844349.75,P08,D02,1,1,1
1472,0.45,1644844349.765625,P08,D02,1,1,1
1473,0.31,1644844349.78125,P08,D02,1,1,1
1474,0.07,1644844349.796875,P08,D02,1,1,1
1475,-0.16,1644844349.8125,P08,D02,1,1,1
1476,-0.28,1644844349.828125,P08,D02,1,1,1
1477,-0.25,1644844349.84375,P08,D02,1,1,1
1478,-0.06,1644844349.859375,P08,D02,1,1,1
1479,0.22,1644844349.875,P08,D02,1,1,1
1480,0.48,1644844349.890625,P08,D02,1,1,1
1481,0.62,1644844349.90625,P08,D02,1,1,1
1482,0.59,1644844349.921875,P08,D02,1,1,1
1483,0.39,1644844349.9375,P08,D02,1,1,1
1484,0.1,1644844349.953125,P08,D02,1,1,1
1485,-0.21,1644844349.96875,P08,D02,1,1,1
1486,-0.44,1644844349.984375,P08,D02,1,1,1
1487,-0.54,1644844350.0,P08,D02,1,1,1
1488,-0.52,1644844350.015625,P08,D02,1,1,1
1489,-0.41,1644844350.03125,P08,D02,1,1,1
1490,-0.26,1644844350.046875,P08,D02,1,1,1
1491,-0.1,1644844350.0625,P08,D02,1,1,1
1492,0.03,1644844350.078125,P08,D02,1,1,1
1493,0.1,1644844350.09375,P08,D02,1,1,1
1494,0.13,1644844350.109375,P08,D02,1,1,1
1495,0.15,1644844350.125,P08,D02,1,1,1
1496,0.21,1644844350.140625,P08,D02,1,1,1
1497,0.36,1644844350.15625,P08,D02,1,1,1
1498,0.55,1644844350.171875,P08,D02,1,1,1
1499,0.72,1644844350.1875,P08,D02,1,1,1
1500,0.75,1644844350.203125,P08,D02,1,1,1
1501,0.58,1644844350.21875,P08,D02,1,1,1
1502,0.25,1644844350.234375,P08,D02,1,1,1
1503,-0.12,1644844350.25,P08,D02,1,1,1
1504,-0.39,1644844350.265625,P08,D02,1,1,1
1505,-0.45,1644844350.28125,P08,D02,1,1,1
1506,-0.31,1644844350.296875,P08,D02,1,1,1
1507,-0.1,1644844350.3125,P08,D02,1,1,1
1508,0.04,1644844350.328125,P08,D02,1,1,1
1509,0.02,1644844350.34375,P08,D02,1,1,1
1510,-0.15,1644844350.359375,P08,D02,1,1,1
1511,-0.39,1644844350.375,P08,D02,1,1,1
1512,-0.59,1644844350.390625,P08,D02,1,1,1
1513,-0.68,1644844350.40625,P08,D02,1,1,1
1514,-0.64,1644844350.421875,P08,D02,1,1,1
1515,-0.49,1644844350.4375,P08,D02,1,1,1
1516,-0.3,1644844350.453125,P08,D02,1,1,1
1517,-0.07,1644844350.46875,P08,D02,1,1,1
1518,0.16,1644844350.484375,P08,D02,1,1,1
1519,0.4,1644844350.5,P08,D02,1,1,1
1520,0.61,1644844350.515625,P08,D02,1,1,1
1521,0.77,1644844350.53125,P08,D02,1,1,1
1522,0.83,1644844350.546875,P08,D02,1,1,1
1523,0.77,1644844350.5625,P08,D02,1,1,1
1524,0.64,1644844350.578125,P08,D02,1,1,1
1525,0.49,1644844350.59375,P08,D02,1,1,1
1526,0.39,1644844350.609375,P08,D02,1,1,1
1527,0.37,1644844350.625,P08,D02,1,1,1
1528,0.42,1644844350.640625,P08,D02,1,1,1
1529,0.49,1644844350.65625,P08,D02,1,1,1
1530,0.53,1644844350.671875,P08,D02,1,1,1
1531,0.53,1644844350.6875,P08,D02,1,1,1
1532,0.52,1644844350.703125,P08,D02,1,1,1
1533,0.5,1644844350.71875,P08,D02,1,1,1
1534,0.5,1644844350.734375,P08,D02,1,1,1
1535,0.47,1644844350.75,P08,D02,1,1,1
1536,0.38,1644844350.765625,P08,D02,1,1,1
1537,0.21,1644844350.78125,P08,D02,1,1,1
1538,0.02,1644844350.796875,P08,D02,1,1,1
1539,-0.11,1644844350.8125,P08,D02,1,1,1
1540,-0.11,1644844350.828125,P08,D02,1,1,1
1541,0.04,1644844350.84375,P08,D02,1,1,1
1542,0.25,1644844350.859375,P08,D02,1,1,1
1543,0.42,1644844350.875,P08,D02,1,1,1
1544,0.44,1644844350.890625,P08,D02,1,1,1
1545,0.24,1644844350.90625,P08,D02,1,1,1
1546,-0.13,1644844350.921875,P08,D02,1,1,1
1547,-0.54,1644844350.9375,P08,D02,1,1,1
1548,-0.88,1644844350.953125,P08,D02,1,1,1
1549,-1.05,1644844350.96875,P08,D02,1,1,1
1550,-1.05,1644844350.984375,P08,D02,1,1,1
1551,-0.96,1644844351.0,P08,D02,1,1,1
1552,-0.86,1644844351.015625,P08,D02,1,1,1
1553,-0.84,1644844351.03125,P08,D02,1,1,1
1554,-0.87,1644844351.046875,P08,D02,1,1,1
1555,-0.88,1644844351.0625,P08,D02,1,1,1
1556,-0.79,1644844351.078125,P08,D02,1,1,1
1557,-0.58,1644844351.09375,P08,D02,1,1,1
1558,-0.28,1644844351.109375,P08,D02,1,1,1
1559,-0.01,1644844351.125,P08,D02,1,1,1
1560,0.14,1644844351.140625,P08,D02,1,1,1
1561,0.14,1644844351.15625,P08,D02,1,1,1
1562,0.03,1644844351.171875,P08,D02,1,1,1
1563,-0.1,1644844351.1875,P08,D02,1,1,1
1564,-0.16,1644844351.203125,P08,D02,1,1,1
1565,-0.14,1644844351.21875,P08,D02,1,1,1
1566,-0.07,1644844351.234375,P08,D02,1,1,1
1567,-0.01,1644844351.25,P08,D02,1,1,1
1568,-0.01,1644844351.265625,P08,D02,1,1,1
1569,-0.08,1644844351.28125,P08,D02,1,1,1
1570,-0.18,1644844351.296875,P08,D02,1,1,1
1571,-0.25,1644844351.3125,P08,D02,1,1,1
1572,-0.25,1644844351.328125,P08,D02,1,1,1
1573,-0.14,1644844351.34375,P08,D02,1,1,1
1574,0.05,1644844351.359375,P08,D02,1,1,1
1575,0.3,1644844351.375,P08,D02,1,1,1
1576,0.52,1644844351.390625,P08,D02,1,1,1
1577,0.71,1644844351.40625,P08,D02,1,1,1
1578,0.85,1644844351.421875,P08,D02,1,1,1
1579,0.98,1644844351.4375,P08,D02,1,1,1
1580,1.11,1644844351.453125,P08,D02,1,1,1
1581,1.19,1644844351.46875,P08,D02,1,1,1
1582,1.15,1644844351.484375,P08,D02,1,1,1
1583,0.92,1644844351.5,P08,D02,1,1,1
1584,0.54,1644844351.515625,P08,D02,1,1,1
1585,0.12,1644844351.53125,P08,D02,1,1,1
1586,-0.2,1644844351.546875,P08,D02,1,1,1
1587,-0.35,1644844351.5625,P08,D02,1,1,1
1588,-0.36,1644844351.578125,P08,D02,1,1,1
1589,-0.33,1644844351.59375,P08,D02,1,1,1
1590,-0.35,1644844351.609375,P08,D02,1,1,1
1591,-0.42,1644844351.625,P08,D02,1,1,1
1592,-0.48,1644844351.640625,P08,D02,1,1,1
1593,-0.44,1644844351.65625,P08,D02,1,1,1
1594,-0.27,1644844351.671875,P08,D02,1,1,1
1595,-0.04,1644844351.6875,P08,D02,1,1,1
1596,0.14,1644844351.703125,P08,D02,1,1,1
1597,0.19,1644844351.71875,P08,D02,1,1,1
1598,0.11,1644844351.734375,P08,D02,1,1,1
1599,-0.04,1644844351.75,P08,D02,1,1,1
1600,-0.16,1644844351.765625,P08,D02,1,1,1
1601,-0.19,1644844351.78125,P08,D02,1,1,1
1602,-0.15,1644844351.796875,P08,D02,1,1,1
1603,-0.07,1644844351.8125,P08,D02,1,1,1
1604,-0.03,1644844351.828125,P08,D02,1,1,1
1605,-0.06,1644844351.84375,P08,D02,1,1,1
1606,-0.14,1644844351.859375,P08,D02,1,1,1
1607,-0.22,1644844351.875,P08,D02,1,1,1
1608,-0.25,1644844351.890625,P08,D02,1,1,1
1609,-0.16,1644844351.90625,P08,D02,1,1,1
1610,0.04,1644844351.921875,P08,D02,1,1,1
1611,0.3,1644844351.9375,P08,D02,1,1,1
1612,0.49,1644844351.953125,P08,D02,1,1,1
1613,0.49,1644844351.96875,P08,D02,1,1,1
1614,0.26,1644844351.984375,P08,D02,1,1,1
1615,-0.12,1644844352.0,P08,D02,1,1,1
1616,-0.49,1644844352.015625,P08,D02,1,1,1
1617,-0.72,1644844352.03125,P08,D02,1,1,1
1618,-0.71,1644844352.046875,P08,D02,1,1,1
1619,-0.52,1644844352.0625,P08,D02,1,1,1
1620,-0.24,1644844352.078125,P08,D02,1,1,1
1621,0.01,1644844352.09375,P08,D02,1,1,1
1622,0.19,1644844352.109375,P08,D02,1,1,1
1623,0.29,1644844352.125,P08,D02,1,1,1
1624,0.32,1644844352.140625,P08,D02,1,1,1
1625,0.31,1644844352.15625,P08,D02,1,1,1
1626,0.27,1644844352.171875,P08,D02,1,1,1
1627,0.21,1644844352.1875,P08,D02,1,1,1
1628,0.11,1644844352.203125,P08,D02,1,1,1
1629,0.0,1644844352.21875,P08,D02,1,1,1
1630,-0.11,1644844352.234375,P08,D02,1,1,1
1631,-0.21,1644844352.25,P08,D02,1,1,1
1632,-0.28,1644844352.265625,P08,D02,1,1,1
1633,-0.3,1644844352.28125,P08,D02,1,1,1
1634,-0.26,1644844352.296875,P08,D02,1,1,1
1635,-0.18,1644844352.3125,P08,D02,1,1,1
1636,-0.08,1644844352.328125,P08,D02,1,1,1
1637,-0.01,1644844352.34375,P08,D02,1,1,1
1638,0.02,1644844352.359375,P08,D02,1,1,1
1639,0.03,1644844352.375,P08,D02,1,1,1
1640,0.01,1644844352.390625,P08,D02,1,1,1
1641,-0.02,1644844352.40625,P08,D02,1,1,1
1642,-0.09,1644844352.421875,P08,D02,1,1,1
1643,-0.23,1644844352.4375,P08,D02,1,1,1
1644,-0.44,1644844352.453125,P08,D02,1,1,1
1645,-0.64,1644844352.46875,P08,D02,1,1,1
1646,-0.74,1644844352.484375,P08,D02,1,1,1
1647,-0.67,1644844352.5,P08,D02,1,1,1
1648,-0.46,1644844352.515625,P08,D02,1,1,1
1649,-0.17,1644844352.53125,P08,D02,1,1,1
1650,0.1,1644844352.546875,P08,D02,1,1,1
1651,0.27,1644844352.5625,P08,D02,1,1,1
1652,0.32,1644844352.578125,P08,D02,1,1,1
1653,0.23,1644844352.59375,P08,D02,1,1,1
1654,0.02,1644844352.609375,P08,D02,1,1,1
1655,-0.3,1644844352.625,P08,D02,1,1,1
1656,-0.68,1644844352.640625,P08,D02,1,1,1
1657,-1.06,1644844352.65625,P08,D02,1,1,1
1658,-1.31,1644844352.671875,P08,D02,1,1,1
1659,-1.39,1644844352.6875,P08,D02,1,1,1
1660,-1.3,1644844352.703125,P08,D02,1,1,1
1661,-1.11,1644844352.71875,P08,D02,1,1,1
1662,-0.94,1644844352.734375,P08,D02,1,1,1
1663,-0.82,1644844352.75,P08,D02,1,1,1
1664,-0.74,1644844352.765625,P08,D02,1,1,1
1665,-0.64,1644844352.78125,P08,D02,1,1,1
1666,-0.5,1644844352.796875,P08,D02,1,1,1
1667,-0.3,1644844352.8125,P08,D02,1,1,1
1668,-0.08,1644844352.828125,P08,D02,1,1,1
1669,0.12,1644844352.84375,P08,D02,1,1,1
1670,0.28,1644844352.859375,P08,D02,1,1,1
1671,0.43,1644844352.875,P08,D02,1,1,1
1672,0.53,1644844352.890625,P08,D02,1,1,1
1673,0.57,1644844352.90625,P08,D02,1,1,1
1674,0.52,1644844352.921875,P08,D02,1,1,1
1675,0.4,1644844352.9375,P08,D02,1,1,1
1676,0.3,1644844352.953125,P08,D02,1,1,1
1677,0.32,1644844352.96875,P08,D02,1,1,1
1678,0.52,1644844352.984375,P08,D02,1,1,1
1679,0.86,1644844353.0,P08,D02,1,1,1
1680,1.2,1644844353.015625,P08,D02,1,1,1
1681,1.38,1644844353.03125,P08,D02,1,1,1
1682,1.32,1644844353.046875,P08,D02,1,1,1
1683,1.03,1644844353.0625,P08,D02,1,1,1
1684,0.65,1644844353.078125,P08,D02,1,1,1
1685,0.33,1644844353.09375,P08,D02,1,1,1
1686,0.21,1644844353.109375,P08,D02,1,1,1
1687,0.29,1644844353.125,P08,D02,1,1,1
1688,0.49,1644844353.140625,P08,D02,1,1,1
1689,0.69,1644844353.15625,P08,D02,1,1,1
1690,0.77,1644844353.171875,P08,D02,1,1,1
1691,0.7,1644844353.1875,P08,D02,1,1,1
1692,0.48,1644844353.203125,P08,D02,1,1,1
1693,0.2,1644844353.21875,P08,D02,1,1,1
1694,-0.08,1644844353.234375,P08,D02,1,1,1
1695,-0.31,1644844353.25,P08,D02,1,1,1
1696,-0.5,1644844353.265625,P08,D02,1,1,1
1697,-0.63,1644844353.28125,P08,D02,1,1,1
1698,-0.71,1644844353.296875,P08,D02,1,1,1
1699,-0.68,1644844353.3125,P08,D02,1,1,1
1700,-0.53,1644844353.328125,P08,D02,1,1,1
1701,-0.25,1644844353.34375,P08,D02,1,1,1
1702,0.09,1644844353.359375,P08,D02,1,1,1
1703,0.4,1644844353.375,P08,D02,1,1,1
1704,0.57,1644844353.390625,P08,D02,1,1,1
1705,0.58,1644844353.40625,P08,D02,1,1,1
1706,0.5,1644844353.421875,P08,D02,1,1,1
1707,0.41,1644844353.4375,P08,D02,1,1,1
1708,0.39,1644844353.453125,P08,D02,1,1,1
1709,0.46,1644844353.46875,P08,D02,1,1,1
1710,0.59,1644844353.484375,P08,D02,1,1,1
1711,0.66,1644844353.5,P08,D02,1,1,1
1712,0.63,1644844353.515625,P08,D02,1,1,1
1713,0.48,1644844353.53125,P08,D02,1,1,1
1714,0.26,1644844353.546875,P08,D02,1,1,1
1715,0.07,1644844353.5625,P08,D02,1,1,1
1716,-0.03,1644844353.578125,P08,D02,1,1,1
1717,0.0,1644844353.59375,P08,D02,1,1,1
1718,0.13,1644844353.609375,P08,D02,1,1,1
1719,0.27,1644844353.625,P08,D02,1,1,1
1720,0.33,1644844353.640625,P08,D02,1,1,1
1721,0.26,1644844353.65625,P08,D02,1,1,1
1722,0.04,1644844353.671875,P08,D02,1,1,1
1723,-0.29,1644844353.6875,P08,D02,1,1,1
1724,-0.61,1644844353.703125,P08,D02,1,1,1
1725,-0.83,1644844353.71875,P08,D02,1,1,1
1726,-0.88,1644844353.734375,P08,D02,1,1,1
1727,-0.77,1644844353.75,P08,D02,1,1,1
1728,-0.53,1644844353.765625,P08,D02,1,1,1
1729,-0.28,1644844353.78125,P08,D02,1,1,1
1730,-0.12,1644844353.796875,P08,D02,1,1,1
1731,-0.09,1644844353.8125,P08,D02,1,1,1
1732,-0.17,1644844353.828125,P08,D02,1,1,1
1733,-0.3,1644844353.84375,P08,D02,1,1,1
1734,-0.39,1644844353.859375,P08,D02,1,1,1
1735,-0.38,1644844353.875,P08,D02,1,1,1
1736,-0.25,1644844353.890625,P08,D02,1,1,1
1737,-0.04,1644844353.90625,P08,D02,1,1,1
1738,0.15,1644844353.921875,P08,D02,1,1,1
1739,0.24,1644844353.9375,P08,D02,1,1,1
1740,0.22,1644844353.953125,P08,D02,1,1,1
1741,0.08,1644844353.96875,P08,D02,1,1,1
1742,-0.07,1644844353.984375,P08,D02,1,1,1
1743,-0.16,1644844354.0,P08,D02,1,1,1
1744,-0.12,1644844354.015625,P08,D02,1,1,1
1745,0.05,1644844354.03125,P08,D02,1,1,1
1746,0.29,1644844354.046875,P08,D02,1,1,1
1747,0.5,1644844354.0625,P08,D02,1,1,1
1748,0.65,1644844354.078125,P08,D02,1,1,1
1749,0.73,1644844354.09375,P08,D02,1,1,1
1750,0.77,1644844354.109375,P08,D02,1,1,1
1751,0.81,1644844354.125,P08,D02,1,1,1
1752,0.81,1644844354.140625,P08,D02,1,1,1
1753,0.69,1644844354.15625,P08,D02,1,1,1
1754,0.42,1644844354.171875,P08,D02,1,1,1
1755,-0.0,1644844354.1875,P08,D02,1,1,1
1756,-0.43,1644844354.203125,P08,D02,1,1,1
1757,-0.7,1644844354.21875,P08,D02,1,1,1
1758,-0.69,1644844354.234375,P08,D02,1,1,1
1759,-0.42,1644844354.25,P08,D02,1,1,1
1760,-0.04,1644844354.265625,P08,D02,1,1,1
1761,0.27,1644844354.28125,P08,D02,1,1,1
1762,0.39,1644844354.296875,P08,D02,1,1,1
1763,0.32,1644844354.3125,P08,D02,1,1,1
1764,0.15,1644844354.328125,P08,D02,1,1,1
1765,-0.06,1644844354.34375,P08,D02,1,1,1
1766,-0.26,1644844354.359375,P08,D02,1,1,1
1767,-0.45,1644844354.375,P08,D02,1,1,1
1768,-0.63,1644844354.390625,P08,D02,1,1,1
1769,-0.76,1644844354.40625,P08,D02,1,1,1
1770,-0.76,1644844354.421875,P08,D02,1,1,1
1771,-0.63,1644844354.4375,P08,D02,1,1,1
1772,-0.41,1644844354.453125,P08,D02,1,1,1
1773,-0.18,1644844354.46875,P08,D02,1,1,1
1774,-0.02,1644844354.484375,P08,D02,1,1,1
1775,0.06,1644844354.5,P08,D02,1,1,1
1776,0.12,1644844354.515625,P08,D02,1,1,1
1777,0.23,1644844354.53125,P08,D02,1,1,1
1778,0.41,1644844354.546875,P08,D02,1,1,1
1779,0.6,1644844354.5625,P08,D02,1,1,1
1780,0.73,1644844354.578125,P08,D02,1,1,1
1781,0.74,1644844354.59375,P08,D02,1,1,1
1782,0.64,1644844354.609375,P08,D02,1,1,1
1783,0.46,1644844354.625,P08,D02,1,1,1
1784,0.27,1644844354.640625,P08,D02,1,1,1
1785,0.1,1644844354.65625,P08,D02,1,1,1
1786,-0.01,1644844354.671875,P08,D02,1,1,1
1787,-0.08,1644844354.6875,P08,D02,1,1,1
1788,-0.1,1644844354.703125,P08,D02,1,1,1
1789,-0.08,1644844354.71875,P08,D02,1,1,1
1790,-0.05,1644844354.734375,P08,D02,1,1,1
1791,-0.03,1644844354.75,P08,D02,1,1,1
1792,-0.03,1644844354.765625,P08,D02,1,1,1
1793,-0.07,1644844354.78125,P08,D02,1,1,1
1794,-0.12,1644844354.796875,P08,D02,1,1,1
1795,-0.22,1644844354.8125,P08,D02,1,1,1
1796,-0.34,1644844354.828125,P08,D02,1,1,1
1797,-0.49,1644844354.84375,P08,D02,1,1,1
1798,-0.61,1644844354.859375,P08,D02,1,1,1
1799,-0.62,1644844354.875,P08,D02,1,1,1
1800,-0.49,1644844354.890625,P08,D02,1,1,1
1801,-0.23,1644844354.90625,P08,D02,1,1,1
1802,0.09,1644844354.921875,P08,D02,1,1,1
1803,0.32,1644844354.9375,P08,D02,1,1,1
1804,0.37,1644844354.953125,P08,D02,1,1,1
1805,0.22,1644844354.96875,P08,D02,1,1,1
1806,-0.02,1644844354.984375,P08,D02,1,1,1
1807,-0.2,1644844355.0,P08,D02,1,1,1
1808,-0.23,1644844355.015625,P08,D02,1,1,1
1809,-0.1,1644844355.03125,P08,D02,1,1,1
1810,0.09,1644844355.046875,P08,D02,1,1,1
1811,0.21,1644844355.0625,P08,D02,1,1,1
1812,0.15,1644844355.078125,P08,D02,1,1,1
1813,-0.04,1644844355.09375,P08,D02,1,1,1
1814,-0.26,1644844355.109375,P08,D02,1,1,1
1815,-0.4,1644844355.125,P08,D02,1,1,1
1816,-0.38,1644844355.140625,P08,D02,1,1,1
1817,-0.25,1644844355.15625,P08,D02,1,1,1
1818,-0.15,1644844355.171875,P08,D02,1,1,1
1819,-0.2,1644844355.1875,P08,D02,1,1,1
1820,-0.41,1644844355.203125,P08,D02,1,1,1
1821,-0.7,1644844355.21875,P08,D02,1,1,1
1822,-0.91,1644844355.234375,P08,D02,1,1,1
1823,-0.87,1644844355.25,P08,D02,1,1,1
1824,-0.58,1644844355.265625,P08,D02,1,1,1
1825,-0.18,1644844355.28125,P08,D02,1,1,1
1826,0.13,1644844355.296875,P08,D02,1,1,1
1827,0.19,1644844355.3125,P08,D02,1,1,1
1828,-0.01,1644844355.328125,P08,D02,1,1,1
1829,-0.36,1644844355.34375,P08,D02,1,1,1
1830,-0.66,1644844355.359375,P08,D02,1,1,1
1831,-0.75,1644844355.375,P08,D02,1,1,1
1832,-0.6,1644844355.390625,P08,D02,1,1,1
1833,-0.3,1644844355.40625,P08,D02,1,1,1
1834,0.03,1644844355.421875,P08,D02,1,1,1
1835,0.27,1644844355.4375,P08,D02,1,1,1
1836,0.4,1644844355.453125,P08,D02,1,1,1
1837,0.47,1644844355.46875,P08,D02,1,1,1
1838,0.5,1644844355.484375,P08,D02,1,1,1
1839,0.52,1644844355.5,P08,D02,1,1,1
1840,0.5,1644844355.515625,P08,D02,1,1,1
1841,0.41,1644844355.53125,P08,D02,1,1,1
1842,0.28,1644844355.546875,P08,D02,1,1,1
1843,0.17,1644844355.5625,P08,D02,1,1,1
1844,0.14,1644844355.578125,P08,D02,1,1,1
1845,0.21,1644844355.59375,P08,D02,1,1,1
1846,0.31,1644844355.609375,P08,D02,1,1,1
1847,0.34,1644844355.625,P08,D02,1,1,1
1848,0.22,1644844355.640625,P08,D02,1,1,1
1849,-0.07,1644844355.65625,P08,D02,1,1,1
1850,-0.42,1644844355.671875,P08,D02,1,1,1
1851,-0.68,1644844355.6875,P08,D02,1,1,1
1852,-0.72,1644844355.703125,P08,D02,1,1,1
1853,-0.51,1644844355.71875,P08,D02,1,1,1
1854,-0.13,1644844355.734375,P08,D02,1,1,1
1855,0.28,1644844355.75,P08,D02,1,1,1
1856,0.59,1644844355.765625,P08,D02,1,1,1
1857,0.73,1644844355.78125,P08,D02,1,1,1
1858,0.76,1644844355.796875,P08,D02,1,1,1
1859,0.74,1644844355.8125,P08,D02,1,1,1
1860,0.74,1644844355.828125,P08,D02,1,1,1
1861,0.75,1644844355.84375,P08,D02,1,1,1
1862,0.72,1644844355.859375,P08,D02,1,1,1
1863,0.62,1644844355.875,P08,D02,1,1,1
1864,0.44,1644844355.890625,P08,D02,1,1,1
1865,0.21,1644844355.90625,P08,D02,1,1,1
1866,0.02,1644844355.921875,P08,D02,1,1,1
1867,-0.09,1644844355.9375,P08,D02,1,1,1
1868,-0.07,1644844355.953125,P08,D02,1,1,1
1869,0.04,1644844355.96875,P08,D02,1,1,1
1870,0.21,1644844355.984375,P08,D02,1,1,1
1871,0.42,1644844356.0,P08,D02,1,1,1
1872,0.63,1644844356.015625,P08,D02,1,1,1
1873,0.79,1644844356.03125,P08,D02,1,1,1
1874,0.85,1644844356.046875,P08,D02,1,1,1
1875,0.74,1644844356.0625,P08,D02,1,1,1
1876,0.48,1644844356.078125,P08,D02,1,1,1
1877,0.12,1644844356.09375,P08,D02,1,1,1
1878,-0.22,1644844356.109375,P08,D02,1,1,1
1879,-0.44,1644844356.125,P08,D02,1,1,1
1880,-0.52,1644844356.140625,P08,D02,1,1,1
1881,-0.5,1644844356.15625,P08,D02,1,1,1
1882,-0.48,1644844356.171875,P08,D02,1,1,1
1883,-0.57,1644844356.1875,P08,D02,1,1,1
1884,-0.76,1644844356.203125,P08,D02,1,1,1
1885,-1.02,1644844356.21875,P08,D02,1,1,1
1886,-1.24,1644844356.234375,P08,D02,1,1,1
1887,-1.36,1644844356.25,P08,D02,1,1,1
1888,-1.33,1644844356.265625,P08,D02,1,1,1
1889,-1.18,1644844356.28125,P08,D02,1,1,1
1890,-0.96,1644844356.296875,P08,D02,1,1,1
1891,-0.71,1644844356.3125,P08,D02,1,1,1
1892,-0.46,1644844356.328125,P08,D02,1,1,1
1893,-0.23,1644844356.34375,P08,D02,1,1,1
1894,-0.03,1644844356.359375,P08,D02,1,1,1
1895,0.14,1644844356.375,P08,D02,1,1,1
1896,0.28,1644844356.390625,P08,D02,1,1,1
1897,0.37,1644844356.40625,P08,D02,1,1,1
1898,0.4,1644844356.421875,P08,D02,1,1,1
1899,0.37,1644844356.4375,P08,D02,1,1,1
1900,0.29,1644844356.453125,P08,D02,1,1,1
1901,0.19,1644844356.46875,P08,D02,1,1,1
1902,0.12,1644844356.484375,P08,D02,1,1,1
1903,0.16,1644844356.5,P08,D02,1,1,1
1904,0.3,1644844356.515625,P08,D02,1,1,1
1905,0.52,1644844356.53125,P08,D02,1,1,1
1906,0.73,1644844356.546875,P08,D02,1,1,1
1907,0.85,1644844356.5625,P08,D02,1,1,1
1908,0.83,1644844356.578125,P08,D02,1,1,1
1909,0.7,1644844356.59375,P08,D02,1,1,1
1910,0.52,1644844356.609375,P08,D02,1,1,1
1911,0.39,1644844356.625,P08,D02,1,1,1
1912,0.31,1644844356.640625,P08,D02,1,1,1
1913,0.24,1644844356.65625,P08,D02,1,1,1
1914,0.11,1644844356.671875,P08,D02,1,1,1
1915,-0.15,1644844356.6875,P08,D02,1,1,1
1916,-0.52,1644844356.703125,P08,D02,1,1,1
1917,-0.91,1644844356.71875,P08,D02,1,1,1
1918,-1.16,1644844356.734375,P08,D02,1,1,1
1919,-1.18,1644844356.75,P08,D02,1,1,1
1920,-0.93,1644844356.765625,P08,D02,1,1,1
1921,-0.5,1644844356.78125,P08,D02,1,1,1
1922,-0.04,1644844356.796875,P08,D02,1,1,1
1923,0.31,1644844356.8125,P08,D02,1,1,1
1924,0.45,1644844356.828125,P08,D02,1,1,1
1925,0.39,1644844356.84375,P08,D02,1,1,1
1926,0.22,1644844356.859375,P08,D02,1,1,1
1927,0.04,1644844356.875,P08,D02,1,1,1
1928,-0.05,1644844356.890625,P08,D02,1,1,1
1929,-0.03,1644844356.90625,P08,D02,1,1,1
1930,0.07,1644844356.921875,P08,D02,1,1,1
1931,0.19,1644844356.9375,P08,D02,1,1,1
1932,0.25,1644844356.953125,P08,D02,1,1,1
1933,0.24,1644844356.96875,P08,D02,1,1,1
1934,0.18,1644844356.984375,P08,D02,1,1,1
1935,0.13,1644844357.0,P08,D02,1,1,1
1936,0.17,1644844357.015625,P08,D02,1,1,1
1937,0.3,1644844357.03125,P08,D02,1,1,1
1938,0.49,1644844357.046875,P08,D02,1,1,1
1939,0.63,1644844357.0625,P08,D02,1,1,1
1940,0.64,1644844357.078125,P08,D02,1,1,1
1941,0.47,1644844357.09375,P08,D02,1,1,1
1942,0.19,1644844357.109375,P08,D02,1,1,1
1943,-0.1,1644844357.125,P08,D02,1,1,1
1944,-0.27,1644844357.140625,P08,D02,1,1,1
1945,-0.25,1644844357.15625,P08,D02,1,1,1
1946,-0.1,1644844357.171875,P08,D02,1,1,1
1947,0.1,1644844357.1875,P08,D02,1,1,1
1948,0.23,1644844357.203125,P08,D02,1,1,1
1949,0.21,1644844357.21875,P08,D02,1,1,1
1950,0.03,1644844357.234375,P08,D02,1,1,1
1951,-0.23,1644844357.25,P08,D02,1,1,1
1952,-0.48,1644844357.265625,P08,D02,1,1,1
1953,-0.59,1644844357.28125,P08,D02,1,1,1
1954,-0.51,1644844357.296875,P08,D02,1,1,1
1955,-0.27,1644844357.3125,P08,D02,1,1,1
1956,0.03,1644844357.328125,P08,D02,1,1,1
1957,0.24,1644844357.34375,P08,D02,1,1,1
1958,0.23,1644844357.359375,P08,D02,1,1,1
1959,-0.04,1644844357.375,P08,D02,1,1,1
1960,-0.47,1644844357.390625,P08,D02,1,1,1
1961,-0.88,1644844357.40625,P08,D02,1,1,1
1962,-1.09,1644844357.421875,P08,D02,1,1,1
1963,-1.02,1644844357.4375,P08,D02,1,1,1
1964,-0.74,1644844357.453125,P08,D02,1,1,1
1965,-0.41,1644844357.46875,P08,D02,1,1,1
1966,-0.19,1644844357.484375,P08,D02,1,1,1
1967,-0.16,1644844357.5,P08,D02,1,1,1
1968,-0.25,1644844357.515625,P08,D02,1,1,1
1969,-0.31,1644844357.53125,P08,D02,1,1,1
1970,-0.17,1644844357.546875,P08,D02,1,1,1
1971,0.2,1644844357.5625,P08,D02,1,1,1
1972,0.66,1644844357.578125,P08,D02,1,1,1
1973,1.02,1644844357.59375,P08,D02,1,1,1
1974,1.11,1644844357.609375,P08,D02,1,1,1
1975,0.87,1644844357.625,P08,D02,1,1,1
1976,0.41,1644844357.640625,P08,D02,1,1,1
1977,-0.02,1644844357.65625,P08,D02,1,1,1
1978,-0.27,1644844357.671875,P08,D02,1,1,1
1979,-0.29,1644844357.6875,P08,D02,1,1,1
1980,-0.16,1644844357.703125,P08,D02,1,1,1
1981,-0.05,1644844357.71875,P08,D02,1,1,1
1982,-0.05,1644844357.734375,P08,D02,1,1,1
1983,-0.11,1644844357.75,P08,D02,1,1,1
1984,-0.12,1644844357.765625,P08,D02,1,1,1
1985,0.09,1644844357.78125,P08,D02,1,1,1
1986,0.52,1644844357.796875,P08,D02,1,1,1
1987,1.08,1644844357.8125,P08,D02,1,1,1
1988,1.56,1644844357.828125,P08,D02,1,1,1
1989,1.76,1644844357.84375,P08,D02,1,1,1
1990,1.62,1644844357.859375,P08,D02,1,1,1
1991,1.21,1644844357.875,P08,D02,1,1,1
1992,0.67,1644844357.890625,P08,D02,1,1,1
1993,0.15,1644844357.90625,P08,D02,1,1,1
1994,-0.26,1644844357.921875,P08,D02,1,1,1
1995,-0.53,1644844357.9375,P08,D02,1,1,1
1996,-0.67,1644844357.953125,P08,D02,1,1,1
1997,-0.67,1644844357.96875,P08,D02,1,1,1
1998,-0.49,1644844357.984375,P08,D02,1,1,1
1999,-0.14,1644844358.0,P08,D02,1,1,1
2000,0.36,1644844358.015625,P08,D02,1,1,1
2001,0.85,1644844358.03125,P08,D02,1,1,1
2002,1.15,1644844358.046875,P08,D02,1,1,1
2003,1.1,1644844358.0625,P08,D02,1,1,1
2004,0.69,1644844358.078125,P08,D02,1,1,1
2005,0.03,1644844358.09375,P08,D02,1,1,1
2006,-0.62,1644844358.109375,P08,D02,1,1,1
2007,-1.03,1644844358.125,P08,D02,1,1,1
2008,-1.1,1644844358.140625,P08,D02,1,1,1
2009,-0.85,1644844358.15625,P08,D02,1,1,1
2010,-0.43,1644844358.171875,P08,D02,1,1,1
2011,-0.03,1644844358.1875,P08,D02,1,1,1
2012,0.22,1644844358.203125,P08,D02,1,1,1
2013,0.28,1644844358.21875,P08,D02,1,1,1
2014,0.18,1644844358.234375,P08,D02,1,1,1
2015,-0.03,1644844358.25,P08,D02,1,1,1
2016,-0.28,1644844358.265625,P08,D02,1,1,1
2017,-0.51,1644844358.28125,P08,D02,1,1,1
2018,-0.68,1644844358.296875,P08,D02,1,1,1
2019,-0.73,1644844358.3125,P08,D02,1,1,1
2020,-0.61,1644844358.328125,P08,D02,1,1,1
2021,-0.33,1644844358.34375,P08,D02,1,1,1
2022,0.03,1644844358.359375,P08,D02,1,1,1
2023,0.38,1644844358.375,P08,D02,1,1,1
2024,0.6,1644844358.390625,P08,D02,1,1,1
2025,0.64,1644844358.40625,P08,D02,1,1,1
2026,0.52,1644844358.421875,P08,D02,1,1,1
2027,0.3,1644844358.4375,P08,D02,1,1,1
2028,0.03,1644844358.453125,P08,D02,1,1,1
2029,-0.2,1644844358.46875,P08,D02,1,1,1
2030,-0.34,1644844358.484375,P08,D02,1,1,1
2031,-0.37,1644844358.5,P08,D02,1,1,1
2032,-0.28,1644844358.515625,P08,D02,1,1,1
2033,-0.08,1644844358.53125,P08,D02,1,1,1
2034,0.17,1644844358.546875,P08,D02,1,1,1
2035,0.38,1644844358.5625,P08,D02,1,1,1
2036,0.46,1644844358.578125,P08,D02,1,1,1
2037,0.38,1644844358.59375,P08,D02,1,1,1
2038,0.16,1644844358.609375,P08,D02,1,1,1
2039,-0.11,1644844358.625,P08,D02,1,1,1
2040,-0.33,1644844358.640625,P08,D02,1,1,1
2041,-0.45,1644844358.65625,P08,D02,1,1,1
2042,-0.46,1644844358.671875,P08,D02,1,1,1
2043,-0.43,1644844358.6875,P08,D02,1,1,1
2044,-0.42,1644844358.703125,P08,D02,1,1,1
2045,-0.48,1644844358.71875,P08,D02,1,1,1
2046,-0.59,1644844358.734375,P08,D02,1,1,1
2047,-0.69,1644844358.75,P08,D02,1,1,1
2048,-0.74,1644844358.765625,P08,D02,1,1,1
2049,-0.68,1644844358.78125,P08,D02,1,1,1
2050,-0.54,1644844358.796875,P08,D02,1,1,1
2051,-0.37,1644844358.8125,P08,D02,1,1,1
2052,-0.26,1644844358.828125,P08,D02,1,1,1
2053,-0.25,1644844358.84375,P08,D02,1,1,1
2054,-0.35,1644844358.859375,P08,D02,1,1,1
2055,-0.49,1644844358.875,P08,D02,1,1,1
2056,-0.56,1644844358.890625,P08,D02,1,1,1
2057,-0.47,1644844358.90625,P08,D02,1,1,1
2058,-0.21,1644844358.921875,P08,D02,1,1,1
2059,0.15,1644844358.9375,P08,D02,1,1,1
2060,0.48,1644844358.953125,P08,D02,1,1,1
2061,0.7,1644844358.96875,P08,D02,1,1,1
2062,0.75,1644844358.984375,P08,D02,1,1,1
2063,0.69,1644844359.0,P08,D02,1,1,1
2064,0.6,1644844359.015625,P08,D02,1,1,1
2065,0.55,1644844359.03125,P08,D02,1,1,1
2066,0.56,1644844359.046875,P08,D02,1,1,1
2067,0.59,1644844359.0625,P08,D02,1,1,1
2068,0.57,1644844359.078125,P08,D02,1,1,1
2069,0.46,1644844359.09375,P08,D02,1,1,1
2070,0.27,1644844359.109375,P08,D02,1,1,1
2071,0.03,1644844359.125,P08,D02,1,1,1
2072,-0.18,1644844359.140625,P08,D02,1,1,1
2073,-0.3,1644844359.15625,P08,D02,1,1,1
2074,-0.28,1644844359.171875,P08,D02,1,1,1
2075,-0.13,1644844359.1875,P08,D02,1,1,1
2076,0.13,1644844359.203125,P08,D02,1,1,1
2077,0.42,1644844359.21875,P08,D02,1,1,1
2078,0.64,1644844359.234375,P08,D02,1,1,1
2079,0.73,1644844359.25,P08,D02,1,1,1
2080,0.68,1644844359.265625,P08,D02,1,1,1
2081,0.57,1644844359.28125,P08,D02,1,1,1
2082,0.47,1644844359.296875,P08,D02,1,1,1
2083,0.44,1644844359.3125,P08,D02,1,1,1
2084,0.44,1644844359.328125,P08,D02,1,1,1
2085,0.38,1644844359.34375,P08,D02,1,1,1
2086,0.18,1644844359.359375,P08,D02,1,1,1
2087,-0.16,1644844359.375,P08,D02,1,1,1
2088,-0.53,1644844359.390625,P08,D02,1,1,1
2089,-0.77,1644844359.40625,P08,D02,1,1,1
2090,-0.77,1644844359.421875,P08,D02,1,1,1
2091,-0.53,1644844359.4375,P08,D02,1,1,1
2092,-0.19,1644844359.453125,P08,D02,1,1,1
2093,0.09,1644844359.46875,P08,D02,1,1,1
2094,0.18,1644844359.484375,P08,D02,1,1,1
2095,0.08,1644844359.5,P08,D02,1,1,1
2096,-0.1,1644844359.515625,P08,D02,1,1,1
2097,-0.22,1644844359.53125,P08,D02,1,1,1
2098,-0.2,1644844359.546875,P08,D02,1,1,1
2099,-0.05,1644844359.5625,P08,D02,1,1,1
2100,0.15,1644844359.578125,P08,D02,1,1,1
2101,0.28,1644844359.59375,P08,D02,1,1,1
2102,0.3,1644844359.609375,P08,D02,1,1,1
2103,0.22,1644844359.625,P08,D02,1,1,1
2104,0.11,1644844359.640625,P08,D02,1,1,1
2105,0.03,1644844359.65625,P08,D02,1,1,1
2106,0.03,1644844359.671875,P08,D02,1,1,1
2107,0.07,1644844359.6875,P08,D02,1,1,1
2108,0.09,1644844359.703125,P08,D02,1,1,1
2109,0.04,1644844359.71875,P08,D02,1,1,1
2110,-0.1,1644844359.734375,P08,D02,1,1,1
2111,-0.32,1644844359.75,P08,D02,1,1,1
2112,-0.53,1644844359.765625,P08,D02,1,1,1
2113,-0.68,1644844359.78125,P08,D02,1,1,1
2114,-0.73,1644844359.796875,P08,D02,1,1,1
2115,-0.68,1644844359.8125,P08,D02,1,1,1
2116,-0.58,1644844359.828125,P08,D02,1,1,1
2117,-0.5,1644844359.84375,P08,D02,1,1,1
2118,-0.44,1644844359.859375,P08,D02,1,1,1
2119,-0.4,1644844359.875,P08,D02,1,1,1
2120,-0.35,1644844359.890625,P08,D02,1,1,1
2121,-0.24,1644844359.90625,P08,D02,1,1,1
2122,-0.08,1644844359.921875,P08,D02,1,1,1
2123,0.09,1644844359.9375,P08,D02,1,1,1
2124,0.2,1644844359.953125,P08,D02,1,1,1
2125,0.2,1644844359.96875,P08,D02,1,1,1
2126,0.09,1644844359.984375,P08,D02,1,1,1
2127,-0.06,1644844360.0,P08,D02,1,1,1
2128,-0.16,1644844360.015625,P08,D02,1,1,1
2129,-0.14,1644844360.03125,P08,D02,1,1,1
2130,-0.03,1644844360.046875,P08,D02,1,1,1
2131,0.08,1644844360.0625,P08,D02,1,1,1
2132,0.12,1644844360.078125,P08,D02,1,1,1
2133,0.03,1644844360.09375,P08,D02,1,1,1
2134,-0.15,1644844360.109375,P08,D02,1,1,1
2135,-0.29,1644844360.125,P08,D02,1,1,1
2136,-0.29,1644844360.140625,P08,D02,1,1,1
2137,-0.1,1644844360.15625,P08,D02,1,1,1
2138,0.24,1644844360.171875,P08,D02,1,1,1
2139,0.6,1644844360.1875,P08,D02,1,1,1
2140,0.89,1644844360.203125,P08,D02,1,1,1
2141,1.01,1644844360.21875,P08,D02,1,1,1
2142,0.97,1644844360.234375,P08,D02,1,1,1
2143,0.78,1644844360.25,P08,D02,1,1,1
2144,0.53,1644844360.265625,P08,D02,1,1,1
2145,0.27,1644844360.28125,P08,D02,1,1,1
2146,0.07,1644844360.296875,P08,D02,1,1,1
2147,-0.03,1644844360.3125,P08,D02,1,1,1
2148,-0.04,1644844360.328125,P08,D02,1,1,1
2149,-0.01,1644844360.34375,P08,D02,1,1,1
2150,0.01,1644844360.359375,P08,D02,1,1,1
2151,-0.03,1644844360.375,P08,D02,1,1,1
2152,-0.13,1644844360.390625,P08,D02,1,1,1
2153,-0.23,1644844360.40625,P08,D02,1,1,1
2154,-0.29,1644844360.421875,P08,D02,1,1,1
2155,-0.27,1644844360.4375,P08,D02,1,1,1
2156,-0.23,1644844360.453125,P08,D02,1,1,1
2157,-0.22,1644844360.46875,P08,D02,1,1,1
2158,-0.31,1644844360.484375,P08,D02,1,1,1
2159,-0.5,1644844360.5,P08,D02,1,1,1
2160,-0.72,1644844360.515625,P08,D02,1,1,1
2161,-0.91,1644844360.53125,P08,D02,1,1,1
2162,-1.02,1644844360.546875,P08,D02,1,1,1
2163,-1.06,1644844360.5625,P08,D02,1,1,1
2164,-1.04,1644844360.578125,P08,D02,1,1,1
2165,-0.99,1644844360.59375,P08,D02,1,1,1
2166,-0.89,1644844360.609375,P08,D02,1,1,1
2167,-0.71,1644844360.625,P08,D02,1,1,1
2168,-0.46,1644844360.640625,P08,D02,1,1,1
2169,-0.17,1644844360.65625,P08,D02,1,1,1
2170,0.14,1644844360.671875,P08,D02,1,1,1
2171,0.43,1644844360.6875,P08,D02,1,1,1
2172,0.69,1644844360.703125,P08,D02,1,1,1
2173,0.92,1644844360.71875,P08,D02,1,1,1
2174,1.09,1644844360.734375,P08,D02,1,1,1
2175,1.15,1644844360.75,P08,D02,1,1,1
2176,1.07,1644844360.765625,P08,D02,1,1,1
2177,0.85,1644844360.78125,P08,D02,1,1,1
2178,0.52,1644844360.796875,P08,D02,1,1,1
2179,0.15,1644844360.8125,P08,D02,1,1,1
2180,-0.19,1644844360.828125,P08,D02,1,1,1
2181,-0.46,1644844360.84375,P08,D02,1,1,1
2182,-0.67,1644844360.859375,P08,D02,1,1,1
2183,-0.8,1644844360.875,P08,D02,1,1,1
2184,-0.83,1644844360.890625,P08,D02,1,1,1
2185,-0.73,1644844360.90625,P08,D02,1,1,1
2186,-0.48,1644844360.921875,P08,D02,1,1,1
2187,-0.12,1644844360.9375,P08,D02,1,1,1
2188,0.24,1644844360.953125,P08,D02,1,1,1
2189,0.49,1644844360.96875,P08,D02,1,1,1
2190,0.54,1644844360.984375,P08,D02,1,1,1
2191,0.37,1644844361.0,P08,D02,1,1,1
2192,0.08,1644844361.015625,P08,D02,1,1,1
2193,-0.19,1644844361.03125,P08,D02,1,1,1
2194,-0.31,1644844361.046875,P08,D02,1,1,1
2195,-0.22,1644844361.0625,P08,D02,1,1,1
2196,0.03,1644844361.078125,P08,D02,1,1,1
2197,0.35,1644844361.09375,P08,D02,1,1,1
2198,0.59,1644844361.109375,P08,D02,1,1,1
2199,0.7,1644844361.125,P08,D02,1,1,1
2200,0.68,1644844361.140625,P08,D02,1,1,1
2201,0.59,1644844361.15625,P08,D02,1,1,1
2202,0.48,1644844361.171875,P08,D02,1,1,1
2203,0.39,1644844361.1875,P08,D02,1,1,1
2204,0.29,1644844361.203125,P08,D02,1,1,1
2205,0.17,1644844361.21875,P08,D02,1,1,1
2206,0.05,1644844361.234375,P08,D02,1,1,1
2207,-0.03,1644844361.25,P08,D02,1,1,1
2208,-0.02,1644844361.265625,P08,D02,1,1,1
2209,0.1,1644844361.28125,P08,D02,1,1,1
2210,0.28,1644844361.296875,P08,D02,1,1,1
2211,0.42,1644844361.3125,P08,D02,1,1,1
2212,0.43,1644844361.328125,P08,D02,1,1,1
2213,0.28,1644844361.34375,P08,D02,1,1,1
2214,0.03,1644844361.359375,P08,D02,1,1,1
2215,-0.19,1644844361.375,P08,D02,1,1,1
2216,-0.29,1644844361.390625,P08,D02,1,1,1
2217,-0.19,1644844361.40625,P08,D02,1,1,1
2218,0.06,1644844361.421875,P08,D02,1,1,1
2219,0.36,1644844361.4375,P08,D02,1,1,1
2220,0.58,1644844361.453125,P08,D02,1,1,1
2221,0.65,1644844361.46875,P08,D02,1,1,1
2222,0.53,1644844361.484375,P08,D02,1,1,1
2223,0.28,1644844361.5,P08,D02,1,1,1
2224,0.01,1644844361.515625,P08,D02,1,1,1
2225,-0.2,1644844361.53125,P08,D02,1,1,1
2226,-0.31,1644844361.546875,P08,D02,1,1,1
2227,-0.33,1644844361.5625,P08,D02,1,1,1
2228,-0.33,1644844361.578125,P08,D02,1,1,1
2229,-0.36,1644844361.59375,P08,D02,1,1,1
2230,-0.39,1644844361.609375,P08,D02,1,1,1
2231,-0.4,1644844361.625,P08,D02,1,1,1
2232,-0.31,1644844361.640625,P08,D02,1,1,1
2233,-0.13,1644844361.65625,P08,D02,1,1,1
2234,0.07,1644844361.671875,P08,D02,1,1,1
2235,0.2,1644844361.6875,P08,D02,1,1,1
2236,0.16,1644844361.703125,P08,D02,1,1,1
2237,-0.04,1644844361.71875,P08,D02,1,1,1
2238,-0.3,1644844361.734375,P08,D02,1,1,1
2239,-0.48,1644844361.75,P08,D02,1,1,1
2240,-0.5,1644844361.765625,P08,D02,1,1,1
2241,-0.36,1644844361.78125,P08,D02,1,1,1
2242,-0.15,1644844361.796875,P08,D02,1,1,1
2243,0.0,1644844361.8125,P08,D02,1,1,1
2244,0.05,1644844361.828125,P08,D02,1,1,1
2245,-0.01,1644844361.84375,P08,D02,1,1,1
2246,-0.11,1644844361.859375,P08,D02,1,1,1
2247,-0.18,1644844361.875,P08,D02,1,1,1
2248,-0.22,1644844361.890625,P08,D02,1,1,1
2249,-0.24,1644844361.90625,P08,D02,1,1,1
2250,-0.27,1644844361.921875,P08,D02,1,1,1
2251,-0.33,1644844361.9375,P08,D02,1,1,1
2252,-0.38,1644844361.953125,P08,D02,1,1,1
2253,-0.38,1644844361.96875,P08,D02,1,1,1
2254,-0.3,1644844361.984375,P08,D02,1,1,1
2255,-0.14,1644844362.0,P08,D02,1,1,1
2256,0.06,1644844362.015625,P08,D02,1,1,1
2257,0.27,1644844362.03125,P08,D02,1,1,1
2258,0.46,1644844362.046875,P08,D02,1,1,1
2259,0.61,1644844362.0625,P08,D02,1,1,1
2260,0.75,1644844362.078125,P08,D02,1,1,1
2261,0.84,1644844362.09375,P08,D02,1,1,1
2262,0.86,1644844362.109375,P08,D02,1,1,1
2263,0.77,1644844362.125,P08,D02,1,1,1
2264,0.54,1644844362.140625,P08,D02,1,1,1
2265,0.2,1644844362.15625,P08,D02,1,1,1
2266,-0.16,1644844362.171875,P08,D02,1,1,1
2267,-0.43,1644844362.1875,P08,D02,1,1,1
2268,-0.52,1644844362.203125,P08,D02,1,1,1
2269,-0.43,1644844362.21875,P08,D02,1,1,1
2270,-0.24,1644844362.234375,P08,D02,1,1,1
2271,-0.11,1644844362.25,P08,D02,1,1,1
2272,-0.13,1644844362.265625,P08,D02,1,1,1
2273,-0.32,1644844362.28125,P08,D02,1,1,1
2274,-0.58,1644844362.296875,P08,D02,1,1,1
2275,-0.74,1644844362.3125,P08,D02,1,1,1
2276,-0.68,1644844362.328125,P08,D02,1,1,1
2277,-0.38,1644844362.34375,P08,D02,1,1,1
2278,0.04,1644844362.359375,P08,D02,1,1,1
2279,0.4,1644844362.375,P08,D02,1,1,1
2280,0.57,1644844362.390625,P08,D02,1,1,1
2281,0.49,1644844362.40625,P08,D02,1,1,1
2282,0.22,1644844362.421875,P08,D02,1,1,1
2283,-0.09,1644844362.4375,P08,D02,1,1,1
2284,-0.3,1644844362.453125,P08,D02,1,1,1
2285,-0.34,1644844362.46875,P08,D02,1,1,1
2286,-0.21,1644844362.484375,P08,D02,1,1,1
2287,0.04,1644844362.5,P08,D02,1,1,1
2288,0.33,1644844362.515625,P08,D02,1,1,1
2289,0.6,1644844362.53125,P08,D02,1,1,1
2290,0.8,1644844362.546875,P08,D02,1,1,1
2291,0.89,1644844362.5625,P08,D02,1,1,1
2292,0.83,1644844362.578125,P08,D02,1,1,1
2293,0.59,1644844362.59375,P08,D02,1,1,1
2294,0.22,1644844362.609375,P08,D02,1,1,1
2295,-0.22,1644844362.625,P08,D02,1,1,1
2296,-0.59,1644844362.640625,P08,D02,1,1,1
2297,-0.76,1644844362.65625,P08,D02,1,1,1
2298,-0.68,1644844362.671875,P08,D02,1,1,1
2299,-0.38,1644844362.6875,P08,D02,1,1,1
2300,0.04,1644844362.703125,P08,D02,1,1,1
2301,0.46,1644844362.71875,P08,D02,1,1,1
2302,0.76,1644844362.734375,P08,D02,1,1,1
2303,0.89,1644844362.75,P08,D02,1,1,1
2304,0.85,1644844362.765625,P08,D02,1,1,1
2305,0.68,1644844362.78125,P08,D02,1,1,1
2306,0.41,1644844362.796875,P08,D02,1,1,1
2307,0.12,1644844362.8125,P08,D02,1,1,1
2308,-0.12,1644844362.828125,P08,D02,1,1,1
2309,-0.22,1644844362.84375,P08,D02,1,1,1
2310,-0.15,1644844362.859375,P08,D02,1,1,1
2311,0.08,1644844362.875,P08,D02,1,1,1
2312,0.36,1644844362.890625,P08,D02,1,1,1
2313,0.57,1644844362.90625,P08,D02,1,1,1
2314,0.64,1644844362.921875,P08,D02,1,1,1
2315,0.57,1644844362.9375,P08,D02,1,1,1
2316,0.42,1644844362.953125,P08,D02,1,1,1
2317,0.3,1644844362.96875,P08,D02,1,1,1
2318,0.25,1644844362.984375,P08,D02,1,1,1
2319,0.26,1644844363.0,P08,D02,1,1,1
2320,0.27,1644844363.015625,P08,D02,1,1,1
2321,0.26,1644844363.03125,P08,D02,1,1,1
2322,0.24,1644844363.046875,P08,D02,1,1,1
2323,0.21,1644844363.0625,P08,D02,1,1,1
2324,0.21,1644844363.078125,P08,D02,1,1,1
2325,0.2,1644844363.09375,P08,D02,1,1,1
2326,0.14,1644844363.109375,P08,D02,1,1,1
2327,0.02,1644844363.125,P08,D02,1,1,1
2328,-0.11,1644844363.140625,P08,D02,1,1,1
2329,-0.22,1644844363.15625,P08,D02,1,1,1
2330,-0.23,1644844363.171875,P08,D02,1,1,1
2331,-0.15,1644844363.1875,P08,D02,1,1,1
2332,-0.06,1644844363.203125,P08,D02,1,1,1
2333,-0.01,1644844363.21875,P08,D02,1,1,1
2334,-0.03,1644844363.234375,P08,D02,1,1,1
2335,-0.09,1644844363.25,P08,D02,1,1,1
2336,-0.15,1644844363.265625,P08,D02,1,1,1
2337,-0.18,1644844363.28125,P08,D02,1,1,1
2338,-0.17,1644844363.296875,P08,D02,1,1,1
2339,-0.15,1644844363.3125,P08,D02,1,1,1
2340,-0.12,1644844363.328125,P08,D02,1,1,1
2341,-0.1,1644844363.34375,P08,D02,1,1,1
2342,-0.07,1644844363.359375,P08,D02,1,1,1
2343,-0.06,1644844363.375,P08,D02,1,1,1
2344,-0.08,1644844363.390625,P08,D02,1,1,1
2345,-0.18,1644844363.40625,P08,D02,1,1,1
2346,-0.33,1644844363.421875,P08,D02,1,1,1
2347,-0.49,1644844363.4375,P08,D02,1,1,1
2348,-0.63,1644844363.453125,P08,D02,1,1,1
2349,-0.73,1644844363.46875,P08,D02,1,1,1
2350,-0.79,1644844363.484375,P08,D02,1,1,1
2351,-0.81,1644844363.5,P08,D02,1,1,1
2352,-0.83,1644844363.515625,P08,D02,1,1,1
2353,-0.8,1644844363.53125,P08,D02,1,1,1
2354,-0.67,1644844363.546875,P08,D02,1,1,1
2355,-0.37,1644844363.5625,P08,D02,1,1,1
2356,0.08,1644844363.578125,P08,D02,1,1,1
2357,0.58,1644844363.59375,P08,D02,1,1,1
2358,0.98,1644844363.609375,P08,D02,1,1,1
2359,1.13,1644844363.625,P08,D02,1,1,1
2360,0.97,1644844363.640625,P08,D02,1,1,1
2361,0.56,1644844363.65625,P08,D02,1,1,1
2362,0.05,1644844363.671875,P08,D02,1,1,1
2363,-0.41,1644844363.6875,P08,D02,1,1,1
2364,-0.7,1644844363.703125,P08,D02,1,1,1
2365,-0.82,1644844363.71875,P08,D02,1,1,1
2366,-0.85,1644844363.734375,P08,D02,1,1,1
2367,-0.87,1644844363.75,P08,D02,1,1,1
2368,-0.96,1644844363.765625,P08,D02,1,1,1
2369,-1.1,1644844363.78125,P08,D02,1,1,1
2370,-1.21,1644844363.796875,P08,D02,1,1,1
2371,-1.22,1644844363.8125,P08,D02,1,1,1
2372,-1.09,1644844363.828125,P08,D02,1,1,1
2373,-0.85,1644844363.84375,P08,D02,1,1,1
2374,-0.58,1644844363.859375,P08,D02,1,1,1
2375,-0.33,1644844363.875,P08,D02,1,1,1
2376,-0.16,1644844363.890625,P08,D02,1,1,1
2377,-0.09,1644844363.90625,P08,D02,1,1,1
2378,-0.13,1644844363.921875,P08,D02,1,1,1
2379,-0.27,1644844363.9375,P08,D02,1,1,1
2380,-0.49,1644844363.953125,P08,D02,1,1,1
2381,-0.75,1644844363.96875,P08,D02,1,1,1
2382,-0.97,1644844363.984375,P08,D02,1,1,1
2383,-1.11,1644844364.0,P08,D02,1,1,1
2384,-1.1,1644844364.015625,P08,D02,1,1,1
2385,-0.93,1644844364.03125,P08,D02,1,1,1
2386,-0.62,1644844364.046875,P08,D02,1,1,1
2387,-0.22,1644844364.0625,P08,D02,1,1,1
2388,0.23,1644844364.078125,P08,D02,1,1,1
2389,0.66,1644844364.09375,P08,D02,1,1,1
2390,1.0,1644844364.109375,P08,D02,1,1,1
2391,1.2,1644844364.125,P08,D02,1,1,1
2392,1.24,1644844364.140625,P08,D02,1,1,1
2393,1.12,1644844364.15625,P08,D02,1,1,1
2394,0.89,1644844364.171875,P08,D02,1,1,1
2395,0.63,1644844364.1875,P08,D02,1,1,1
2396,0.4,1644844364.203125,P08,D02,1,1,1
2397,0.27,1644844364.21875,P08,D02,1,1,1
2398,0.23,1644844364.234375,P08,D02,1,1,1
2399,0.25,1644844364.25,P08,D02,1,1,1
2400,0.27,1644844364.265625,P08,D02,1,1,1
2401,0.24,1644844364.28125,P08,D02,1,1,1
2402,0.17,1644844364.296875,P08,D02,1,1,1
2403,0.09,1644844364.3125,P08,D02,1,1,1
2404,0.07,1644844364.328125,P08,D02,1,1,1
2405,0.13,1644844364.34375,P08,D02,1,1,1
2406,0.25,1644844364.359375,P08,D02,1,1,1
2407,0.39,1644844364.375,P08,D02,1,1,1
2408,0.48,1644844364.390625,P08,D02,1,1,1
2409,0.48,1644844364.40625,P08,D02,1,1,1
2410,0.4,1644844364.421875,P08,D02,1,1,1
2411,0.28,1644844364.4375,P08,D02,1,1,1
2412,0.15,1644844364.453125,P08,D02,1,1,1
2413,0.06,1644844364.46875,P08,D02,1,1,1
2414,0.0,1644844364.484375,P08,D02,1,1,1
2415,0.0,1644844364.5,P08,D02,1,1,1
2416,0.03,1644844364.515625,P08,D02,1,1,1
2417,0.09,1644844364.53125,P08,D02,1,1,1
2418,0.16,1644844364.546875,P08,D02,1,1,1
2419,0.22,1644844364.5625,P08,D02,1,1,1
2420,0.23,1644844364.578125,P08,D02,1,1,1
2421,0.19,1644844364.59375,P08,D02,1,1,1
2422,0.14,1644844364.609375,P08,D02,1,1,1
2423,0.13,1644844364.625,P08,D02,1,1,1
2424,0.18,1644844364.640625,P08,D02,1,1,1
2425,0.29,1644844364.65625,P08,D02,1,1,1
2426,0.41,1644844364.671875,P08,D02,1,1,1
2427,0.47,1644844364.6875,P08,D02,1,1,1
2428,0.46,1644844364.703125,P08,D02,1,1,1
2429,0.39,1644844364.71875,P08,D02,1,1,1
2430,0.29,1644844364.734375,P08,D02,1,1,1
2431,0.18,1644844364.75,P08,D02,1,1,1
2432,0.04,1644844364.765625,P08,D02,1,1,1
2433,-0.12,1644844364.78125,P08,D02,1,1,1
2434,-0.31,1644844364.796875,P08,D02,1,1,1
2435,-0.46,1644844364.8125,P08,D02,1,1,1
2436,-0.51,1644844364.828125,P08,D02,1,1,1
2437,-0.43,1644844364.84375,P08,D02,1,1,1
2438,-0.28,1644844364.859375,P08,D02,1,1,1
2439,-0.19,1644844364.875,P08,D02,1,1,1
2440,-0.26,1644844364.890625,P08,D02,1,1,1
2441,-0.56,1644844364.90625,P08,D02,1,1,1
2442,-1.02,1644844364.921875,P08,D02,1,1,1
2443,-1.45,1644844364.9375,P08,D02,1,1,1
2444,-1.65,1644844364.953125,P08,D02,1,1,1
2445,-1.48,1644844364.96875,P08,D02,1,1,1
2446,-0.96,1644844364.984375,P08,D02,1,1,1
2447,-0.23,1644844365.0,P08,D02,1,1,1
2448,0.48,1644844365.015625,P08,D02,1,1,1
2449,0.97,1644844365.03125,P08,D02,1,1,1
2450,1.13,1644844365.046875,P08,D02,1,1,1
2451,0.99,1644844365.0625,P08,D02,1,1,1
2452,0.66,1644844365.078125,P08,D02,1,1,1
2453,0.28,1644844365.09375,P08,D02,1,1,1
2454,-0.03,1644844365.109375,P08,D02,1,1,1
2455,-0.21,1644844365.125,P08,D02,1,1,1
2456,-0.24,1644844365.140625,P08,D02,1,1,1
2457,-0.13,1644844365.15625,P08,D02,1,1,1
2458,0.08,1644844365.171875,P08,D02,1,1,1
2459,0.33,1644844365.1875,P08,D02,1,1,1
2460,0.55,1644844365.203125,P08,D02,1,1,1
2461,0.69,1644844365.21875,P08,D02,1,1,1
2462,0.74,1644844365.234375,P08,D02,1,1,1
2463,0.74,1644844365.25,P08,D02,1,1,1
2464,0.78,1644844365.265625,P08,D02,1,1,1
2465,0.9,1644844365.28125,P08,D02,1,1,1
2466,1.09,1644844365.296875,P08,D02,1,1,1
2467,1.25,1644844365.3125,P08,D02,1,1,1
2468,1.27,1644844365.328125,P08,D02,1,1,1
2469,1.1,1644844365.34375,P08,D02,1,1,1
2470,0.78,1644844365.359375,P08,D02,1,1,1
2471,0.41,1644844365.375,P08,D02,1,1,1
2472,0.09,1644844365.390625,P08,D02,1,1,1
2473,-0.13,1644844365.40625,P08,D02,1,1,1
2474,-0.28,1644844365.421875,P08,D02,1,1,1
2475,-0.42,1644844365.4375,P08,D02,1,1,1
2476,-0.58,1644844365.453125,P08,D02,1,1,1
2477,-0.72,1644844365.46875,P08,D02,1,1,1
2478,-0.79,1644844365.484375,P08,D02,1,1,1
2479,-0.74,1644844365.5,P08,D02,1,1,1
2480,-0.55,1644844365.515625,P08,D02,1,1,1
2481,-0.27,1644844365.53125,P08,D02,1,1,1
2482,0.02,1644844365.546875,P08,D02,1,1,1
2483,0.22,1644844365.5625,P08,D02,1,1,1
2484,0.26,1644844365.578125,P08,D02,1,1,1
2485,0.09,1644844365.59375,P08,D02,1,1,1
2486,-0.25,1644844365.609375,P08,D02,1,1,1
2487,-0.65,1644844365.625,P08,D02,1,1,1
2488,-0.95,1644844365.640625,P08,D02,1,1,1
2489,-1.03,1644844365.65625,P08,D02,1,1,1
2490,-0.86,1644844365.671875,P08,D02,1,1,1
2491,-0.51,1644844365.6875,P08,D02,1,1,1
2492,-0.14,1644844365.703125,P08,D02,1,1,1
2493,0.12,1644844365.71875,P08,D02,1,1,1
2494,0.2,1644844365.734375,P08,D02,1,1,1
2495,0.12,1644844365.75,P08,D02,1,1,1
2496,-0.04,1644844365.765625,P08,D02,1,1,1
2497,-0.25,1644844365.78125,P08,D02,1,1,1
2498,-0.47,1644844365.796875,P08,D02,1,1,1
2499,-0.68,1644844365.8125,P08,D02,1,1,1
2500,-0.81,1644844365.828125,P08,D02,1,1,1
2501,-0.78,1644844365.84375,P08,D02,1,1,1
2502,-0.56,1644844365.859375,P08,D02,1,1,1
2503,-0.2,1644844365.875,P08,D02,1,1,1
2504,0.18,1644844365.890625,P08,D02,1,1,1
2505,0.44,1644844365.90625,P08,D02,1,1,1
2506,0.49,1644844365.921875,P08,D02,1,1,1
2507,0.39,1644844365.9375,P08,D02,1,1,1
2508,0.23,1644844365.953125,P08,D02,1,1,1
2509,0.16,1644844365.96875,P08,D02,1,1,1
2510,0.2,1644844365.984375,P08,D02,1,1,1
2511,0.34,1644844366.0,P08,D02,1,1,1
2512,0.48,1644844366.015625,P08,D02,1,1,1
2513,0.55,1644844366.03125,P08,D02,1,1,1
2514,0.54,1644844366.046875,P08,D02,1,1,1
2515,0.46,1644844366.0625,P08,D02,1,1,1
2516,0.37,1644844366.078125,P08,D02,1,1,1
2517,0.31,1644844366.09375,P08,D02,1,1,1
2518,0.29,1644844366.109375,P08,D02,1,1,1
2519,0.33,1644844366.125,P08,D02,1,1,1
2520,0.42,1644844366.140625,P08,D02,1,1,1
2521,0.53,1644844366.15625,P08,D02,1,1,1
2522,0.62,1644844366.171875,P08,D02,1,1,1
2523,0.65,1644844366.1875,P08,D02,1,1,1
2524,0.6,1644844366.203125,P08,D02,1,1,1
2525,0.51,1644844366.21875,P08,D02,1,1,1
2526,0.39,1644844366.234375,P08,D02,1,1,1
2527,0.27,1644844366.25,P08,D02,1,1,1
2528,0.15,1644844366.265625,P08,D02,1,1,1
2529,0.01,1644844366.28125,P08,D02,1,1,1
2530,-0.16,1644844366.296875,P08,D02,1,1,1
2531,-0.36,1644844366.3125,P08,D02,1,1,1
2532,-0.55,1644844366.328125,P08,D02,1,1,1
2533,-0.7,1644844366.34375,P08,D02,1,1,1
2534,-0.75,1644844366.359375,P08,D02,1,1,1
2535,-0.71,1644844366.375,P08,D02,1,1,1
2536,-0.58,1644844366.390625,P08,D02,1,1,1
2537,-0.37,1644844366.40625,P08,D02,1,1,1
2538,-0.11,1644844366.421875,P08,D02,1,1,1
2539,0.15,1644844366.4375,P08,D02,1,1,1
2540,0.37,1644844366.453125,P08,D02,1,1,1
2541,0.49,1644844366.46875,P08,D02,1,1,1
2542,0.46,1644844366.484375,P08,D02,1,1,1
2543,0.3,1644844366.5,P08,D02,1,1,1
2544,0.04,1644844366.515625,P08,D02,1,1,1
2545,-0.22,1644844366.53125,P08,D02,1,1,1
2546,-0.41,1644844366.546875,P08,D02,1,1,1
2547,-0.47,1644844366.5625,P08,D02,1,1,1
2548,-0.43,1644844366.578125,P08,D02,1,1,1
2549,-0.34,1644844366.59375,P08,D02,1,1,1
2550,-0.27,1644844366.609375,P08,D02,1,1,1
2551,-0.23,1644844366.625,P08,D02,1,1,1
2552,-0.23,1644844366.640625,P08,D02,1,1,1
2553,-0.21,1644844366.65625,P08,D02,1,1,1
2554,-0.1,1644844366.671875,P08,D02,1,1,1
2555,0.11,1644844366.6875,P08,D02,1,1,1
2556,0.4,1644844366.703125,P08,D02,1,1,1
2557,0.67,1644844366.71875,P08,D02,1,1,1
2558,0.84,1644844366.734375,P08,D02,1,1,1
2559,0.84,1644844366.75,P08,D02,1,1,1
2560,0.69,1644844366.765625,P08,D02,1,1,1
2561,0.45,1644844366.78125,P08,D02,1,1,1
2562,0.2,1644844366.796875,P08,D02,1,1,1
2563,0.02,1644844366.8125,P08,D02,1,1,1
2564,-0.07,1644844366.828125,P08,D02,1,1,1
2565,-0.1,1644844366.84375,P08,D02,1,1,1
2566,-0.12,1644844366.859375,P08,D02,1,1,1
2567,-0.15,1644844366.875,P08,D02,1,1,1
2568,-0.21,1644844366.890625,P08,D02,1,1,1
2569,-0.26,1644844366.90625,P08,D02,1,1,1
2570,-0.3,1644844366.921875,P08,D02,1,1,1
2571,-0.32,1644844366.9375,P08,D02,1,1,1
2572,-0.33,1644844366.953125,P08,D02,1,1,1
2573,-0.35,1644844366.96875,P08,D02,1,1,1
2574,-0.37,1644844366.984375,P08,D02,1,1,1
2575,-0.37,1644844367.0,P08,D02,1,1,1
2576,-0.31,1644844367.015625,P08,D02,1,1,1
2577,-0.18,1644844367.03125,P08,D02,1,1,1
2578,-0.02,1644844367.046875,P08,D02,1,1,1
2579,0.15,1644844367.0625,P08,D02,1,1,1
2580,0.27,1644844367.078125,P08,D02,1,1,1
2581,0.32,1644844367.09375,P08,D02,1,1,1
2582,0.33,1644844367.109375,P08,D02,1,1,1
2583,0.35,1644844367.125,P08,D02,1,1,1
2584,0.43,1644844367.140625,P08,D02,1,1,1
2585,0.58,1644844367.15625,P08,D02,1,1,1
2586,0.76,1644844367.171875,P08,D02,1,1,1
2587,0.92,1644844367.1875,P08,D02,1,1,1
2588,1.02,1644844367.203125,P08,D02,1,1,1
2589,1.01,1644844367.21875,P08,D02,1,1,1
2590,0.9,1644844367.234375,P08,D02,1,1,1
2591,0.7,1644844367.25,P08,D02,1,1,1
2592,0.44,1644844367.265625,P08,D02,1,1,1
2593,0.14,1644844367.28125,P08,D02,1,1,1
2594,-0.17,1644844367.296875,P08,D02,1,1,1
2595,-0.5,1644844367.3125,P08,D02,1,1,1
2596,-0.81,1644844367.328125,P08,D02,1,1,1
2597,-1.07,1644844367.34375,P08,D02,1,1,1
2598,-1.23,1644844367.359375,P08,D02,1,1,1
2599,-1.25,1644844367.375,P08,D02,1,1,1
2600,-1.11,1644844367.390625,P08,D02,1,1,1
2601,-0.86,1644844367.40625,P08,D02,1,1,1
2602,-0.57,1644844367.421875,P08,D02,1,1,1
2603,-0.35,1644844367.4375,P08,D02,1,1,1
2604,-0.25,1644844367.453125,P08,D02,1,1,1
2605,-0.25,1644844367.46875,P08,D02,1,1,1
2606,-0.27,1644844367.484375,P08,D02,1,1,1
2607,-0.25,1644844367.5,P08,D02,1,1,1
2608,-0.16,1644844367.515625,P08,D02,1,1,1
2609,-0.02,1644844367.53125,P08,D02,1,1,1
2610,0.12,1644844367.546875,P08,D02,1,1,1
2611,0.22,1644844367.5625,P08,D02,1,1,1
2612,0.29,1644844367.578125,P08,D02,1,1,1
2613,0.36,1644844367.59375,P08,D02,1,1,1
2614,0.44,1644844367.609375,P08,D02,1,1,1
2615,0.5,1644844367.625,P08,D02,1,1,1
2616,0.5,1644844367.640625,P08,D02,1,1,1
2617,0.4,1644844367.65625,P08,D02,1,1,1
2618,0.24,1644844367.671875,P08,D02,1,1,1
2619,0.09,1644844367.6875,P08,D02,1,1,1
2620,0.04,1644844367.703125,P08,D02,1,1,1
2621,0.1,1644844367.71875,P08,D02,1,1,1
2622,0.21,1644844367.734375,P08,D02,1,1,1
2623,0.29,1644844367.75,P08,D02,1,1,1
2624,0.27,1644844367.765625,P08,D02,1,1,1
2625,0.16,1644844367.78125,P08,D02,1,1,1
2626,0.03,1644844367.796875,P08,D02,1,1,1
2627,-0.06,1644844367.8125,P08,D02,1,1,1
2628,-0.07,1644844367.828125,P08,D02,1,1,1
2629,-0.02,1644844367.84375,P08,D02,1,1,1
2630,0.04,1644844367.859375,P08,D02,1,1,1
2631,0.07,1644844367.875,P08,D02,1,1,1
2632,0.06,1644844367.890625,P08,D02,1,1,1
2633,0.03,1644844367.90625,P08,D02,1,1,1
2634,-0.03,1644844367.921875,P08,D02,1,1,1
2635,-0.11,1644844367.9375,P08,D02,1,1,1
2636,-0.23,1644844367.953125,P08,D02,1,1,1
2637,-0.4,1644844367.96875,P08,D02,1,1,1
2638,-0.62,1644844367.984375,P08,D02,1,1,1
2639,-0.85,1644844368.0,P08,D02,1,1,1
2640,-1.02,1644844368.015625,P08,D02,1,1,1
2641,-1.07,1644844368.03125,P08,D02,1,1,1
2642,-0.95,1644844368.046875,P08,D02,1,1,1
2643,-0.64,1644844368.0625,P08,D02,1,1,1
2644,-0.19,1644844368.078125,P08,D02,1,1,1
2645,0.32,1644844368.09375,P08,D02,1,1,1
2646,0.77,1644844368.109375,P08,D02,1,1,1
2647,1.01,1644844368.125,P08,D02,1,1,1
2648,0.97,1644844368.140625,P08,D02,1,1,1
2649,0.65,1644844368.15625,P08,D02,1,1,1
2650,0.21,1644844368.171875,P08,D02,1,1,1
2651,-0.2,1644844368.1875,P08,D02,1,1,1
2652,-0.42,1644844368.203125,P08,D02,1,1,1
2653,-0.42,1644844368.21875,P08,D02,1,1,1
2654,-0.26,1644844368.234375,P08,D02,1,1,1
2655,-0.08,1644844368.25,P08,D02,1,1,1
2656,0.01,1644844368.265625,P08,D02,1,1,1
2657,-0.01,1644844368.28125,P08,D02,1,1,1
2658,-0.09,1644844368.296875,P08,D02,1,1,1
2659,-0.14,1644844368.3125,P08,D02,1,1,1
2660,-0.11,1644844368.328125,P08,D02,1,1,1
2661,-0.01,1644844368.34375,P08,D02,1,1,1
2662,0.12,1644844368.359375,P08,D02,1,1,1
2663,0.23,1644844368.375,P08,D02,1,1,1
2664,0.28,1644844368.390625,P08,D02,1,1,1
2665,0.29,1644844368.40625,P08,D02,1,1,1
2666,0.28,1644844368.421875,P08,D02,1,1,1
2667,0.24,1644844368.4375,P08,D02,1,1,1
2668,0.2,1644844368.453125,P08,D02,1,1,1
2669,0.14,1644844368.46875,P08,D02,1,1,1
2670,0.07,1644844368.484375,P08,D02,1,1,1
2671,-0.02,1644844368.5,P08,D02,1,1,1
2672,-0.13,1644844368.515625,P08,D02,1,1,1
2673,-0.27,1644844368.53125,P08,D02,1,1,1
2674,-0.44,1644844368.546875,P08,D02,1,1,1
2675,-0.64,1644844368.5625,P08,D02,1,1,1
2676,-0.82,1644844368.578125,P08,D02,1,1,1
2677,-0.94,1644844368.59375,P08,D02,1,1,1
2678,-0.96,1644844368.609375,P08,D02,1,1,1
2679,-0.84,1644844368.625,P08,D02,1,1,1
2680,-0.58,1644844368.640625,P08,D02,1,1,1
2681,-0.21,1644844368.65625,P08,D02,1,1,1
2682,0.22,1644844368.671875,P08,D02,1,1,1
2683,0.63,1644844368.6875,P08,D02,1,1,1
2684,0.93,1644844368.703125,P08,D02,1,1,1
2685,1.06,1644844368.71875,P08,D02,1,1,1
2686,0.99,1644844368.734375,P08,D02,1,1,1
2687,0.74,1644844368.75,P08,D02,1,1,1
2688,0.36,1644844368.765625,P08,D02,1,1,1
2689,-0.09,1644844368.78125,P08,D02,1,1,1
2690,-0.49,1644844368.796875,P08,D02,1,1,1
2691,-0.74,1644844368.8125,P08,D02,1,1,1
2692,-0.77,1644844368.828125,P08,D02,1,1,1
2693,-0.55,1644844368.84375,P08,D02,1,1,1
2694,-0.17,1644844368.859375,P08,D02,1,1,1
2695,0.25,1644844368.875,P08,D02,1,1,1
2696,0.58,1644844368.890625,P08,D02,1,1,1
2697,0.76,1644844368.90625,P08,D02,1,1,1
2698,0.81,1644844368.921875,P08,D02,1,1,1
2699,0.79,1644844368.9375,P08,D02,1,1,1
2700,0.74,1644844368.953125,P08,D02,1,1,1
2701,0.64,1644844368.96875,P08,D02,1,1,1
2702,0.45,1644844368.984375,P08,D02,1,1,1
2703,0.12,1644844369.0,P08,D02,1,1,1
2704,-0.31,1644844369.015625,P08,D02,1,1,1
2705,-0.72,1644844369.03125,P08,D02,1,1,1
2706,-0.96,1644844369.046875,P08,D02,1,1,1
2707,-0.94,1644844369.0625,P08,D02,1,1,1
2708,-0.65,1644844369.078125,P08,D02,1,1,1
2709,-0.22,1644844369.09375,P08,D02,1,1,1
2710,0.2,1644844369.109375,P08,D02,1,1,1
2711,0.43,1644844369.125,P08,D02,1,1,1
2712,0.4,1644844369.140625,P08,D02,1,1,1
2713,0.14,1644844369.15625,P08,D02,1,1,1
2714,-0.23,1644844369.171875,P08,D02,1,1,1
2715,-0.58,1644844369.1875,P08,D02,1,1,1
2716,-0.78,1644844369.203125,P08,D02,1,1,1
2717,-0.81,1644844369.21875,P08,D02,1,1,1
2718,-0.7,1644844369.234375,P08,D02,1,1,1
2719,-0.53,1644844369.25,P08,D02,1,1,1
2720,-0.37,1644844369.265625,P08,D02,1,1,1
2721,-0.27,1644844369.28125,P08,D02,1,1,1
2722,-0.23,1644844369.296875,P08,D02,1,1,1
2723,-0.21,1644844369.3125,P08,D02,1,1,1
2724,-0.18,1644844369.328125,P08,D02,1,1,1
2725,-0.14,1644844369.34375,P08,D02,1,1,1
2726,-0.07,1644844369.359375,P08,D02,1,1,1
2727,0.03,1644844369.375,P08,D02,1,1,1
2728,0.15,1644844369.390625,P08,D02,1,1,1
2729,0.29,1644844369.40625,P08,D02,1,1,1
2730,0.45,1644844369.421875,P08,D02,1,1,1
2731,0.58,1644844369.4375,P08,D02,1,1,1
2732,0.62,1644844369.453125,P08,D02,1,1,1
2733,0.52,1644844369.46875,P08,D02,1,1,1
2734,0.25,1644844369.484375,P08,D02,1,1,1
2735,-0.13,1644844369.5,P08,D02,1,1,1
2736,-0.46,1644844369.515625,P08,D02,1,1,1
2737,-0.6,1644844369.53125,P08,D02,1,1,1
2738,-0.45,1644844369.546875,P08,D02,1,1,1
2739,-0.0,1644844369.5625,P08,D02,1,1,1
2740,0.61,1644844369.578125,P08,D02,1,1,1
2741,1.18,1644844369.59375,P08,D02,1,1,1
2742,1.51,1644844369.609375,P08,D02,1,1,1
2743,1.49,1644844369.625,P08,D02,1,1,1
2744,1.15,1644844369.640625,P08,D02,1,1,1
2745,0.57,1644844369.65625,P08,D02,1,1,1
2746,-0.06,1644844369.671875,P08,D02,1,1,1
2747,-0.62,1644844369.6875,P08,D02,1,1,1
2748,-1.0,1644844369.703125,P08,D02,1,1,1
2749,-1.15,1644844369.71875,P08,D02,1,1,1
2750,-1.08,1644844369.734375,P08,D02,1,1,1
2751,-0.8,1644844369.75,P08,D02,1,1,1
2752,-0.37,1644844369.765625,P08,D02,1,1,1
2753,0.12,1644844369.78125,P08,D02,1,1,1
2754,0.59,1644844369.796875,P08,D02,1,1,1
2755,0.94,1644844369.8125,P08,D02,1,1,1
2756,1.09,1644844369.828125,P08,D02,1,1,1
2757,0.97,1644844369.84375,P08,D02,1,1,1
2758,0.61,1644844369.859375,P08,D02,1,1,1
2759,0.11,1644844369.875,P08,D02,1,1,1
2760,-0.39,1644844369.890625,P08,D02,1,1,1
2761,-0.75,1644844369.90625,P08,D02,1,1,1
2762,-0.9,1644844369.921875,P08,D02,1,1,1
2763,-0.87,1644844369.9375,P08,D02,1,1,1
2764,-0.78,1644844369.953125,P08,D02,1,1,1
2765,-0.68,1644844369.96875,P08,D02,1,1,1
2766,-0.59,1644844369.984375,P08,D02,1,1,1
2767,-0.47,1644844370.0,P08,D02,1,1,1
2768,-0.24,1644844370.015625,P08,D02,1,1,1
2769,0.1,1644844370.03125,P08,D02,1,1,1
2770,0.45,1644844370.046875,P08,D02,1,1,1
2771,0.69,1644844370.0625,P08,D02,1,1,1
2772,0.73,1644844370.078125,P08,D02,1,1,1
2773,0.58,1644844370.09375,P08,D02,1,1,1
2774,0.39,1644844370.109375,P08,D02,1,1,1
2775,0.31,1644844370.125,P08,D02,1,1,1
2776,0.41,1644844370.140625,P08,D02,1,1,1
2777,0.61,1644844370.15625,P08,D02,1,1,1
2778,0.78,1644844370.171875,P08,D02,1,1,1
2779,0.78,1644844370.1875,P08,D02,1,1,1
2780,0.61,1644844370.203125,P08,D02,1,1,1
2781,0.35,1644844370.21875,P08,D02,1,1,1
2782,0.11,1644844370.234375,P08,D02,1,1,1
2783,-0.04,1644844370.25,P08,D02,1,1,1
2784,-0.14,1644844370.265625,P08,D02,1,1,1
2785,-0.26,1644844370.28125,P08,D02,1,1,1
2786,-0.46,1644844370.296875,P08,D02,1,1,1
2787,-0.7,1644844370.3125,P08,D02,1,1,1
2788,-0.87,1644844370.328125,P08,D02,1,1,1
2789,-0.85,1644844370.34375,P08,D02,1,1,1
2790,-0.59,1644844370.359375,P08,D02,1,1,1
2791,-0.16,1644844370.375,P08,D02,1,1,1
2792,0.3,1644844370.390625,P08,D02,1,1,1
2793,0.62,1644844370.40625,P08,D02,1,1,1
2794,0.7,1644844370.421875,P08,D02,1,1,1
2795,0.53,1644844370.4375,P08,D02,1,1,1
2796,0.21,1644844370.453125,P08,D02,1,1,1
2797,-0.14,1644844370.46875,P08,D02,1,1,1
2798,-0.37,1644844370.484375,P08,D02,1,1,1
2799,-0.39,1644844370.5,P08,D02,1,1,1
2800,-0.21,1644844370.515625,P08,D02,1,1,1
2801,0.13,1644844370.53125,P08,D02,1,1,1
2802,0.52,1644844370.546875,P08,D02,1,1,1
2803,0.86,1644844370.5625,P08,D02,1,1,1
2804,1.11,1644844370.578125,P08,D02,1,1,1
2805,1.22,1644844370.59375,P08,D02,1,1,1
2806,1.17,1644844370.609375,P08,D02,1,1,1
2807,0.97,1644844370.625,P08,D02,1,1,1
2808,0.6,1644844370.640625,P08,D02,1,1,1
2809,0.11,1644844370.65625,P08,D02,1,1,1
2810,-0.41,1644844370.671875,P08,D02,1,1,1
2811,-0.85,1644844370.6875,P08,D02,1,1,1
2812,-1.06,1644844370.703125,P08,D02,1,1,1
2813,-0.99,1644844370.71875,P08,D02,1,1,1
2814,-0.67,1644844370.734375,P08,D02,1,1,1
2815,-0.2,1644844370.75,P08,D02,1,1,1
2816,0.25,1644844370.765625,P08,D02,1,1,1
2817,0.58,1644844370.78125,P08,D02,1,1,1
2818,0.72,1644844370.796875,P08,D02,1,1,1
2819,0.68,1644844370.8125,P08,D02,1,1,1
2820,0.53,1644844370.828125,P08,D02,1,1,1
2821,0.34,1644844370.84375,P08,D02,1,1,1
2822,0.17,1644844370.859375,P08,D02,1,1,1
2823,0.01,1644844370.875,P08,D02,1,1,1
2824,-0.13,1644844370.890625,P08,D02,1,1,1
2825,-0.3,1644844370.90625,P08,D02,1,1,1
2826,-0.45,1644844370.921875,P08,D02,1,1,1
2827,-0.53,1644844370.9375,P08,D02,1,1,1
2828,-0.48,1644844370.953125,P08,D02,1,1,1
2829,-0.27,1644844370.96875,P08,D02,1,1,1
2830,0.06,1644844370.984375,P08,D02,1,1,1
2831,0.42,1644844371.0,P08,D02,1,1,1
2832,0.68,1644844371.015625,P08,D02,1,1,1
2833,0.78,1644844371.03125,P08,D02,1,1,1
2834,0.73,1644844371.046875,P08,D02,1,1,1
2835,0.59,1644844371.0625,P08,D02,1,1,1
2836,0.43,1644844371.078125,P08,D02,1,1,1
2837,0.29,1644844371.09375,P08,D02,1,1,1
2838,0.1,1644844371.109375,P08,D02,1,1,1
2839,-0.17,1644844371.125,P08,D02,1,1,1
2840,-0.54,1644844371.140625,P08,D02,1,1,1
2841,-0.91,1644844371.15625,P08,D02,1,1,1
2842,-1.18,1644844371.171875,P08,D02,1,1,1
2843,-1.25,1644844371.1875,P08,D02,1,1,1
2844,-1.14,1644844371.203125,P08,D02,1,1,1
2845,-0.92,1644844371.21875,P08,D02,1,1,1
2846,-0.68,1644844371.234375,P08,D02,1,1,1
2847,-0.49,1644844371.25,P08,D02,1,1,1
2848,-0.35,1644844371.265625,P08,D02,1,1,1
2849,-0.23,1644844371.28125,P08,D02,1,1,1
2850,-0.12,1644844371.296875,P08,D02,1,1,1
2851,-0.05,1644844371.3125,P08,D02,1,1,1
2852,-0.06,1644844371.328125,P08,D02,1,1,1
2853,-0.15,1644844371.34375,P08,D02,1,1,1
2854,-0.26,1644844371.359375,P08,D02,1,1,1
2855,-0.32,1644844371.375,P08,D02,1,1,1
2856,-0.25,1644844371.390625,P08,D02,1,1,1
2857,-0.08,1644844371.40625,P08,D02,1,1,1
2858,0.11,1644844371.421875,P08,D02,1,1,1
2859,0.23,1644844371.4375,P08,D02,1,1,1
2860,0.2,1644844371.453125,P08,D02,1,1,1
2861,0.04,1644844371.46875,P08,D02,1,1,1
2862,-0.19,1644844371.484375,P08,D02,1,1,1
2863,-0.42,1644844371.5,P08,D02,1,1,1
2864,-0.6,1644844371.515625,P08,D02,1,1,1
2865,-0.72,1644844371.53125,P08,D02,1,1,1
2866,-0.79,1644844371.546875,P08,D02,1,1,1
2867,-0.84,1644844371.5625,P08,D02,1,1,1
2868,-0.85,1644844371.578125,P08,D02,1,1,1
2869,-0.82,1644844371.59375,P08,D02,1,1,1
2870,-0.74,1644844371.609375,P08,D02,1,1,1
2871,-0.6,1644844371.625,P08,D02,1,1,1
2872,-0.38,1644844371.640625,P08,D02,1,1,1
2873,-0.08,1644844371.65625,P08,D02,1,1,1
2874,0.27,1644844371.671875,P08,D02,1,1,1
2875,0.63,1644844371.6875,P08,D02,1,1,1
2876,0.94,1644844371.703125,P08,D02,1,1,1
2877,1.15,1644844371.71875,P08,D02,1,1,1
2878,1.24,1644844371.734375,P08,D02,1,1,1
2879,1.21,1644844371.75,P08,D02,1,1,1
2880,1.09,1644844371.765625,P08,D02,1,1,1
2881,0.87,1644844371.78125,P08,D02,1,1,1
2882,0.56,1644844371.796875,P08,D02,1,1,1
2883,0.19,1644844371.8125,P08,D02,1,1,1
2884,-0.2,1644844371.828125,P08,D02,1,1,1
2885,-0.52,1644844371.84375,P08,D02,1,1,1
2886,-0.7,1644844371.859375,P08,D02,1,1,1
2887,-0.7,1644844371.875,P08,D02,1,1,1
2888,-0.59,1644844371.890625,P08,D02,1,1,1
2889,-0.47,1644844371.90625,P08,D02,1,1,1
2890,-0.44,1644844371.921875,P08,D02,1,1,1
2891,-0.54,1644844371.9375,P08,D02,1,1,1
2892,-0.77,1644844371.953125,P08,D02,1,1,1
2893,-1.05,1644844371.96875,P08,D02,1,1,1
2894,-1.29,1644844371.984375,P08,D02,1,1,1
2895,-1.42,1644844372.0,P08,D02,1,1,1
2896,-1.36,1644844372.015625,P08,D02,1,1,1
2897,-1.12,1644844372.03125,P08,D02,1,1,1
2898,-0.7,1644844372.046875,P08,D02,1,1,1
2899,-0.19,1644844372.0625,P08,D02,1,1,1
2900,0.31,1644844372.078125,P08,D02,1,1,1
2901,0.72,1644844372.09375,P08,D02,1,1,1
2902,0.99,1644844372.109375,P08,D02,1,1,1
2903,1.09,1644844372.125,P08,D02,1,1,1
2904,1.08,1644844372.140625,P08,D02,1,1,1
2905,1.0,1644844372.15625,P08,D02,1,1,1
2906,0.9,1644844372.171875,P08,D02,1,1,1
2907,0.82,1644844372.1875,P08,D02,1,1,1
2908,0.78,1644844372.203125,P08,D02,1,1,1
2909,0.78,1644844372.21875,P08,D02,1,1,1
2910,0.83,1644844372.234375,P08,D02,1,1,1
2911,0.87,1644844372.25,P08,D02,1,1,1
2912,0.86,1644844372.265625,P08,D02,1,1,1
2913,0.77,1644844372.28125,P08,D02,1,1,1
2914,0.59,1644844372.296875,P08,D02,1,1,1
2915,0.38,1644844372.3125,P08,D02,1,1,1
2916,0.21,1644844372.328125,P08,D02,1,1,1
2917,0.12,1644844372.34375,P08,D02,1,1,1
2918,0.11,1644844372.359375,P08,D02,1,1,1
2919,0.12,1644844372.375,P08,D02,1,1,1
2920,0.11,1644844372.390625,P08,D02,1,1,1
2921,0.07,1644844372.40625,P08,D02,1,1,1
