,data,timestamp,participant,document,val,arou,eng
0,-0.22,1644846497.984375,P08,D11,1,0,0
1,-0.46,1644846498.0,P08,D11,1,0,0
2,-0.8,1644846498.015625,P08,D11,1,0,0
3,-1.19,1644846498.03125,P08,D11,1,0,0
4,-1.57,1644846498.046875,P08,D11,1,0,0
5,-1.84,1644846498.0625,P08,D11,1,0,0
6,-1.87,1644846498.078125,P08,D11,1,0,0
7,-1.59,1644846498.09375,P08,D11,1,0,0
8,-1.02,1644846498.109375,P08,D11,1,0,0
9,-0.29,1644846498.125,P08,D11,1,0,0
10,0.42,1644846498.140625,P08,D11,1,0,0
11,0.93,1644846498.15625,P08,D11,1,0,0
12,1.11,1644846498.171875,P08,D11,1,0,0
13,0.95,1644846498.1875,P08,D11,1,0,0
14,0.52,1644846498.203125,P08,D11,1,0,0
15,-0.06,1644846498.21875,P08,D11,1,0,0
16,-0.67,1644846498.234375,P08,D11,1,0,0
17,-1.21,1644846498.25,P08,D11,1,0,0
18,-1.62,1644846498.265625,P08,D11,1,0,0
19,-1.87,1644846498.28125,P08,D11,1,0,0
20,-1.91,1644846498.296875,P08,D11,1,0,0
21,-1.71,1644846498.3125,P08,D11,1,0,0
22,-1.3,1644846498.328125,P08,D11,1,0,0
23,-0.75,1644846498.34375,P08,D11,1,0,0
24,-0.18,1644846498.359375,P08,D11,1,0,0
25,0.32,1644846498.375,P08,D11,1,0,0
26,0.66,1644846498.390625,P08,D11,1,0,0
27,0.83,1644846498.40625,P08,D11,1,0,0
28,0.87,1644846498.421875,P08,D11,1,0,0
29,0.85,1644846498.4375,P08,D11,1,0,0
30,0.83,1644846498.453125,P08,D11,1,0,0
31,0.8,1644846498.46875,P08,D11,1,0,0
32,0.73,1644846498.484375,P08,D11,1,0,0
33,0.59,1644846498.5,P08,D11,1,0,0
34,0.31,1644846498.515625,P08,D11,1,0,0
35,-0.1,1644846498.53125,P08,D11,1,0,0
36,-0.63,1644846498.546875,P08,D11,1,0,0
37,-1.21,1644846498.5625,P08,D11,1,0,0
38,-1.75,1644846498.578125,P08,D11,1,0,0
39,-2.17,1644846498.59375,P08,D11,1,0,0
40,-2.42,1644846498.609375,P08,D11,1,0,0
41,-2.48,1644846498.625,P08,D11,1,0,0
42,-2.39,1644846498.640625,P08,D11,1,0,0
43,-2.23,1644846498.65625,P08,D11,1,0,0
44,-2.05,1644846498.671875,P08,D11,1,0,0
45,-1.89,1644846498.6875,P08,D11,1,0,0
46,-1.72,1644846498.703125,P08,D11,1,0,0
47,-1.5,1644846498.71875,P08,D11,1,0,0
48,-1.19,1644846498.734375,P08,D11,1,0,0
49,-0.81,1644846498.75,P08,D11,1,0,0
50,-0.41,1644846498.765625,P08,D11,1,0,0
51,-0.04,1644846498.78125,P08,D11,1,0,0
52,0.24,1644846498.796875,P08,D11,1,0,0
53,0.38,1644846498.8125,P08,D11,1,0,0
54,0.39,1644846498.828125,P08,D11,1,0,0
55,0.31,1644846498.84375,P08,D11,1,0,0
56,0.17,1644846498.859375,P08,D11,1,0,0
57,0.05,1644846498.875,P08,D11,1,0,0
58,0.02,1644846498.890625,P08,D11,1,0,0
59,0.14,1644846498.90625,P08,D11,1,0,0
60,0.41,1644846498.921875,P08,D11,1,0,0
61,0.78,1644846498.9375,P08,D11,1,0,0
62,1.16,1644846498.953125,P08,D11,1,0,0
63,1.4,1644846498.96875,P08,D11,1,0,0
64,1.4,1644846498.984375,P08,D11,1,0,0
65,1.06,1644846499.0,P08,D11,1,0,0
66,0.41,1644846499.015625,P08,D11,1,0,0
67,-0.48,1644846499.03125,P08,D11,1,0,0
68,-1.53,1644846499.046875,P08,D11,1,0,0
69,-2.58,1644846499.0625,P08,D11,1,0,0
70,-3.53,1644846499.078125,P08,D11,1,0,0
71,-4.25,1644846499.09375,P08,D11,1,0,0
72,-4.67,1644846499.109375,P08,D11,1,0,0
73,-4.75,1644846499.125,P08,D11,1,0,0
74,-4.53,1644846499.140625,P08,D11,1,0,0
75,-4.1,1644846499.15625,P08,D11,1,0,0
76,-3.61,1644846499.171875,P08,D11,1,0,0
77,-3.18,1644846499.1875,P08,D11,1,0,0
78,-2.88,1644846499.203125,P08,D11,1,0,0
79,-2.66,1644846499.21875,P08,D11,1,0,0
80,-2.46,1644846499.234375,P08,D11,1,0,0
81,-2.14,1644846499.25,P08,D11,1,0,0
82,-1.64,1644846499.265625,P08,D11,1,0,0
83,-0.96,1644846499.28125,P08,D11,1,0,0
84,-0.2,1644846499.296875,P08,D11,1,0,0
85,0.54,1644846499.3125,P08,D11,1,0,0
86,1.13,1644846499.328125,P08,D11,1,0,0
87,1.54,1644846499.34375,P08,D11,1,0,0
88,1.8,1644846499.359375,P08,D11,1,0,0
89,2.01,1644846499.375,P08,D11,1,0,0
90,2.26,1644846499.390625,P08,D11,1,0,0
91,2.62,1644846499.40625,P08,D11,1,0,0
92,3.12,1644846499.421875,P08,D11,1,0,0
93,3.71,1644846499.4375,P08,D11,1,0,0
94,4.3,1644846499.453125,P08,D11,1,0,0
95,4.75,1644846499.46875,P08,D11,1,0,0
96,4.95,1644846499.484375,P08,D11,1,0,0
97,4.84,1644846499.5,P08,D11,1,0,0
98,4.43,1644846499.515625,P08,D11,1,0,0
99,3.85,1644846499.53125,P08,D11,1,0,0
100,3.27,1644846499.546875,P08,D11,1,0,0
101,2.81,1644846499.5625,P08,D11,1,0,0
102,2.5,1644846499.578125,P08,D11,1,0,0
103,2.25,1644846499.59375,P08,D11,1,0,0
104,1.91,1644846499.609375,P08,D11,1,0,0
105,1.38,1644846499.625,P08,D11,1,0,0
106,0.71,1644846499.640625,P08,D11,1,0,0
107,0.08,1644846499.65625,P08,D11,1,0,0
108,-0.27,1644846499.671875,P08,D11,1,0,0
109,-0.19,1644846499.6875,P08,D11,1,0,0
110,0.29,1644846499.703125,P08,D11,1,0,0
111,0.99,1644846499.71875,P08,D11,1,0,0
112,1.67,1644846499.734375,P08,D11,1,0,0
113,2.16,1644846499.75,P08,D11,1,0,0
114,2.43,1644846499.765625,P08,D11,1,0,0
115,2.59,1644846499.78125,P08,D11,1,0,0
116,2.76,1644846499.796875,P08,D11,1,0,0
117,3.01,1644846499.8125,P08,D11,1,0,0
118,3.26,1644846499.828125,P08,D11,1,0,0
119,3.38,1644846499.84375,P08,D11,1,0,0
120,3.2,1644846499.859375,P08,D11,1,0,0
121,2.66,1644846499.875,P08,D11,1,0,0
122,1.8,1644846499.890625,P08,D11,1,0,0
123,0.76,1644846499.90625,P08,D11,1,0,0
124,-0.28,1644846499.921875,P08,D11,1,0,0
125,-1.17,1644846499.9375,P08,D11,1,0,0
126,-1.82,1644846499.953125,P08,D11,1,0,0
127,-2.22,1644846499.96875,P08,D11,1,0,0
128,-2.34,1644846499.984375,P08,D11,1,0,0
129,-2.19,1644846500.0,P08,D11,1,0,0
130,-1.78,1644846500.015625,P08,D11,1,0,0
131,-1.18,1644846500.03125,P08,D11,1,0,0
132,-0.5,1644846500.046875,P08,D11,1,0,0
133,0.07,1644846500.0625,P08,D11,1,0,0
134,0.34,1644846500.078125,P08,D11,1,0,0
135,0.2,1644846500.09375,P08,D11,1,0,0
136,-0.3,1644846500.109375,P08,D11,1,0,0
137,-0.96,1644846500.125,P08,D11,1,0,0
138,-1.51,1644846500.140625,P08,D11,1,0,0
139,-1.74,1644846500.15625,P08,D11,1,0,0
140,-1.6,1644846500.171875,P08,D11,1,0,0
141,-1.21,1644846500.1875,P08,D11,1,0,0
142,-0.78,1644846500.203125,P08,D11,1,0,0
143,-0.48,1644846500.21875,P08,D11,1,0,0
144,-0.34,1644846500.234375,P08,D11,1,0,0
145,-0.27,1644846500.25,P08,D11,1,0,0
146,-0.14,1644846500.265625,P08,D11,1,0,0
147,0.1,1644846500.28125,P08,D11,1,0,0
148,0.38,1644846500.296875,P08,D11,1,0,0
149,0.56,1644846500.3125,P08,D11,1,0,0
150,0.51,1644846500.328125,P08,D11,1,0,0
151,0.18,1644846500.34375,P08,D11,1,0,0
152,-0.37,1644846500.359375,P08,D11,1,0,0
153,-1.0,1644846500.375,P08,D11,1,0,0
154,-1.55,1644846500.390625,P08,D11,1,0,0
155,-1.92,1644846500.40625,P08,D11,1,0,0
156,-2.05,1644846500.421875,P08,D11,1,0,0
157,-1.95,1644846500.4375,P08,D11,1,0,0
158,-1.71,1644846500.453125,P08,D11,1,0,0
159,-1.4,1644846500.46875,P08,D11,1,0,0
160,-1.09,1644846500.484375,P08,D11,1,0,0
161,-0.8,1644846500.5,P08,D11,1,0,0
162,-0.52,1644846500.515625,P08,D11,1,0,0
163,-0.21,1644846500.53125,P08,D11,1,0,0
164,0.12,1644846500.546875,P08,D11,1,0,0
165,0.44,1644846500.5625,P08,D11,1,0,0
166,0.7,1644846500.578125,P08,D11,1,0,0
167,0.83,1644846500.59375,P08,D11,1,0,0
168,0.78,1644846500.609375,P08,D11,1,0,0
169,0.57,1644846500.625,P08,D11,1,0,0
170,0.24,1644846500.640625,P08,D11,1,0,0
171,-0.14,1644846500.65625,P08,D11,1,0,0
172,-0.49,1644846500.671875,P08,D11,1,0,0
173,-0.68,1644846500.6875,P08,D11,1,0,0
174,-0.68,1644846500.703125,P08,D11,1,0,0
175,-0.49,1644846500.71875,P08,D11,1,0,0
176,-0.19,1644846500.734375,P08,D11,1,0,0
177,0.09,1644846500.75,P08,D11,1,0,0
178,0.23,1644846500.765625,P08,D11,1,0,0
179,0.2,1644846500.78125,P08,D11,1,0,0
180,0.03,1644846500.796875,P08,D11,1,0,0
181,-0.19,1644846500.8125,P08,D11,1,0,0
182,-0.38,1644846500.828125,P08,D11,1,0,0
183,-0.51,1644846500.84375,P08,D11,1,0,0
184,-0.63,1644846500.859375,P08,D11,1,0,0
185,-0.76,1644846500.875,P08,D11,1,0,0
186,-0.91,1644846500.890625,P08,D11,1,0,0
187,-1.06,1644846500.90625,P08,D11,1,0,0
188,-1.18,1644846500.921875,P08,D11,1,0,0
189,-1.25,1644846500.9375,P08,D11,1,0,0
190,-1.31,1644846500.953125,P08,D11,1,0,0
191,-1.38,1644846500.96875,P08,D11,1,0,0
192,-1.48,1644846500.984375,P08,D11,1,0,0
193,-1.56,1644846501.0,P08,D11,1,0,0
194,-1.57,1644846501.015625,P08,D11,1,0,0
195,-1.45,1644846501.03125,P08,D11,1,0,0
196,-1.18,1644846501.046875,P08,D11,1,0,0
197,-0.8,1644846501.0625,P08,D11,1,0,0
198,-0.4,1644846501.078125,P08,D11,1,0,0
199,-0.07,1644846501.09375,P08,D11,1,0,0
200,0.14,1644846501.109375,P08,D11,1,0,0
201,0.22,1644846501.125,P08,D11,1,0,0
202,0.23,1644846501.140625,P08,D11,1,0,0
203,0.22,1644846501.15625,P08,D11,1,0,0
204,0.25,1644846501.171875,P08,D11,1,0,0
205,0.33,1644846501.1875,P08,D11,1,0,0
206,0.44,1644846501.203125,P08,D11,1,0,0
207,0.55,1644846501.21875,P08,D11,1,0,0
208,0.66,1644846501.234375,P08,D11,1,0,0
209,0.79,1644846501.25,P08,D11,1,0,0
210,0.94,1644846501.265625,P08,D11,1,0,0
211,1.11,1644846501.28125,P08,D11,1,0,0
212,1.27,1644846501.296875,P08,D11,1,0,0
213,1.38,1644846501.3125,P08,D11,1,0,0
214,1.42,1644846501.328125,P08,D11,1,0,0
215,1.38,1644846501.34375,P08,D11,1,0,0
216,1.28,1644846501.359375,P08,D11,1,0,0
217,1.12,1644846501.375,P08,D11,1,0,0
218,0.95,1644846501.390625,P08,D11,1,0,0
219,0.79,1644846501.40625,P08,D11,1,0,0
220,0.63,1644846501.421875,P08,D11,1,0,0
221,0.48,1644846501.4375,P08,D11,1,0,0
222,0.35,1644846501.453125,P08,D11,1,0,0
223,0.21,1644846501.46875,P08,D11,1,0,0
224,0.09,1644846501.484375,P08,D11,1,0,0
225,-0.02,1644846501.5,P08,D11,1,0,0
226,-0.08,1644846501.515625,P08,D11,1,0,0
227,-0.08,1644846501.53125,P08,D11,1,0,0
228,-0.01,1644846501.546875,P08,D11,1,0,0
229,0.09,1644846501.5625,P08,D11,1,0,0
230,0.16,1644846501.578125,P08,D11,1,0,0
231,0.14,1644846501.59375,P08,D11,1,0,0
232,0.01,1644846501.609375,P08,D11,1,0,0
233,-0.21,1644846501.625,P08,D11,1,0,0
234,-0.47,1644846501.640625,P08,D11,1,0,0
235,-0.69,1644846501.65625,P08,D11,1,0,0
236,-0.83,1644846501.671875,P08,D11,1,0,0
237,-0.84,1644846501.6875,P08,D11,1,0,0
238,-0.7,1644846501.703125,P08,D11,1,0,0
239,-0.42,1644846501.71875,P08,D11,1,0,0
240,-0.06,1644846501.734375,P08,D11,1,0,0
241,0.28,1644846501.75,P08,D11,1,0,0
242,0.49,1644846501.765625,P08,D11,1,0,0
243,0.5,1644846501.78125,P08,D11,1,0,0
244,0.31,1644846501.796875,P08,D11,1,0,0
245,0.0,1644846501.8125,P08,D11,1,0,0
246,-0.32,1644846501.828125,P08,D11,1,0,0
247,-0.56,1644846501.84375,P08,D11,1,0,0
248,-0.69,1644846501.859375,P08,D11,1,0,0
249,-0.75,1644846501.875,P08,D11,1,0,0
250,-0.78,1644846501.890625,P08,D11,1,0,0
251,-0.76,1644846501.90625,P08,D11,1,0,0
252,-0.67,1644846501.921875,P08,D11,1,0,0
253,-0.47,1644846501.9375,P08,D11,1,0,0
254,-0.17,1644846501.953125,P08,D11,1,0,0
255,0.1,1644846501.96875,P08,D11,1,0,0
256,0.25,1644846501.984375,P08,D11,1,0,0
257,0.18,1644846502.0,P08,D11,1,0,0
258,-0.08,1644846502.015625,P08,D11,1,0,0
259,-0.4,1644846502.03125,P08,D11,1,0,0
260,-0.61,1644846502.046875,P08,D11,1,0,0
261,-0.57,1644846502.0625,P08,D11,1,0,0
262,-0.27,1644846502.078125,P08,D11,1,0,0
263,0.19,1644846502.09375,P08,D11,1,0,0
264,0.64,1644846502.109375,P08,D11,1,0,0
265,0.93,1644846502.125,P08,D11,1,0,0
266,0.96,1644846502.140625,P08,D11,1,0,0
267,0.75,1644846502.15625,P08,D11,1,0,0
268,0.4,1644846502.171875,P08,D11,1,0,0
269,0.06,1644846502.1875,P08,D11,1,0,0
270,-0.11,1644846502.203125,P08,D11,1,0,0
271,-0.04,1644846502.21875,P08,D11,1,0,0
272,0.27,1644846502.234375,P08,D11,1,0,0
273,0.69,1644846502.25,P08,D11,1,0,0
274,1.07,1644846502.265625,P08,D11,1,0,0
275,1.25,1644846502.28125,P08,D11,1,0,0
276,1.2,1644846502.296875,P08,D11,1,0,0
277,0.95,1644846502.3125,P08,D11,1,0,0
278,0.63,1644846502.328125,P08,D11,1,0,0
279,0.33,1644846502.34375,P08,D11,1,0,0
280,0.12,1644846502.359375,P08,D11,1,0,0
281,-0.01,1644846502.375,P08,D11,1,0,0
282,-0.07,1644846502.390625,P08,D11,1,0,0
283,-0.06,1644846502.40625,P08,D11,1,0,0
284,0.06,1644846502.421875,P08,D11,1,0,0
285,0.35,1644846502.4375,P08,D11,1,0,0
286,0.78,1644846502.453125,P08,D11,1,0,0
287,1.21,1644846502.46875,P08,D11,1,0,0
288,1.48,1644846502.484375,P08,D11,1,0,0
289,1.44,1644846502.5,P08,D11,1,0,0
290,1.1,1644846502.515625,P08,D11,1,0,0
291,0.56,1644846502.53125,P08,D11,1,0,0
292,0.05,1644846502.546875,P08,D11,1,0,0
293,-0.29,1644846502.5625,P08,D11,1,0,0
294,-0.38,1644846502.578125,P08,D11,1,0,0
295,-0.26,1644846502.59375,P08,D11,1,0,0
296,-0.02,1644846502.609375,P08,D11,1,0,0
297,0.25,1644846502.625,P08,D11,1,0,0
298,0.51,1644846502.640625,P08,D11,1,0,0
299,0.71,1644846502.65625,P08,D11,1,0,0
300,0.81,1644846502.671875,P08,D11,1,0,0
301,0.75,1644846502.6875,P08,D11,1,0,0
302,0.5,1644846502.703125,P08,D11,1,0,0
303,0.1,1644846502.71875,P08,D11,1,0,0
304,-0.33,1644846502.734375,P08,D11,1,0,0
305,-0.68,1644846502.75,P08,D11,1,0,0
306,-0.85,1644846502.765625,P08,D11,1,0,0
307,-0.83,1644846502.78125,P08,D11,1,0,0
308,-0.68,1644846502.796875,P08,D11,1,0,0
309,-0.49,1644846502.8125,P08,D11,1,0,0
310,-0.32,1644846502.828125,P08,D11,1,0,0
311,-0.19,1644846502.84375,P08,D11,1,0,0
312,-0.06,1644846502.859375,P08,D11,1,0,0
313,0.08,1644846502.875,P08,D11,1,0,0
314,0.26,1644846502.890625,P08,D11,1,0,0
315,0.46,1644846502.90625,P08,D11,1,0,0
316,0.62,1644846502.921875,P08,D11,1,0,0
317,0.69,1644846502.9375,P08,D11,1,0,0
318,0.64,1644846502.953125,P08,D11,1,0,0
319,0.48,1644846502.96875,P08,D11,1,0,0
320,0.25,1644846502.984375,P08,D11,1,0,0
321,-0.01,1644846503.0,P08,D11,1,0,0
322,-0.24,1644846503.015625,P08,D11,1,0,0
323,-0.39,1644846503.03125,P08,D11,1,0,0
324,-0.45,1644846503.046875,P08,D11,1,0,0
325,-0.42,1644846503.0625,P08,D11,1,0,0
326,-0.32,1644846503.078125,P08,D11,1,0,0
327,-0.17,1644846503.09375,P08,D11,1,0,0
328,-0.04,1644846503.109375,P08,D11,1,0,0
329,-0.01,1644846503.125,P08,D11,1,0,0
330,-0.14,1644846503.140625,P08,D11,1,0,0
331,-0.43,1644846503.15625,P08,D11,1,0,0
332,-0.82,1644846503.171875,P08,D11,1,0,0
333,-1.15,1644846503.1875,P08,D11,1,0,0
334,-1.27,1644846503.203125,P08,D11,1,0,0
335,-1.11,1644846503.21875,P08,D11,1,0,0
336,-0.71,1644846503.234375,P08,D11,1,0,0
337,-0.2,1644846503.25,P08,D11,1,0,0
338,0.25,1644846503.265625,P08,D11,1,0,0
339,0.54,1644846503.28125,P08,D11,1,0,0
340,0.67,1644846503.296875,P08,D11,1,0,0
341,0.68,1644846503.3125,P08,D11,1,0,0
342,0.63,1644846503.328125,P08,D11,1,0,0
343,0.53,1644846503.34375,P08,D11,1,0,0
344,0.38,1644846503.359375,P08,D11,1,0,0
345,0.16,1644846503.375,P08,D11,1,0,0
346,-0.11,1644846503.390625,P08,D11,1,0,0
347,-0.36,1644846503.40625,P08,D11,1,0,0
348,-0.5,1644846503.421875,P08,D11,1,0,0
349,-0.48,1644846503.4375,P08,D11,1,0,0
350,-0.33,1644846503.453125,P08,D11,1,0,0
351,-0.12,1644846503.46875,P08,D11,1,0,0
352,0.05,1644846503.484375,P08,D11,1,0,0
353,0.11,1644846503.5,P08,D11,1,0,0
354,0.05,1644846503.515625,P08,D11,1,0,0
355,-0.1,1644846503.53125,P08,D11,1,0,0
356,-0.3,1644846503.546875,P08,D11,1,0,0
357,-0.53,1644846503.5625,P08,D11,1,0,0
358,-0.76,1644846503.578125,P08,D11,1,0,0
359,-0.98,1644846503.59375,P08,D11,1,0,0
360,-1.14,1644846503.609375,P08,D11,1,0,0
361,-1.21,1644846503.625,P08,D11,1,0,0
362,-1.16,1644846503.640625,P08,D11,1,0,0
363,-1.02,1644846503.65625,P08,D11,1,0,0
364,-0.85,1644846503.671875,P08,D11,1,0,0
365,-0.71,1644846503.6875,P08,D11,1,0,0
366,-0.64,1644846503.703125,P08,D11,1,0,0
367,-0.64,1644846503.71875,P08,D11,1,0,0
368,-0.65,1644846503.734375,P08,D11,1,0,0
369,-0.64,1644846503.75,P08,D11,1,0,0
370,-0.55,1644846503.765625,P08,D11,1,0,0
371,-0.41,1644846503.78125,P08,D11,1,0,0
372,-0.24,1644846503.796875,P08,D11,1,0,0
373,-0.13,1644846503.8125,P08,D11,1,0,0
374,-0.13,1644846503.828125,P08,D11,1,0,0
375,-0.26,1644846503.84375,P08,D11,1,0,0
376,-0.47,1644846503.859375,P08,D11,1,0,0
377,-0.65,1644846503.875,P08,D11,1,0,0
378,-0.69,1644846503.890625,P08,D11,1,0,0
379,-0.55,1644846503.90625,P08,D11,1,0,0
380,-0.25,1644846503.921875,P08,D11,1,0,0
381,0.09,1644846503.9375,P08,D11,1,0,0
382,0.35,1644846503.953125,P08,D11,1,0,0
383,0.47,1644846503.96875,P08,D11,1,0,0
384,0.45,1644846503.984375,P08,D11,1,0,0
385,0.38,1644846504.0,P08,D11,1,0,0
386,0.37,1644846504.015625,P08,D11,1,0,0
387,0.44,1644846504.03125,P08,D11,1,0,0
388,0.54,1644846504.046875,P08,D11,1,0,0
389,0.6,1644846504.0625,P08,D11,1,0,0
390,0.58,1644846504.078125,P08,D11,1,0,0
391,0.49,1644846504.09375,P08,D11,1,0,0
392,0.4,1644846504.109375,P08,D11,1,0,0
393,0.35,1644846504.125,P08,D11,1,0,0
394,0.37,1644846504.140625,P08,D11,1,0,0
395,0.39,1644846504.15625,P08,D11,1,0,0
396,0.38,1644846504.171875,P08,D11,1,0,0
397,0.31,1644846504.1875,P08,D11,1,0,0
398,0.22,1644846504.203125,P08,D11,1,0,0
399,0.12,1644846504.21875,P08,D11,1,0,0
400,0.02,1644846504.234375,P08,D11,1,0,0
401,-0.16,1644846504.25,P08,D11,1,0,0
402,-0.51,1644846504.265625,P08,D11,1,0,0
403,-1.06,1644846504.28125,P08,D11,1,0,0
404,-1.71,1644846504.296875,P08,D11,1,0,0
405,-2.28,1644846504.3125,P08,D11,1,0,0
406,-2.52,1644846504.328125,P08,D11,1,0,0
407,-2.28,1644846504.34375,P08,D11,1,0,0
408,-1.59,1644846504.359375,P08,D11,1,0,0
409,-0.65,1644846504.375,P08,D11,1,0,0
410,0.29,1644846504.390625,P08,D11,1,0,0
411,1.01,1644846504.40625,P08,D11,1,0,0
412,1.42,1644846504.421875,P08,D11,1,0,0
413,1.6,1644846504.4375,P08,D11,1,0,0
414,1.69,1644846504.453125,P08,D11,1,0,0
415,1.81,1644846504.46875,P08,D11,1,0,0
416,1.96,1644846504.484375,P08,D11,1,0,0
417,2.06,1644846504.5,P08,D11,1,0,0
418,2.0,1644846504.515625,P08,D11,1,0,0
419,1.71,1644846504.53125,P08,D11,1,0,0
420,1.26,1644846504.546875,P08,D11,1,0,0
421,0.79,1644846504.5625,P08,D11,1,0,0
422,0.48,1644846504.578125,P08,D11,1,0,0
423,0.41,1644846504.59375,P08,D11,1,0,0
424,0.56,1644846504.609375,P08,D11,1,0,0
425,0.78,1644846504.625,P08,D11,1,0,0
426,0.95,1644846504.640625,P08,D11,1,0,0
427,1.0,1644846504.65625,P08,D11,1,0,0
428,0.97,1644846504.671875,P08,D11,1,0,0
429,0.98,1644846504.6875,P08,D11,1,0,0
430,1.1,1644846504.703125,P08,D11,1,0,0
431,1.3,1644846504.71875,P08,D11,1,0,0
432,1.43,1644846504.734375,P08,D11,1,0,0
433,1.34,1644846504.75,P08,D11,1,0,0
434,0.93,1644846504.765625,P08,D11,1,0,0
435,0.27,1644846504.78125,P08,D11,1,0,0
436,-0.45,1644846504.796875,P08,D11,1,0,0
437,-1.02,1644846504.8125,P08,D11,1,0,0
438,-1.28,1644846504.828125,P08,D11,1,0,0
439,-1.23,1644846504.84375,P08,D11,1,0,0
440,-1.0,1644846504.859375,P08,D11,1,0,0
441,-0.72,1644846504.875,P08,D11,1,0,0
442,-0.51,1644846504.890625,P08,D11,1,0,0
443,-0.38,1644846504.90625,P08,D11,1,0,0
444,-0.32,1644846504.921875,P08,D11,1,0,0
445,-0.3,1644846504.9375,P08,D11,1,0,0
446,-0.32,1644846504.953125,P08,D11,1,0,0
447,-0.42,1644846504.96875,P08,D11,1,0,0
448,-0.59,1644846504.984375,P08,D11,1,0,0
449,-0.82,1644846505.0,P08,D11,1,0,0
450,-1.04,1644846505.015625,P08,D11,1,0,0
451,-1.17,1644846505.03125,P08,D11,1,0,0
452,-1.15,1644846505.046875,P08,D11,1,0,0
453,-0.97,1644846505.0625,P08,D11,1,0,0
454,-0.67,1644846505.078125,P08,D11,1,0,0
455,-0.28,1644846505.09375,P08,D11,1,0,0
456,0.13,1644846505.109375,P08,D11,1,0,0
457,0.53,1644846505.125,P08,D11,1,0,0
458,0.85,1644846505.140625,P08,D11,1,0,0
459,1.06,1644846505.15625,P08,D11,1,0,0
460,1.13,1644846505.171875,P08,D11,1,0,0
461,1.07,1644846505.1875,P08,D11,1,0,0
462,0.92,1644846505.203125,P08,D11,1,0,0
463,0.78,1644846505.21875,P08,D11,1,0,0
464,0.71,1644846505.234375,P08,D11,1,0,0
465,0.76,1644846505.25,P08,D11,1,0,0
466,0.91,1644846505.265625,P08,D11,1,0,0
467,1.11,1644846505.28125,P08,D11,1,0,0
468,1.27,1644846505.296875,P08,D11,1,0,0
469,1.31,1644846505.3125,P08,D11,1,0,0
470,1.22,1644846505.328125,P08,D11,1,0,0
471,1.0,1644846505.34375,P08,D11,1,0,0
472,0.68,1644846505.359375,P08,D11,1,0,0
473,0.33,1644846505.375,P08,D11,1,0,0
474,0.03,1644846505.390625,P08,D11,1,0,0
475,-0.16,1644846505.40625,P08,D11,1,0,0
476,-0.19,1644846505.421875,P08,D11,1,0,0
477,-0.05,1644846505.4375,P08,D11,1,0,0
478,0.15,1644846505.453125,P08,D11,1,0,0
479,0.29,1644846505.46875,P08,D11,1,0,0
480,0.23,1644846505.484375,P08,D11,1,0,0
481,-0.11,1644846505.5,P08,D11,1,0,0
482,-0.7,1644846505.515625,P08,D11,1,0,0
483,-1.36,1644846505.53125,P08,D11,1,0,0
484,-1.9,1644846505.546875,P08,D11,1,0,0
485,-2.16,1644846505.5625,P08,D11,1,0,0
486,-2.08,1644846505.578125,P08,D11,1,0,0
487,-1.73,1644846505.59375,P08,D11,1,0,0
488,-1.23,1644846505.609375,P08,D11,1,0,0
489,-0.75,1644846505.625,P08,D11,1,0,0
490,-0.38,1644846505.640625,P08,D11,1,0,0
491,-0.15,1644846505.65625,P08,D11,1,0,0
492,-0.03,1644846505.671875,P08,D11,1,0,0
493,0.01,1644846505.6875,P08,D11,1,0,0
494,0.01,1644846505.703125,P08,D11,1,0,0
495,0.01,1644846505.71875,P08,D11,1,0,0
496,0.03,1644846505.734375,P08,D11,1,0,0
497,0.07,1644846505.75,P08,D11,1,0,0
498,0.09,1644846505.765625,P08,D11,1,0,0
499,0.04,1644846505.78125,P08,D11,1,0,0
500,-0.1,1644846505.796875,P08,D11,1,0,0
501,-0.31,1644846505.8125,P08,D11,1,0,0
502,-0.54,1644846505.828125,P08,D11,1,0,0
503,-0.71,1644846505.84375,P08,D11,1,0,0
504,-0.76,1644846505.859375,P08,D11,1,0,0
505,-0.71,1644846505.875,P08,D11,1,0,0
506,-0.62,1644846505.890625,P08,D11,1,0,0
507,-0.57,1644846505.90625,P08,D11,1,0,0
508,-0.61,1644846505.921875,P08,D11,1,0,0
509,-0.73,1644846505.9375,P08,D11,1,0,0
510,-0.86,1644846505.953125,P08,D11,1,0,0
511,-0.87,1644846505.96875,P08,D11,1,0,0
512,-0.72,1644846505.984375,P08,D11,1,0,0
513,-0.39,1644846506.0,P08,D11,1,0,0
514,0.03,1644846506.015625,P08,D11,1,0,0
515,0.45,1644846506.03125,P08,D11,1,0,0
516,0.75,1644846506.046875,P08,D11,1,0,0
517,0.87,1644846506.0625,P08,D11,1,0,0
518,0.84,1644846506.078125,P08,D11,1,0,0
519,0.69,1644846506.09375,P08,D11,1,0,0
520,0.52,1644846506.109375,P08,D11,1,0,0
521,0.37,1644846506.125,P08,D11,1,0,0
522,0.25,1644846506.140625,P08,D11,1,0,0
523,0.12,1644846506.15625,P08,D11,1,0,0
524,-0.06,1644846506.171875,P08,D11,1,0,0
525,-0.3,1644846506.1875,P08,D11,1,0,0
526,-0.53,1644846506.203125,P08,D11,1,0,0
527,-0.65,1644846506.21875,P08,D11,1,0,0
528,-0.56,1644846506.234375,P08,D11,1,0,0
529,-0.22,1644846506.25,P08,D11,1,0,0
530,0.27,1644846506.265625,P08,D11,1,0,0
531,0.75,1644846506.28125,P08,D11,1,0,0
532,1.03,1644846506.296875,P08,D11,1,0,0
533,0.99,1644846506.3125,P08,D11,1,0,0
534,0.65,1644846506.328125,P08,D11,1,0,0
535,0.11,1644846506.34375,P08,D11,1,0,0
536,-0.42,1644846506.359375,P08,D11,1,0,0
537,-0.79,1644846506.375,P08,D11,1,0,0
538,-0.89,1644846506.390625,P08,D11,1,0,0
539,-0.72,1644846506.40625,P08,D11,1,0,0
540,-0.36,1644846506.421875,P08,D11,1,0,0
541,0.08,1644846506.4375,P08,D11,1,0,0
542,0.48,1644846506.453125,P08,D11,1,0,0
543,0.73,1644846506.46875,P08,D11,1,0,0
544,0.78,1644846506.484375,P08,D11,1,0,0
545,0.63,1644846506.5,P08,D11,1,0,0
546,0.37,1644846506.515625,P08,D11,1,0,0
547,0.11,1644846506.53125,P08,D11,1,0,0
548,-0.04,1644846506.546875,P08,D11,1,0,0
549,-0.0,1644846506.5625,P08,D11,1,0,0
550,0.19,1644846506.578125,P08,D11,1,0,0
551,0.41,1644846506.59375,P08,D11,1,0,0
552,0.52,1644846506.609375,P08,D11,1,0,0
553,0.35,1644846506.625,P08,D11,1,0,0
554,-0.11,1644846506.640625,P08,D11,1,0,0
555,-0.83,1644846506.65625,P08,D11,1,0,0
556,-1.63,1644846506.671875,P08,D11,1,0,0
557,-2.33,1644846506.6875,P08,D11,1,0,0
558,-2.8,1644846506.703125,P08,D11,1,0,0
559,-2.99,1644846506.71875,P08,D11,1,0,0
560,-2.96,1644846506.734375,P08,D11,1,0,0
561,-2.81,1644846506.75,P08,D11,1,0,0
562,-2.69,1644846506.765625,P08,D11,1,0,0
563,-2.68,1644846506.78125,P08,D11,1,0,0
564,-2.81,1644846506.796875,P08,D11,1,0,0
565,-3.03,1644846506.8125,P08,D11,1,0,0
566,-3.27,1644846506.828125,P08,D11,1,0,0
567,-3.43,1644846506.84375,P08,D11,1,0,0
568,-3.46,1644846506.859375,P08,D11,1,0,0
569,-3.33,1644846506.875,P08,D11,1,0,0
570,-3.01,1644846506.890625,P08,D11,1,0,0
571,-2.53,1644846506.90625,P08,D11,1,0,0
572,-1.92,1644846506.921875,P08,D11,1,0,0
573,-1.25,1644846506.9375,P08,D11,1,0,0
574,-0.59,1644846506.953125,P08,D11,1,0,0
575,-0.06,1644846506.96875,P08,D11,1,0,0
576,0.28,1644846506.984375,P08,D11,1,0,0
577,0.43,1644846507.0,P08,D11,1,0,0
578,0.43,1644846507.015625,P08,D11,1,0,0
579,0.39,1644846507.03125,P08,D11,1,0,0
580,0.37,1644846507.046875,P08,D11,1,0,0
581,0.39,1644846507.0625,P08,D11,1,0,0
582,0.41,1644846507.078125,P08,D11,1,0,0
583,0.43,1644846507.09375,P08,D11,1,0,0
584,0.44,1644846507.109375,P08,D11,1,0,0
585,0.54,1644846507.125,P08,D11,1,0,0
586,0.81,1644846507.140625,P08,D11,1,0,0
587,1.28,1644846507.15625,P08,D11,1,0,0
588,1.85,1644846507.171875,P08,D11,1,0,0
589,2.31,1644846507.1875,P08,D11,1,0,0
590,2.46,1644846507.203125,P08,D11,1,0,0
591,2.21,1644846507.21875,P08,D11,1,0,0
592,1.61,1644846507.234375,P08,D11,1,0,0
593,0.9,1644846507.25,P08,D11,1,0,0
594,0.31,1644846507.265625,P08,D11,1,0,0
595,0.03,1644846507.28125,P08,D11,1,0,0
596,0.08,1644846507.296875,P08,D11,1,0,0
597,0.39,1644846507.3125,P08,D11,1,0,0
598,0.83,1644846507.328125,P08,D11,1,0,0
599,1.32,1644846507.34375,P08,D11,1,0,0
600,1.81,1644846507.359375,P08,D11,1,0,0
601,2.31,1644846507.375,P08,D11,1,0,0
602,2.81,1644846507.390625,P08,D11,1,0,0
603,3.26,1644846507.40625,P08,D11,1,0,0
604,3.65,1644846507.421875,P08,D11,1,0,0
605,3.95,1644846507.4375,P08,D11,1,0,0
606,4.22,1644846507.453125,P08,D11,1,0,0
607,4.5,1644846507.46875,P08,D11,1,0,0
608,4.82,1644846507.484375,P08,D11,1,0,0
609,5.13,1644846507.5,P08,D11,1,0,0
610,5.34,1644846507.515625,P08,D11,1,0,0
611,5.37,1644846507.53125,P08,D11,1,0,0
612,5.17,1644846507.546875,P08,D11,1,0,0
613,4.74,1644846507.5625,P08,D11,1,0,0
614,4.15,1644846507.578125,P08,D11,1,0,0
615,3.45,1644846507.59375,P08,D11,1,0,0
616,2.71,1644846507.609375,P08,D11,1,0,0
617,1.97,1644846507.625,P08,D11,1,0,0
618,1.3,1644846507.640625,P08,D11,1,0,0
619,0.72,1644846507.65625,P08,D11,1,0,0
620,0.26,1644846507.671875,P08,D11,1,0,0
621,-0.05,1644846507.6875,P08,D11,1,0,0
622,-0.24,1644846507.703125,P08,D11,1,0,0
623,-0.34,1644846507.71875,P08,D11,1,0,0
624,-0.42,1644846507.734375,P08,D11,1,0,0
625,-0.53,1644846507.75,P08,D11,1,0,0
626,-0.69,1644846507.765625,P08,D11,1,0,0
627,-0.89,1644846507.78125,P08,D11,1,0,0
628,-1.08,1644846507.796875,P08,D11,1,0,0
629,-1.21,1644846507.8125,P08,D11,1,0,0
630,-1.23,1644846507.828125,P08,D11,1,0,0
631,-1.12,1644846507.84375,P08,D11,1,0,0
632,-0.9,1644846507.859375,P08,D11,1,0,0
633,-0.62,1644846507.875,P08,D11,1,0,0
634,-0.33,1644846507.890625,P08,D11,1,0,0
635,-0.13,1644846507.90625,P08,D11,1,0,0
636,-0.06,1644846507.921875,P08,D11,1,0,0
637,-0.1,1644846507.9375,P08,D11,1,0,0
638,-0.2,1644846507.953125,P08,D11,1,0,0
639,-0.28,1644846507.96875,P08,D11,1,0,0
640,-0.24,1644846507.984375,P08,D11,1,0,0
641,-0.06,1644846508.0,P08,D11,1,0,0
642,0.25,1644846508.015625,P08,D11,1,0,0
643,0.58,1644846508.03125,P08,D11,1,0,0
644,0.79,1644846508.046875,P08,D11,1,0,0
645,0.75,1644846508.0625,P08,D11,1,0,0
646,0.4,1644846508.078125,P08,D11,1,0,0
647,-0.23,1644846508.09375,P08,D11,1,0,0
648,-1.02,1644846508.109375,P08,D11,1,0,0
649,-1.86,1644846508.125,P08,D11,1,0,0
650,-2.62,1644846508.140625,P08,D11,1,0,0
651,-3.27,1644846508.15625,P08,D11,1,0,0
652,-3.76,1644846508.171875,P08,D11,1,0,0
653,-4.08,1644846508.1875,P08,D11,1,0,0
654,-4.2,1644846508.203125,P08,D11,1,0,0
655,-4.07,1644846508.21875,P08,D11,1,0,0
656,-3.68,1644846508.234375,P08,D11,1,0,0
657,-3.09,1644846508.25,P08,D11,1,0,0
658,-2.46,1644846508.265625,P08,D11,1,0,0
659,-1.96,1644846508.28125,P08,D11,1,0,0
660,-1.73,1644846508.296875,P08,D11,1,0,0
661,-1.78,1644846508.3125,P08,D11,1,0,0
662,-1.99,1644846508.328125,P08,D11,1,0,0
663,-2.18,1644846508.34375,P08,D11,1,0,0
664,-2.22,1644846508.359375,P08,D11,1,0,0
665,-2.04,1644846508.375,P08,D11,1,0,0
666,-1.69,1644846508.390625,P08,D11,1,0,0
667,-1.26,1644846508.40625,P08,D11,1,0,0
668,-0.84,1644846508.421875,P08,D11,1,0,0
669,-0.46,1644846508.4375,P08,D11,1,0,0
670,-0.18,1644846508.453125,P08,D11,1,0,0
671,0.01,1644846508.46875,P08,D11,1,0,0
672,0.09,1644846508.484375,P08,D11,1,0,0
673,0.07,1644846508.5,P08,D11,1,0,0
674,0.01,1644846508.515625,P08,D11,1,0,0
675,0.02,1644846508.53125,P08,D11,1,0,0
676,0.18,1644846508.546875,P08,D11,1,0,0
677,0.54,1644846508.5625,P08,D11,1,0,0
678,1.05,1644846508.578125,P08,D11,1,0,0
679,1.55,1644846508.59375,P08,D11,1,0,0
680,1.84,1644846508.609375,P08,D11,1,0,0
681,1.79,1644846508.625,P08,D11,1,0,0
682,1.36,1644846508.640625,P08,D11,1,0,0
683,0.64,1644846508.65625,P08,D11,1,0,0
684,-0.18,1644846508.671875,P08,D11,1,0,0
685,-0.93,1644846508.6875,P08,D11,1,0,0
686,-1.46,1644846508.703125,P08,D11,1,0,0
687,-1.76,1644846508.71875,P08,D11,1,0,0
688,-1.88,1644846508.734375,P08,D11,1,0,0
689,-1.89,1644846508.75,P08,D11,1,0,0
690,-1.84,1644846508.765625,P08,D11,1,0,0
691,-1.75,1644846508.78125,P08,D11,1,0,0
692,-1.58,1644846508.796875,P08,D11,1,0,0
693,-1.32,1644846508.8125,P08,D11,1,0,0
694,-1.01,1644846508.828125,P08,D11,1,0,0
695,-0.77,1644846508.84375,P08,D11,1,0,0
696,-0.73,1644846508.859375,P08,D11,1,0,0
697,-0.96,1644846508.875,P08,D11,1,0,0
698,-1.45,1644846508.890625,P08,D11,1,0,0
699,-2.05,1644846508.90625,P08,D11,1,0,0
700,-2.54,1644846508.921875,P08,D11,1,0,0
701,-2.74,1644846508.9375,P08,D11,1,0,0
702,-2.55,1644846508.953125,P08,D11,1,0,0
703,-2.07,1644846508.96875,P08,D11,1,0,0
704,-1.48,1644846508.984375,P08,D11,1,0,0
705,-0.97,1644846509.0,P08,D11,1,0,0
706,-0.66,1644846509.015625,P08,D11,1,0,0
707,-0.49,1644846509.03125,P08,D11,1,0,0
708,-0.33,1644846509.046875,P08,D11,1,0,0
709,-0.03,1644846509.0625,P08,D11,1,0,0
710,0.48,1644846509.078125,P08,D11,1,0,0
711,1.08,1644846509.09375,P08,D11,1,0,0
712,1.61,1644846509.109375,P08,D11,1,0,0
713,1.85,1644846509.125,P08,D11,1,0,0
714,1.7,1644846509.140625,P08,D11,1,0,0
715,1.22,1644846509.15625,P08,D11,1,0,0
716,0.58,1644846509.171875,P08,D11,1,0,0
717,-0.01,1644846509.1875,P08,D11,1,0,0
718,-0.41,1644846509.203125,P08,D11,1,0,0
719,-0.57,1644846509.21875,P08,D11,1,0,0
720,-0.52,1644846509.234375,P08,D11,1,0,0
721,-0.36,1644846509.25,P08,D11,1,0,0
722,-0.14,1644846509.265625,P08,D11,1,0,0
723,0.12,1644846509.28125,P08,D11,1,0,0
724,0.41,1644846509.296875,P08,D11,1,0,0
725,0.72,1644846509.3125,P08,D11,1,0,0
726,1.01,1644846509.328125,P08,D11,1,0,0
727,1.17,1644846509.34375,P08,D11,1,0,0
728,1.12,1644846509.359375,P08,D11,1,0,0
729,0.82,1644846509.375,P08,D11,1,0,0
730,0.33,1644846509.390625,P08,D11,1,0,0
731,-0.23,1644846509.40625,P08,D11,1,0,0
732,-0.68,1644846509.421875,P08,D11,1,0,0
733,-0.9,1644846509.4375,P08,D11,1,0,0
734,-0.82,1644846509.453125,P08,D11,1,0,0
735,-0.51,1644846509.46875,P08,D11,1,0,0
736,-0.07,1644846509.484375,P08,D11,1,0,0
737,0.33,1644846509.5,P08,D11,1,0,0
738,0.58,1644846509.515625,P08,D11,1,0,0
739,0.62,1644846509.53125,P08,D11,1,0,0
740,0.48,1644846509.546875,P08,D11,1,0,0
741,0.22,1644846509.5625,P08,D11,1,0,0
742,-0.1,1644846509.578125,P08,D11,1,0,0
743,-0.42,1644846509.59375,P08,D11,1,0,0
744,-0.72,1644846509.609375,P08,D11,1,0,0
745,-0.98,1644846509.625,P08,D11,1,0,0
746,-1.15,1644846509.640625,P08,D11,1,0,0
747,-1.14,1644846509.65625,P08,D11,1,0,0
748,-0.88,1644846509.671875,P08,D11,1,0,0
749,-0.32,1644846509.6875,P08,D11,1,0,0
750,0.45,1644846509.703125,P08,D11,1,0,0
751,1.24,1644846509.71875,P08,D11,1,0,0
752,1.85,1644846509.734375,P08,D11,1,0,0
753,2.13,1644846509.75,P08,D11,1,0,0
754,2.09,1644846509.765625,P08,D11,1,0,0
755,1.86,1644846509.78125,P08,D11,1,0,0
756,1.61,1644846509.796875,P08,D11,1,0,0
757,1.46,1644846509.8125,P08,D11,1,0,0
758,1.44,1644846509.828125,P08,D11,1,0,0
759,1.45,1644846509.84375,P08,D11,1,0,0
760,1.43,1644846509.859375,P08,D11,1,0,0
761,1.32,1644846509.875,P08,D11,1,0,0
762,1.17,1644846509.890625,P08,D11,1,0,0
763,1.01,1644846509.90625,P08,D11,1,0,0
764,0.91,1644846509.921875,P08,D11,1,0,0
765,0.85,1644846509.9375,P08,D11,1,0,0
766,0.83,1644846509.953125,P08,D11,1,0,0
767,0.84,1644846509.96875,P08,D11,1,0,0
768,0.97,1644846509.984375,P08,D11,1,0,0
769,1.3,1644846510.0,P08,D11,1,0,0
770,1.88,1644846510.015625,P08,D11,1,0,0
771,2.65,1644846510.03125,P08,D11,1,0,0
772,3.39,1644846510.046875,P08,D11,1,0,0
773,3.87,1644846510.0625,P08,D11,1,0,0
774,3.9,1644846510.078125,P08,D11,1,0,0
775,3.47,1644846510.09375,P08,D11,1,0,0
776,2.74,1644846510.109375,P08,D11,1,0,0
777,1.99,1644846510.125,P08,D11,1,0,0
778,1.45,1644846510.140625,P08,D11,1,0,0
779,1.21,1644846510.15625,P08,D11,1,0,0
780,1.23,1644846510.171875,P08,D11,1,0,0
781,1.38,1644846510.1875,P08,D11,1,0,0
782,1.57,1644846510.203125,P08,D11,1,0,0
783,1.8,1644846510.21875,P08,D11,1,0,0
784,2.12,1644846510.234375,P08,D11,1,0,0
785,2.55,1644846510.25,P08,D11,1,0,0
786,2.98,1644846510.265625,P08,D11,1,0,0
787,3.23,1644846510.28125,P08,D11,1,0,0
788,3.11,1644846510.296875,P08,D11,1,0,0
789,2.53,1644846510.3125,P08,D11,1,0,0
790,1.56,1644846510.328125,P08,D11,1,0,0
791,0.41,1644846510.34375,P08,D11,1,0,0
792,-0.66,1644846510.359375,P08,D11,1,0,0
793,-1.48,1644846510.375,P08,D11,1,0,0
794,-1.98,1644846510.390625,P08,D11,1,0,0
795,-2.24,1644846510.40625,P08,D11,1,0,0
796,-2.35,1644846510.421875,P08,D11,1,0,0
797,-2.44,1644846510.4375,P08,D11,1,0,0
798,-2.56,1644846510.453125,P08,D11,1,0,0
799,-2.69,1644846510.46875,P08,D11,1,0,0
800,-2.8,1644846510.484375,P08,D11,1,0,0
801,-2.85,1644846510.5,P08,D11,1,0,0
802,-2.8,1644846510.515625,P08,D11,1,0,0
803,-2.71,1644846510.53125,P08,D11,1,0,0
804,-2.63,1644846510.546875,P08,D11,1,0,0
805,-2.63,1644846510.5625,P08,D11,1,0,0
806,-2.71,1644846510.578125,P08,D11,1,0,0
807,-2.82,1644846510.59375,P08,D11,1,0,0
808,-2.82,1644846510.609375,P08,D11,1,0,0
809,-2.61,1644846510.625,P08,D11,1,0,0
810,-2.14,1644846510.640625,P08,D11,1,0,0
811,-1.49,1644846510.65625,P08,D11,1,0,0
812,-0.83,1644846510.671875,P08,D11,1,0,0
813,-0.32,1644846510.6875,P08,D11,1,0,0
814,-0.05,1644846510.703125,P08,D11,1,0,0
815,-0.01,1644846510.71875,P08,D11,1,0,0
816,-0.09,1644846510.734375,P08,D11,1,0,0
817,-0.19,1644846510.75,P08,D11,1,0,0
818,-0.25,1644846510.765625,P08,D11,1,0,0
819,-0.3,1644846510.78125,P08,D11,1,0,0
820,-0.37,1644846510.796875,P08,D11,1,0,0
821,-0.51,1644846510.8125,P08,D11,1,0,0
822,-0.7,1644846510.828125,P08,D11,1,0,0
823,-0.84,1644846510.84375,P08,D11,1,0,0
824,-0.82,1644846510.859375,P08,D11,1,0,0
825,-0.59,1644846510.875,P08,D11,1,0,0
826,-0.15,1644846510.890625,P08,D11,1,0,0
827,0.42,1644846510.90625,P08,D11,1,0,0
828,0.97,1644846510.921875,P08,D11,1,0,0
829,1.41,1644846510.9375,P08,D11,1,0,0
830,1.67,1644846510.953125,P08,D11,1,0,0
831,1.79,1644846510.96875,P08,D11,1,0,0
832,1.83,1644846510.984375,P08,D11,1,0,0
833,1.85,1644846511.0,P08,D11,1,0,0
834,1.89,1644846511.015625,P08,D11,1,0,0
835,1.91,1644846511.03125,P08,D11,1,0,0
836,1.84,1644846511.046875,P08,D11,1,0,0
837,1.65,1644846511.0625,P08,D11,1,0,0
838,1.36,1644846511.078125,P08,D11,1,0,0
839,1.05,1644846511.09375,P08,D11,1,0,0
840,0.77,1644846511.109375,P08,D11,1,0,0
841,0.56,1644846511.125,P08,D11,1,0,0
842,0.39,1644846511.140625,P08,D11,1,0,0
843,0.23,1644846511.15625,P08,D11,1,0,0
844,0.09,1644846511.171875,P08,D11,1,0,0
845,0.03,1644846511.1875,P08,D11,1,0,0
846,0.1,1644846511.203125,P08,D11,1,0,0
847,0.34,1644846511.21875,P08,D11,1,0,0
848,0.68,1644846511.234375,P08,D11,1,0,0
849,0.97,1644846511.25,P08,D11,1,0,0
850,1.08,1644846511.265625,P08,D11,1,0,0
851,0.94,1644846511.28125,P08,D11,1,0,0
852,0.59,1644846511.296875,P08,D11,1,0,0
853,0.12,1644846511.3125,P08,D11,1,0,0
854,-0.33,1644846511.328125,P08,D11,1,0,0
855,-0.71,1644846511.34375,P08,D11,1,0,0
856,-0.97,1644846511.359375,P08,D11,1,0,0
857,-1.13,1644846511.375,P08,D11,1,0,0
858,-1.14,1644846511.390625,P08,D11,1,0,0
859,-0.98,1644846511.40625,P08,D11,1,0,0
860,-0.61,1644846511.421875,P08,D11,1,0,0
861,-0.07,1644846511.4375,P08,D11,1,0,0
862,0.54,1644846511.453125,P08,D11,1,0,0
863,1.04,1644846511.46875,P08,D11,1,0,0
864,1.3,1644846511.484375,P08,D11,1,0,0
865,1.26,1644846511.5,P08,D11,1,0,0
866,0.97,1644846511.515625,P08,D11,1,0,0
867,0.54,1644846511.53125,P08,D11,1,0,0
868,0.15,1644846511.546875,P08,D11,1,0,0
869,-0.07,1644846511.5625,P08,D11,1,0,0
870,-0.1,1644846511.578125,P08,D11,1,0,0
871,0.02,1644846511.59375,P08,D11,1,0,0
872,0.17,1644846511.609375,P08,D11,1,0,0
873,0.23,1644846511.625,P08,D11,1,0,0
874,0.17,1644846511.640625,P08,D11,1,0,0
875,0.02,1644846511.65625,P08,D11,1,0,0
876,-0.13,1644846511.671875,P08,D11,1,0,0
877,-0.16,1644846511.6875,P08,D11,1,0,0
878,-0.05,1644846511.703125,P08,D11,1,0,0
879,0.16,1644846511.71875,P08,D11,1,0,0
880,0.38,1644846511.734375,P08,D11,1,0,0
881,0.52,1644846511.75,P08,D11,1,0,0
882,0.55,1644846511.765625,P08,D11,1,0,0
883,0.5,1644846511.78125,P08,D11,1,0,0
884,0.43,1644846511.796875,P08,D11,1,0,0
885,0.39,1644846511.8125,P08,D11,1,0,0
886,0.34,1644846511.828125,P08,D11,1,0,0
887,0.25,1644846511.84375,P08,D11,1,0,0
888,0.07,1644846511.859375,P08,D11,1,0,0
889,-0.17,1644846511.875,P08,D11,1,0,0
890,-0.4,1644846511.890625,P08,D11,1,0,0
891,-0.57,1644846511.90625,P08,D11,1,0,0
892,-0.64,1644846511.921875,P08,D11,1,0,0
893,-0.68,1644846511.9375,P08,D11,1,0,0
894,-0.73,1644846511.953125,P08,D11,1,0,0
895,-0.86,1644846511.96875,P08,D11,1,0,0
896,-1.04,1644846511.984375,P08,D11,1,0,0
897,-1.21,1644846512.0,P08,D11,1,0,0
898,-1.32,1644846512.015625,P08,D11,1,0,0
899,-1.35,1644846512.03125,P08,D11,1,0,0
900,-1.34,1644846512.046875,P08,D11,1,0,0
901,-1.35,1644846512.0625,P08,D11,1,0,0
902,-1.37,1644846512.078125,P08,D11,1,0,0
903,-1.39,1644846512.09375,P08,D11,1,0,0
904,-1.32,1644846512.109375,P08,D11,1,0,0
905,-1.11,1644846512.125,P08,D11,1,0,0
906,-0.77,1644846512.140625,P08,D11,1,0,0
907,-0.34,1644846512.15625,P08,D11,1,0,0
908,0.05,1644846512.171875,P08,D11,1,0,0
909,0.33,1644846512.1875,P08,D11,1,0,0
910,0.44,1644846512.203125,P08,D11,1,0,0
911,0.39,1644846512.21875,P08,D11,1,0,0
912,0.26,1644846512.234375,P08,D11,1,0,0
913,0.15,1644846512.25,P08,D11,1,0,0
914,0.19,1644846512.265625,P08,D11,1,0,0
915,0.46,1644846512.28125,P08,D11,1,0,0
916,0.95,1644846512.296875,P08,D11,1,0,0
917,1.56,1644846512.3125,P08,D11,1,0,0
918,2.09,1644846512.328125,P08,D11,1,0,0
919,2.35,1644846512.34375,P08,D11,1,0,0
920,2.26,1644846512.359375,P08,D11,1,0,0
921,1.87,1644846512.375,P08,D11,1,0,0
922,1.33,1644846512.390625,P08,D11,1,0,0
923,0.81,1644846512.40625,P08,D11,1,0,0
924,0.43,1644846512.421875,P08,D11,1,0,0
925,0.18,1644846512.4375,P08,D11,1,0,0
926,0.01,1644846512.453125,P08,D11,1,0,0
927,-0.14,1644846512.46875,P08,D11,1,0,0
928,-0.25,1644846512.484375,P08,D11,1,0,0
929,-0.27,1644846512.5,P08,D11,1,0,0
930,-0.15,1644846512.515625,P08,D11,1,0,0
931,0.09,1644846512.53125,P08,D11,1,0,0
932,0.37,1644846512.546875,P08,D11,1,0,0
933,0.54,1644846512.5625,P08,D11,1,0,0
934,0.52,1644846512.578125,P08,D11,1,0,0
935,0.29,1644846512.59375,P08,D11,1,0,0
936,-0.07,1644846512.609375,P08,D11,1,0,0
937,-0.41,1644846512.625,P08,D11,1,0,0
938,-0.59,1644846512.640625,P08,D11,1,0,0
939,-0.55,1644846512.65625,P08,D11,1,0,0
940,-0.34,1644846512.671875,P08,D11,1,0,0
941,-0.03,1644846512.6875,P08,D11,1,0,0
942,0.22,1644846512.703125,P08,D11,1,0,0
943,0.33,1644846512.71875,P08,D11,1,0,0
944,0.25,1644846512.734375,P08,D11,1,0,0
945,0.02,1644846512.75,P08,D11,1,0,0
946,-0.25,1644846512.765625,P08,D11,1,0,0
947,-0.41,1644846512.78125,P08,D11,1,0,0
948,-0.35,1644846512.796875,P08,D11,1,0,0
949,-0.04,1644846512.8125,P08,D11,1,0,0
950,0.42,1644846512.828125,P08,D11,1,0,0
951,0.86,1644846512.84375,P08,D11,1,0,0
952,1.11,1644846512.859375,P08,D11,1,0,0
953,1.09,1644846512.875,P08,D11,1,0,0
954,0.85,1644846512.890625,P08,D11,1,0,0
955,0.51,1644846512.90625,P08,D11,1,0,0
956,0.22,1644846512.921875,P08,D11,1,0,0
957,0.04,1644846512.9375,P08,D11,1,0,0
958,-0.04,1644846512.953125,P08,D11,1,0,0
959,-0.12,1644846512.96875,P08,D11,1,0,0
960,-0.28,1644846512.984375,P08,D11,1,0,0
961,-0.54,1644846513.0,P08,D11,1,0,0
962,-0.85,1644846513.015625,P08,D11,1,0,0
963,-1.13,1644846513.03125,P08,D11,1,0,0
964,-1.31,1644846513.046875,P08,D11,1,0,0
965,-1.38,1644846513.0625,P08,D11,1,0,0
966,-1.41,1644846513.078125,P08,D11,1,0,0
967,-1.47,1644846513.09375,P08,D11,1,0,0
968,-1.64,1644846513.109375,P08,D11,1,0,0
969,-1.9,1644846513.125,P08,D11,1,0,0
970,-2.18,1644846513.140625,P08,D11,1,0,0
971,-2.35,1644846513.15625,P08,D11,1,0,0
972,-2.29,1644846513.171875,P08,D11,1,0,0
973,-1.97,1644846513.1875,P08,D11,1,0,0
974,-1.45,1644846513.203125,P08,D11,1,0,0
975,-0.87,1644846513.21875,P08,D11,1,0,0
976,-0.36,1644846513.234375,P08,D11,1,0,0
977,0.04,1644846513.25,P08,D11,1,0,0
978,0.31,1644846513.265625,P08,D11,1,0,0
979,0.47,1644846513.28125,P08,D11,1,0,0
980,0.53,1644846513.296875,P08,D11,1,0,0
981,0.43,1644846513.3125,P08,D11,1,0,0
982,0.17,1644846513.328125,P08,D11,1,0,0
983,-0.18,1644846513.34375,P08,D11,1,0,0
984,-0.5,1644846513.359375,P08,D11,1,0,0
985,-0.63,1644846513.375,P08,D11,1,0,0
986,-0.48,1644846513.390625,P08,D11,1,0,0
987,-0.09,1644846513.40625,P08,D11,1,0,0
988,0.39,1644846513.421875,P08,D11,1,0,0
989,0.79,1644846513.4375,P08,D11,1,0,0
990,0.98,1644846513.453125,P08,D11,1,0,0
991,0.95,1644846513.46875,P08,D11,1,0,0
992,0.76,1644846513.484375,P08,D11,1,0,0
993,0.52,1644846513.5,P08,D11,1,0,0
994,0.31,1644846513.515625,P08,D11,1,0,0
995,0.19,1644846513.53125,P08,D11,1,0,0
996,0.16,1644846513.546875,P08,D11,1,0,0
997,0.24,1644846513.5625,P08,D11,1,0,0
998,0.39,1644846513.578125,P08,D11,1,0,0
999,0.57,1644846513.59375,P08,D11,1,0,0
1000,0.69,1644846513.609375,P08,D11,1,0,0
1001,0.67,1644846513.625,P08,D11,1,0,0
1002,0.51,1644846513.640625,P08,D11,1,0,0
1003,0.27,1644846513.65625,P08,D11,1,0,0
1004,0.1,1644846513.671875,P08,D11,1,0,0
1005,0.14,1644846513.6875,P08,D11,1,0,0
1006,0.42,1644846513.703125,P08,D11,1,0,0
1007,0.84,1644846513.71875,P08,D11,1,0,0
1008,1.18,1644846513.734375,P08,D11,1,0,0
1009,1.26,1644846513.75,P08,D11,1,0,0
1010,1.01,1644846513.765625,P08,D11,1,0,0
1011,0.56,1644846513.78125,P08,D11,1,0,0
1012,0.15,1644846513.796875,P08,D11,1,0,0
1013,-0.0,1644846513.8125,P08,D11,1,0,0
1014,0.16,1644846513.828125,P08,D11,1,0,0
1015,0.53,1644846513.84375,P08,D11,1,0,0
1016,0.88,1644846513.859375,P08,D11,1,0,0
1017,1.03,1644846513.875,P08,D11,1,0,0
1018,0.93,1644846513.890625,P08,D11,1,0,0
1019,0.69,1644846513.90625,P08,D11,1,0,0
1020,0.48,1644846513.921875,P08,D11,1,0,0
1021,0.42,1644846513.9375,P08,D11,1,0,0
1022,0.51,1644846513.953125,P08,D11,1,0,0
1023,0.68,1644846513.96875,P08,D11,1,0,0
1024,0.79,1644846513.984375,P08,D11,1,0,0
1025,0.8,1644846514.0,P08,D11,1,0,0
1026,0.74,1644846514.015625,P08,D11,1,0,0
1027,0.71,1644846514.03125,P08,D11,1,0,0
1028,0.79,1644846514.046875,P08,D11,1,0,0
1029,0.97,1644846514.0625,P08,D11,1,0,0
1030,1.15,1644846514.078125,P08,D11,1,0,0
1031,1.18,1644846514.09375,P08,D11,1,0,0
1032,0.93,1644846514.109375,P08,D11,1,0,0
1033,0.45,1644846514.125,P08,D11,1,0,0
1034,-0.14,1644846514.140625,P08,D11,1,0,0
1035,-0.66,1644846514.15625,P08,D11,1,0,0
1036,-0.98,1644846514.171875,P08,D11,1,0,0
1037,-1.08,1644846514.1875,P08,D11,1,0,0
1038,-1.07,1644846514.203125,P08,D11,1,0,0
1039,-1.06,1644846514.21875,P08,D11,1,0,0
1040,-1.11,1644846514.234375,P08,D11,1,0,0
1041,-1.18,1644846514.25,P08,D11,1,0,0
1042,-1.18,1644846514.265625,P08,D11,1,0,0
1043,-1.04,1644846514.28125,P08,D11,1,0,0
1044,-0.78,1644846514.296875,P08,D11,1,0,0
1045,-0.51,1644846514.3125,P08,D11,1,0,0
1046,-0.38,1644846514.328125,P08,D11,1,0,0
1047,-0.48,1644846514.34375,P08,D11,1,0,0
1048,-0.77,1644846514.359375,P08,D11,1,0,0
1049,-1.1,1644846514.375,P08,D11,1,0,0
1050,-1.3,1644846514.390625,P08,D11,1,0,0
1051,-1.22,1644846514.40625,P08,D11,1,0,0
1052,-0.88,1644846514.421875,P08,D11,1,0,0
1053,-0.4,1644846514.4375,P08,D11,1,0,0
1054,0.04,1644846514.453125,P08,D11,1,0,0
1055,0.26,1644846514.46875,P08,D11,1,0,0
1056,0.22,1644846514.484375,P08,D11,1,0,0
1057,-0.02,1644846514.5,P08,D11,1,0,0
1058,-0.34,1644846514.515625,P08,D11,1,0,0
1059,-0.61,1644846514.53125,P08,D11,1,0,0
1060,-0.77,1644846514.546875,P08,D11,1,0,0
1061,-0.81,1644846514.5625,P08,D11,1,0,0
1062,-0.76,1644846514.578125,P08,D11,1,0,0
1063,-0.64,1644846514.59375,P08,D11,1,0,0
1064,-0.51,1644846514.609375,P08,D11,1,0,0
1065,-0.41,1644846514.625,P08,D11,1,0,0
1066,-0.38,1644846514.640625,P08,D11,1,0,0
1067,-0.42,1644846514.65625,P08,D11,1,0,0
1068,-0.51,1644846514.671875,P08,D11,1,0,0
1069,-0.59,1644846514.6875,P08,D11,1,0,0
1070,-0.56,1644846514.703125,P08,D11,1,0,0
1071,-0.41,1644846514.71875,P08,D11,1,0,0
1072,-0.15,1644846514.734375,P08,D11,1,0,0
1073,0.14,1644846514.75,P08,D11,1,0,0
1074,0.38,1644846514.765625,P08,D11,1,0,0
1075,0.52,1644846514.78125,P08,D11,1,0,0
1076,0.53,1644846514.796875,P08,D11,1,0,0
1077,0.46,1644846514.8125,P08,D11,1,0,0
1078,0.38,1644846514.828125,P08,D11,1,0,0
1079,0.33,1644846514.84375,P08,D11,1,0,0
1080,0.34,1644846514.859375,P08,D11,1,0,0
1081,0.4,1644846514.875,P08,D11,1,0,0
1082,0.45,1644846514.890625,P08,D11,1,0,0
1083,0.42,1644846514.90625,P08,D11,1,0,0
1084,0.26,1644846514.921875,P08,D11,1,0,0
1085,-0.02,1644846514.9375,P08,D11,1,0,0
1086,-0.32,1644846514.953125,P08,D11,1,0,0
1087,-0.5,1644846514.96875,P08,D11,1,0,0
1088,-0.45,1644846514.984375,P08,D11,1,0,0
1089,-0.16,1644846515.0,P08,D11,1,0,0
1090,0.26,1644846515.015625,P08,D11,1,0,0
1091,0.65,1644846515.03125,P08,D11,1,0,0
1092,0.88,1644846515.046875,P08,D11,1,0,0
1093,0.93,1644846515.0625,P08,D11,1,0,0
1094,0.87,1644846515.078125,P08,D11,1,0,0
1095,0.82,1644846515.09375,P08,D11,1,0,0
1096,0.84,1644846515.109375,P08,D11,1,0,0
1097,0.88,1644846515.125,P08,D11,1,0,0
1098,0.86,1644846515.140625,P08,D11,1,0,0
1099,0.7,1644846515.15625,P08,D11,1,0,0
1100,0.39,1644846515.171875,P08,D11,1,0,0
1101,0.03,1644846515.1875,P08,D11,1,0,0
1102,-0.25,1644846515.203125,P08,D11,1,0,0
1103,-0.34,1644846515.21875,P08,D11,1,0,0
1104,-0.24,1644846515.234375,P08,D11,1,0,0
1105,-0.04,1644846515.25,P08,D11,1,0,0
1106,0.15,1644846515.265625,P08,D11,1,0,0
1107,0.26,1644846515.28125,P08,D11,1,0,0
1108,0.29,1644846515.296875,P08,D11,1,0,0
1109,0.31,1644846515.3125,P08,D11,1,0,0
1110,0.34,1644846515.328125,P08,D11,1,0,0
1111,0.38,1644846515.34375,P08,D11,1,0,0
1112,0.37,1644846515.359375,P08,D11,1,0,0
1113,0.27,1644846515.375,P08,D11,1,0,0
1114,0.07,1644846515.390625,P08,D11,1,0,0
1115,-0.13,1644846515.40625,P08,D11,1,0,0
1116,-0.25,1644846515.421875,P08,D11,1,0,0
1117,-0.24,1644846515.4375,P08,D11,1,0,0
1118,-0.14,1644846515.453125,P08,D11,1,0,0
1119,-0.07,1644846515.46875,P08,D11,1,0,0
1120,-0.16,1644846515.484375,P08,D11,1,0,0
1121,-0.47,1644846515.5,P08,D11,1,0,0
1122,-0.92,1644846515.515625,P08,D11,1,0,0
1123,-1.36,1644846515.53125,P08,D11,1,0,0
1124,-1.62,1644846515.546875,P08,D11,1,0,0
1125,-1.58,1644846515.5625,P08,D11,1,0,0
1126,-1.26,1644846515.578125,P08,D11,1,0,0
1127,-0.76,1644846515.59375,P08,D11,1,0,0
1128,-0.25,1644846515.609375,P08,D11,1,0,0
1129,0.12,1644846515.625,P08,D11,1,0,0
1130,0.27,1644846515.640625,P08,D11,1,0,0
1131,0.18,1644846515.65625,P08,D11,1,0,0
1132,-0.06,1644846515.671875,P08,D11,1,0,0
1133,-0.35,1644846515.6875,P08,D11,1,0,0
1134,-0.61,1644846515.703125,P08,D11,1,0,0
1135,-0.77,1644846515.71875,P08,D11,1,0,0
1136,-0.86,1644846515.734375,P08,D11,1,0,0
1137,-0.91,1644846515.75,P08,D11,1,0,0
1138,-0.94,1644846515.765625,P08,D11,1,0,0
1139,-0.95,1644846515.78125,P08,D11,1,0,0
1140,-0.85,1644846515.796875,P08,D11,1,0,0
1141,-0.58,1644846515.8125,P08,D11,1,0,0
1142,-0.1,1644846515.828125,P08,D11,1,0,0
1143,0.49,1644846515.84375,P08,D11,1,0,0
1144,0.99,1644846515.859375,P08,D11,1,0,0
1145,1.2,1644846515.875,P08,D11,1,0,0
1146,1.01,1644846515.890625,P08,D11,1,0,0
1147,0.47,1644846515.90625,P08,D11,1,0,0
1148,-0.18,1644846515.921875,P08,D11,1,0,0
1149,-0.68,1644846515.9375,P08,D11,1,0,0
1150,-0.83,1644846515.953125,P08,D11,1,0,0
1151,-0.59,1644846515.96875,P08,D11,1,0,0
1152,-0.13,1644846515.984375,P08,D11,1,0,0
1153,0.33,1644846516.0,P08,D11,1,0,0
1154,0.61,1644846516.015625,P08,D11,1,0,0
1155,0.65,1644846516.03125,P08,D11,1,0,0
1156,0.46,1644846516.046875,P08,D11,1,0,0
1157,0.15,1644846516.0625,P08,D11,1,0,0
1158,-0.2,1644846516.078125,P08,D11,1,0,0
1159,-0.52,1644846516.09375,P08,D11,1,0,0
1160,-0.78,1644846516.109375,P08,D11,1,0,0
1161,-0.93,1644846516.125,P08,D11,1,0,0
1162,-0.92,1644846516.140625,P08,D11,1,0,0
1163,-0.73,1644846516.15625,P08,D11,1,0,0
1164,-0.39,1644846516.171875,P08,D11,1,0,0
1165,0.01,1644846516.1875,P08,D11,1,0,0
1166,0.38,1644846516.203125,P08,D11,1,0,0
1167,0.62,1644846516.21875,P08,D11,1,0,0
1168,0.68,1644846516.234375,P08,D11,1,0,0
1169,0.57,1644846516.25,P08,D11,1,0,0
1170,0.34,1644846516.265625,P08,D11,1,0,0
1171,0.06,1644846516.28125,P08,D11,1,0,0
1172,-0.2,1644846516.296875,P08,D11,1,0,0
1173,-0.36,1644846516.3125,P08,D11,1,0,0
1174,-0.36,1644846516.328125,P08,D11,1,0,0
1175,-0.18,1644846516.34375,P08,D11,1,0,0
1176,0.13,1644846516.359375,P08,D11,1,0,0
1177,0.43,1644846516.375,P08,D11,1,0,0
1178,0.6,1644846516.390625,P08,D11,1,0,0
1179,0.55,1644846516.40625,P08,D11,1,0,0
1180,0.31,1644846516.421875,P08,D11,1,0,0
1181,-0.01,1644846516.4375,P08,D11,1,0,0
1182,-0.25,1644846516.453125,P08,D11,1,0,0
1183,-0.32,1644846516.46875,P08,D11,1,0,0
1184,-0.22,1644846516.484375,P08,D11,1,0,0
1185,-0.05,1644846516.5,P08,D11,1,0,0
1186,0.1,1644846516.515625,P08,D11,1,0,0
1187,0.19,1644846516.53125,P08,D11,1,0,0
1188,0.27,1644846516.546875,P08,D11,1,0,0
1189,0.4,1644846516.5625,P08,D11,1,0,0
1190,0.57,1644846516.578125,P08,D11,1,0,0
1191,0.73,1644846516.59375,P08,D11,1,0,0
1192,0.75,1644846516.609375,P08,D11,1,0,0
1193,0.56,1644846516.625,P08,D11,1,0,0
1194,0.17,1644846516.640625,P08,D11,1,0,0
1195,-0.27,1644846516.65625,P08,D11,1,0,0
1196,-0.61,1644846516.671875,P08,D11,1,0,0
1197,-0.71,1644846516.6875,P08,D11,1,0,0
1198,-0.57,1644846516.703125,P08,D11,1,0,0
1199,-0.27,1644846516.71875,P08,D11,1,0,0
1200,0.05,1644846516.734375,P08,D11,1,0,0
1201,0.3,1644846516.75,P08,D11,1,0,0
1202,0.45,1644846516.765625,P08,D11,1,0,0
1203,0.53,1644846516.78125,P08,D11,1,0,0
1204,0.57,1644846516.796875,P08,D11,1,0,0
1205,0.54,1644846516.8125,P08,D11,1,0,0
1206,0.39,1644846516.828125,P08,D11,1,0,0
1207,0.08,1644846516.84375,P08,D11,1,0,0
1208,-0.39,1644846516.859375,P08,D11,1,0,0
1209,-0.91,1644846516.875,P08,D11,1,0,0
1210,-1.29,1644846516.890625,P08,D11,1,0,0
1211,-1.35,1644846516.90625,P08,D11,1,0,0
1212,-1.01,1644846516.921875,P08,D11,1,0,0
1213,-0.31,1644846516.9375,P08,D11,1,0,0
1214,0.55,1644846516.953125,P08,D11,1,0,0
1215,1.3,1644846516.96875,P08,D11,1,0,0
1216,1.75,1644846516.984375,P08,D11,1,0,0
1217,1.82,1644846517.0,P08,D11,1,0,0
1218,1.56,1644846517.015625,P08,D11,1,0,0
1219,1.06,1644846517.03125,P08,D11,1,0,0
1220,0.47,1644846517.046875,P08,D11,1,0,0
1221,-0.12,1644846517.0625,P08,D11,1,0,0
1222,-0.61,1644846517.078125,P08,D11,1,0,0
1223,-0.89,1644846517.09375,P08,D11,1,0,0
1224,-0.9,1644846517.109375,P08,D11,1,0,0
1225,-0.62,1644846517.125,P08,D11,1,0,0
1226,-0.14,1644846517.140625,P08,D11,1,0,0
1227,0.37,1644846517.15625,P08,D11,1,0,0
1228,0.7,1644846517.171875,P08,D11,1,0,0
1229,0.78,1644846517.1875,P08,D11,1,0,0
1230,0.61,1644846517.203125,P08,D11,1,0,0
1231,0.34,1644846517.21875,P08,D11,1,0,0
1232,0.12,1644846517.234375,P08,D11,1,0,0
1233,0.07,1644846517.25,P08,D11,1,0,0
1234,0.16,1644846517.265625,P08,D11,1,0,0
1235,0.34,1644846517.28125,P08,D11,1,0,0
1236,0.52,1644846517.296875,P08,D11,1,0,0
1237,0.65,1644846517.3125,P08,D11,1,0,0
1238,0.72,1644846517.328125,P08,D11,1,0,0
1239,0.74,1644846517.34375,P08,D11,1,0,0
1240,0.68,1644846517.359375,P08,D11,1,0,0
1241,0.49,1644846517.375,P08,D11,1,0,0
1242,0.17,1644846517.390625,P08,D11,1,0,0
1243,-0.24,1644846517.40625,P08,D11,1,0,0
1244,-0.65,1644846517.421875,P08,D11,1,0,0
1245,-0.96,1644846517.4375,P08,D11,1,0,0
1246,-1.1,1644846517.453125,P08,D11,1,0,0
1247,-1.09,1644846517.46875,P08,D11,1,0,0
1248,-0.97,1644846517.484375,P08,D11,1,0,0
1249,-0.78,1644846517.5,P08,D11,1,0,0
1250,-0.58,1644846517.515625,P08,D11,1,0,0
1251,-0.37,1644846517.53125,P08,D11,1,0,0
1252,-0.14,1644846517.546875,P08,D11,1,0,0
1253,0.11,1644846517.5625,P08,D11,1,0,0
1254,0.35,1644846517.578125,P08,D11,1,0,0
1255,0.56,1644846517.59375,P08,D11,1,0,0
1256,0.69,1644846517.609375,P08,D11,1,0,0
1257,0.71,1644846517.625,P08,D11,1,0,0
1258,0.62,1644846517.640625,P08,D11,1,0,0
1259,0.45,1644846517.65625,P08,D11,1,0,0
1260,0.2,1644846517.671875,P08,D11,1,0,0
1261,-0.11,1644846517.6875,P08,D11,1,0,0
1262,-0.51,1644846517.703125,P08,D11,1,0,0
1263,-0.96,1644846517.71875,P08,D11,1,0,0
1264,-1.42,1644846517.734375,P08,D11,1,0,0
1265,-1.76,1644846517.75,P08,D11,1,0,0
1266,-1.88,1644846517.765625,P08,D11,1,0,0
1267,-1.73,1644846517.78125,P08,D11,1,0,0
1268,-1.35,1644846517.796875,P08,D11,1,0,0
1269,-0.91,1644846517.8125,P08,D11,1,0,0
1270,-0.56,1644846517.828125,P08,D11,1,0,0
1271,-0.38,1644846517.84375,P08,D11,1,0,0
1272,-0.34,1644846517.859375,P08,D11,1,0,0
1273,-0.32,1644846517.875,P08,D11,1,0,0
1274,-0.23,1644846517.890625,P08,D11,1,0,0
1275,-0.07,1644846517.90625,P08,D11,1,0,0
1276,0.05,1644846517.921875,P08,D11,1,0,0
1277,-0.01,1644846517.9375,P08,D11,1,0,0
1278,-0.29,1644846517.953125,P08,D11,1,0,0
1279,-0.68,1644846517.96875,P08,D11,1,0,0
1280,-0.98,1644846517.984375,P08,D11,1,0,0
1281,-1.0,1644846518.0,P08,D11,1,0,0
1282,-0.68,1644846518.015625,P08,D11,1,0,0
1283,-0.14,1644846518.03125,P08,D11,1,0,0
1284,0.41,1644846518.046875,P08,D11,1,0,0
1285,0.77,1644846518.0625,P08,D11,1,0,0
1286,0.9,1644846518.078125,P08,D11,1,0,0
1287,0.86,1644846518.09375,P08,D11,1,0,0
1288,0.79,1644846518.109375,P08,D11,1,0,0
1289,0.77,1644846518.125,P08,D11,1,0,0
1290,0.81,1644846518.140625,P08,D11,1,0,0
1291,0.87,1644846518.15625,P08,D11,1,0,0
1292,0.86,1644846518.171875,P08,D11,1,0,0
1293,0.78,1644846518.1875,P08,D11,1,0,0
1294,0.63,1644846518.203125,P08,D11,1,0,0
1295,0.45,1644846518.21875,P08,D11,1,0,0
1296,0.23,1644846518.234375,P08,D11,1,0,0
1297,-0.03,1644846518.25,P08,D11,1,0,0
1298,-0.3,1644846518.265625,P08,D11,1,0,0
1299,-0.55,1644846518.28125,P08,D11,1,0,0
1300,-0.69,1644846518.296875,P08,D11,1,0,0
1301,-0.64,1644846518.3125,P08,D11,1,0,0
1302,-0.41,1644846518.328125,P08,D11,1,0,0
1303,-0.07,1644846518.34375,P08,D11,1,0,0
1304,0.3,1644846518.359375,P08,D11,1,0,0
1305,0.6,1644846518.375,P08,D11,1,0,0
1306,0.8,1644846518.390625,P08,D11,1,0,0
1307,0.9,1644846518.40625,P08,D11,1,0,0
1308,0.89,1644846518.421875,P08,D11,1,0,0
1309,0.71,1644846518.4375,P08,D11,1,0,0
1310,0.37,1644846518.453125,P08,D11,1,0,0
1311,-0.13,1644846518.46875,P08,D11,1,0,0
1312,-0.69,1644846518.484375,P08,D11,1,0,0
1313,-1.18,1644846518.5,P08,D11,1,0,0
1314,-1.47,1644846518.515625,P08,D11,1,0,0
1315,-1.51,1644846518.53125,P08,D11,1,0,0
1316,-1.36,1644846518.546875,P08,D11,1,0,0
1317,-1.11,1644846518.5625,P08,D11,1,0,0
1318,-0.87,1644846518.578125,P08,D11,1,0,0
1319,-0.67,1644846518.59375,P08,D11,1,0,0
1320,-0.53,1644846518.609375,P08,D11,1,0,0
1321,-0.42,1644846518.625,P08,D11,1,0,0
1322,-0.31,1644846518.640625,P08,D11,1,0,0
1323,-0.19,1644846518.65625,P08,D11,1,0,0
1324,-0.09,1644846518.671875,P08,D11,1,0,0
1325,0.01,1644846518.6875,P08,D11,1,0,0
1326,0.1,1644846518.703125,P08,D11,1,0,0
1327,0.17,1644846518.71875,P08,D11,1,0,0
1328,0.23,1644846518.734375,P08,D11,1,0,0
1329,0.25,1644846518.75,P08,D11,1,0,0
1330,0.23,1644846518.765625,P08,D11,1,0,0
1331,0.15,1644846518.78125,P08,D11,1,0,0
1332,0.01,1644846518.796875,P08,D11,1,0,0
1333,-0.15,1644846518.8125,P08,D11,1,0,0
1334,-0.29,1644846518.828125,P08,D11,1,0,0
1335,-0.35,1644846518.84375,P08,D11,1,0,0
1336,-0.29,1644846518.859375,P08,D11,1,0,0
1337,-0.09,1644846518.875,P08,D11,1,0,0
1338,0.23,1644846518.890625,P08,D11,1,0,0
1339,0.56,1644846518.90625,P08,D11,1,0,0
1340,0.83,1644846518.921875,P08,D11,1,0,0
1341,0.94,1644846518.9375,P08,D11,1,0,0
1342,0.86,1644846518.953125,P08,D11,1,0,0
1343,0.64,1644846518.96875,P08,D11,1,0,0
1344,0.37,1644846518.984375,P08,D11,1,0,0
1345,0.18,1644846519.0,P08,D11,1,0,0
1346,0.14,1644846519.015625,P08,D11,1,0,0
1347,0.23,1644846519.03125,P08,D11,1,0,0
1348,0.37,1644846519.046875,P08,D11,1,0,0
1349,0.46,1644846519.0625,P08,D11,1,0,0
1350,0.42,1644846519.078125,P08,D11,1,0,0
1351,0.27,1644846519.09375,P08,D11,1,0,0
1352,0.06,1644846519.109375,P08,D11,1,0,0
1353,-0.08,1644846519.125,P08,D11,1,0,0
1354,-0.08,1644846519.140625,P08,D11,1,0,0
1355,0.09,1644846519.15625,P08,D11,1,0,0
1356,0.35,1644846519.171875,P08,D11,1,0,0
1357,0.57,1644846519.1875,P08,D11,1,0,0
1358,0.67,1644846519.203125,P08,D11,1,0,0
1359,0.62,1644846519.21875,P08,D11,1,0,0
1360,0.47,1644846519.234375,P08,D11,1,0,0
1361,0.36,1644846519.25,P08,D11,1,0,0
1362,0.39,1644846519.265625,P08,D11,1,0,0
1363,0.59,1644846519.28125,P08,D11,1,0,0
1364,0.87,1644846519.296875,P08,D11,1,0,0
1365,1.07,1644846519.3125,P08,D11,1,0,0
1366,1.05,1644846519.328125,P08,D11,1,0,0
1367,0.77,1644846519.34375,P08,D11,1,0,0
1368,0.34,1644846519.359375,P08,D11,1,0,0
1369,-0.06,1644846519.375,P08,D11,1,0,0
1370,-0.25,1644846519.390625,P08,D11,1,0,0
1371,-0.17,1644846519.40625,P08,D11,1,0,0
1372,0.06,1644846519.421875,P08,D11,1,0,0
1373,0.27,1644846519.4375,P08,D11,1,0,0
1374,0.27,1644846519.453125,P08,D11,1,0,0
1375,0.02,1644846519.46875,P08,D11,1,0,0
1376,-0.35,1644846519.484375,P08,D11,1,0,0
1377,-0.64,1644846519.5,P08,D11,1,0,0
1378,-0.69,1644846519.515625,P08,D11,1,0,0
1379,-0.42,1644846519.53125,P08,D11,1,0,0
1380,0.07,1644846519.546875,P08,D11,1,0,0
1381,0.64,1644846519.5625,P08,D11,1,0,0
1382,1.1,1644846519.578125,P08,D11,1,0,0
1383,1.37,1644846519.59375,P08,D11,1,0,0
1384,1.41,1644846519.609375,P08,D11,1,0,0
1385,1.29,1644846519.625,P08,D11,1,0,0
1386,1.05,1644846519.640625,P08,D11,1,0,0
1387,0.8,1644846519.65625,P08,D11,1,0,0
1388,0.56,1644846519.671875,P08,D11,1,0,0
1389,0.39,1644846519.6875,P08,D11,1,0,0
1390,0.27,1644846519.703125,P08,D11,1,0,0
1391,0.19,1644846519.71875,P08,D11,1,0,0
1392,0.13,1644846519.734375,P08,D11,1,0,0
1393,0.05,1644846519.75,P08,D11,1,0,0
1394,-0.03,1644846519.765625,P08,D11,1,0,0
1395,-0.07,1644846519.78125,P08,D11,1,0,0
1396,-0.06,1644846519.796875,P08,D11,1,0,0
1397,0.02,1644846519.8125,P08,D11,1,0,0
1398,0.12,1644846519.828125,P08,D11,1,0,0
1399,0.15,1644846519.84375,P08,D11,1,0,0
1400,0.06,1644846519.859375,P08,D11,1,0,0
1401,-0.15,1644846519.875,P08,D11,1,0,0
1402,-0.42,1644846519.890625,P08,D11,1,0,0
1403,-0.64,1644846519.90625,P08,D11,1,0,0
1404,-0.74,1644846519.921875,P08,D11,1,0,0
1405,-0.69,1644846519.9375,P08,D11,1,0,0
1406,-0.5,1644846519.953125,P08,D11,1,0,0
1407,-0.28,1644846519.96875,P08,D11,1,0,0
1408,-0.09,1644846519.984375,P08,D11,1,0,0
1409,0.04,1644846520.0,P08,D11,1,0,0
1410,0.12,1644846520.015625,P08,D11,1,0,0
1411,0.18,1644846520.03125,P08,D11,1,0,0
1412,0.21,1644846520.046875,P08,D11,1,0,0
1413,0.17,1644846520.0625,P08,D11,1,0,0
1414,-0.03,1644846520.078125,P08,D11,1,0,0
1415,-0.41,1644846520.09375,P08,D11,1,0,0
1416,-0.9,1644846520.109375,P08,D11,1,0,0
1417,-1.36,1644846520.125,P08,D11,1,0,0
1418,-1.65,1644846520.140625,P08,D11,1,0,0
1419,-1.67,1644846520.15625,P08,D11,1,0,0
1420,-1.46,1644846520.171875,P08,D11,1,0,0
1421,-1.15,1644846520.1875,P08,D11,1,0,0
1422,-0.87,1644846520.203125,P08,D11,1,0,0
1423,-0.65,1644846520.21875,P08,D11,1,0,0
1424,-0.47,1644846520.234375,P08,D11,1,0,0
1425,-0.24,1644846520.25,P08,D11,1,0,0
1426,0.06,1644846520.265625,P08,D11,1,0,0
1427,0.38,1644846520.28125,P08,D11,1,0,0
1428,0.59,1644846520.296875,P08,D11,1,0,0
1429,0.59,1644846520.3125,P08,D11,1,0,0
1430,0.39,1644846520.328125,P08,D11,1,0,0
1431,0.08,1644846520.34375,P08,D11,1,0,0
1432,-0.16,1644846520.359375,P08,D11,1,0,0
1433,-0.2,1644846520.375,P08,D11,1,0,0
1434,-0.04,1644846520.390625,P08,D11,1,0,0
1435,0.21,1644846520.40625,P08,D11,1,0,0
1436,0.4,1644846520.421875,P08,D11,1,0,0
1437,0.44,1644846520.4375,P08,D11,1,0,0
1438,0.37,1644846520.453125,P08,D11,1,0,0
1439,0.29,1644846520.46875,P08,D11,1,0,0
1440,0.34,1644846520.484375,P08,D11,1,0,0
1441,0.55,1644846520.5,P08,D11,1,0,0
1442,0.83,1644846520.515625,P08,D11,1,0,0
1443,1.03,1644846520.53125,P08,D11,1,0,0
1444,1.02,1644846520.546875,P08,D11,1,0,0
1445,0.78,1644846520.5625,P08,D11,1,0,0
1446,0.41,1644846520.578125,P08,D11,1,0,0
1447,0.06,1644846520.59375,P08,D11,1,0,0
1448,-0.16,1644846520.609375,P08,D11,1,0,0
1449,-0.24,1644846520.625,P08,D11,1,0,0
1450,-0.24,1644846520.640625,P08,D11,1,0,0
1451,-0.2,1644846520.65625,P08,D11,1,0,0
1452,-0.14,1644846520.671875,P08,D11,1,0,0
1453,-0.01,1644846520.6875,P08,D11,1,0,0
1454,0.2,1644846520.703125,P08,D11,1,0,0
1455,0.44,1644846520.71875,P08,D11,1,0,0
1456,0.61,1644846520.734375,P08,D11,1,0,0
1457,0.6,1644846520.75,P08,D11,1,0,0
1458,0.36,1644846520.765625,P08,D11,1,0,0
1459,-0.03,1644846520.78125,P08,D11,1,0,0
1460,-0.39,1644846520.796875,P08,D11,1,0,0
1461,-0.57,1644846520.8125,P08,D11,1,0,0
1462,-0.49,1644846520.828125,P08,D11,1,0,0
1463,-0.21,1644846520.84375,P08,D11,1,0,0
1464,0.13,1644846520.859375,P08,D11,1,0,0
1465,0.37,1644846520.875,P08,D11,1,0,0
1466,0.41,1644846520.890625,P08,D11,1,0,0
1467,0.27,1644846520.90625,P08,D11,1,0,0
1468,-0.0,1644846520.921875,P08,D11,1,0,0
1469,-0.34,1644846520.9375,P08,D11,1,0,0
1470,-0.71,1644846520.953125,P08,D11,1,0,0
1471,-1.1,1644846520.96875,P08,D11,1,0,0
1472,-1.45,1644846520.984375,P08,D11,1,0,0
1473,-1.71,1644846521.0,P08,D11,1,0,0
1474,-1.79,1644846521.015625,P08,D11,1,0,0
1475,-1.63,1644846521.03125,P08,D11,1,0,0
1476,-1.26,1644846521.046875,P08,D11,1,0,0
1477,-0.79,1644846521.0625,P08,D11,1,0,0
1478,-0.35,1644846521.078125,P08,D11,1,0,0
1479,-0.06,1644846521.09375,P08,D11,1,0,0
1480,0.04,1644846521.109375,P08,D11,1,0,0
1481,0.04,1644846521.125,P08,D11,1,0,0
1482,0.04,1644846521.140625,P08,D11,1,0,0
1483,0.12,1644846521.15625,P08,D11,1,0,0
1484,0.31,1644846521.171875,P08,D11,1,0,0
1485,0.52,1644846521.1875,P08,D11,1,0,0
1486,0.65,1644846521.203125,P08,D11,1,0,0
1487,0.64,1644846521.21875,P08,D11,1,0,0
1488,0.52,1644846521.234375,P08,D11,1,0,0
1489,0.35,1644846521.25,P08,D11,1,0,0
1490,0.24,1644846521.265625,P08,D11,1,0,0
1491,0.26,1644846521.28125,P08,D11,1,0,0
1492,0.38,1644846521.296875,P08,D11,1,0,0
1493,0.56,1644846521.3125,P08,D11,1,0,0
1494,0.73,1644846521.328125,P08,D11,1,0,0
1495,0.85,1644846521.34375,P08,D11,1,0,0
1496,0.96,1644846521.359375,P08,D11,1,0,0
1497,1.07,1644846521.375,P08,D11,1,0,0
1498,1.2,1644846521.390625,P08,D11,1,0,0
1499,1.29,1644846521.40625,P08,D11,1,0,0
1500,1.29,1644846521.421875,P08,D11,1,0,0
1501,1.13,1644846521.4375,P08,D11,1,0,0
1502,0.84,1644846521.453125,P08,D11,1,0,0
1503,0.5,1644846521.46875,P08,D11,1,0,0
1504,0.23,1644846521.484375,P08,D11,1,0,0
1505,0.1,1644846521.5,P08,D11,1,0,0
1506,0.1,1644846521.515625,P08,D11,1,0,0
1507,0.11,1644846521.53125,P08,D11,1,0,0
1508,0.01,1644846521.546875,P08,D11,1,0,0
1509,-0.27,1644846521.5625,P08,D11,1,0,0
1510,-0.67,1644846521.578125,P08,D11,1,0,0
1511,-1.08,1644846521.59375,P08,D11,1,0,0
1512,-1.32,1644846521.609375,P08,D11,1,0,0
1513,-1.31,1644846521.625,P08,D11,1,0,0
1514,-1.04,1644846521.640625,P08,D11,1,0,0
1515,-0.61,1644846521.65625,P08,D11,1,0,0
1516,-0.18,1644846521.671875,P08,D11,1,0,0
1517,0.13,1644846521.6875,P08,D11,1,0,0
1518,0.24,1644846521.703125,P08,D11,1,0,0
1519,0.15,1644846521.71875,P08,D11,1,0,0
1520,-0.07,1644846521.734375,P08,D11,1,0,0
1521,-0.35,1644846521.75,P08,D11,1,0,0
1522,-0.61,1644846521.765625,P08,D11,1,0,0
1523,-0.78,1644846521.78125,P08,D11,1,0,0
1524,-0.83,1644846521.796875,P08,D11,1,0,0
1525,-0.73,1644846521.8125,P08,D11,1,0,0
1526,-0.48,1644846521.828125,P08,D11,1,0,0
1527,-0.11,1644846521.84375,P08,D11,1,0,0
1528,0.31,1644846521.859375,P08,D11,1,0,0
1529,0.67,1644846521.875,P08,D11,1,0,0
1530,0.86,1644846521.890625,P08,D11,1,0,0
1531,0.81,1644846521.90625,P08,D11,1,0,0
1532,0.5,1644846521.921875,P08,D11,1,0,0
1533,0.02,1644846521.9375,P08,D11,1,0,0
1534,-0.51,1644846521.953125,P08,D11,1,0,0
1535,-0.93,1644846521.96875,P08,D11,1,0,0
1536,-1.12,1644846521.984375,P08,D11,1,0,0
1537,-1.06,1644846522.0,P08,D11,1,0,0
1538,-0.79,1644846522.015625,P08,D11,1,0,0
1539,-0.42,1644846522.03125,P08,D11,1,0,0
1540,-0.09,1644846522.046875,P08,D11,1,0,0
1541,0.11,1644846522.0625,P08,D11,1,0,0
1542,0.16,1644846522.078125,P08,D11,1,0,0
1543,0.08,1644846522.09375,P08,D11,1,0,0
1544,-0.07,1644846522.109375,P08,D11,1,0,0
1545,-0.22,1644846522.125,P08,D11,1,0,0
1546,-0.32,1644846522.140625,P08,D11,1,0,0
1547,-0.35,1644846522.15625,P08,D11,1,0,0
1548,-0.29,1644846522.171875,P08,D11,1,0,0
1549,-0.16,1644846522.1875,P08,D11,1,0,0
1550,0.01,1644846522.203125,P08,D11,1,0,0
1551,0.18,1644846522.21875,P08,D11,1,0,0
1552,0.3,1644846522.234375,P08,D11,1,0,0
1553,0.33,1644846522.25,P08,D11,1,0,0
1554,0.29,1644846522.265625,P08,D11,1,0,0
1555,0.27,1644846522.28125,P08,D11,1,0,0
1556,0.3,1644846522.296875,P08,D11,1,0,0
1557,0.41,1644846522.3125,P08,D11,1,0,0
1558,0.53,1644846522.328125,P08,D11,1,0,0
1559,0.57,1644846522.34375,P08,D11,1,0,0
1560,0.49,1644846522.359375,P08,D11,1,0,0
1561,0.32,1644846522.375,P08,D11,1,0,0
1562,0.14,1644846522.390625,P08,D11,1,0,0
1563,0.04,1644846522.40625,P08,D11,1,0,0
1564,0.05,1644846522.421875,P08,D11,1,0,0
1565,0.12,1644846522.4375,P08,D11,1,0,0
1566,0.16,1644846522.453125,P08,D11,1,0,0
1567,0.13,1644846522.46875,P08,D11,1,0,0
1568,0.07,1644846522.484375,P08,D11,1,0,0
1569,0.07,1644846522.5,P08,D11,1,0,0
1570,0.25,1644846522.515625,P08,D11,1,0,0
1571,0.58,1644846522.53125,P08,D11,1,0,0
1572,0.98,1644846522.546875,P08,D11,1,0,0
1573,1.27,1644846522.5625,P08,D11,1,0,0
1574,1.33,1644846522.578125,P08,D11,1,0,0
1575,1.12,1644846522.59375,P08,D11,1,0,0
1576,0.72,1644846522.609375,P08,D11,1,0,0
1577,0.28,1644846522.625,P08,D11,1,0,0
1578,-0.06,1644846522.640625,P08,D11,1,0,0
1579,-0.23,1644846522.65625,P08,D11,1,0,0
1580,-0.25,1644846522.671875,P08,D11,1,0,0
1581,-0.19,1644846522.6875,P08,D11,1,0,0
1582,-0.13,1644846522.703125,P08,D11,1,0,0
1583,-0.13,1644846522.71875,P08,D11,1,0,0
1584,-0.19,1644846522.734375,P08,D11,1,0,0
1585,-0.33,1644846522.75,P08,D11,1,0,0
1586,-0.51,1644846522.765625,P08,D11,1,0,0
1587,-0.72,1644846522.78125,P08,D11,1,0,0
1588,-0.91,1644846522.796875,P08,D11,1,0,0
1589,-1.03,1644846522.8125,P08,D11,1,0,0
1590,-1.06,1644846522.828125,P08,D11,1,0,0
1591,-1.02,1644846522.84375,P08,D11,1,0,0
1592,-0.94,1644846522.859375,P08,D11,1,0,0
1593,-0.84,1644846522.875,P08,D11,1,0,0
1594,-0.75,1644846522.890625,P08,D11,1,0,0
1595,-0.65,1644846522.90625,P08,D11,1,0,0
1596,-0.49,1644846522.921875,P08,D11,1,0,0
1597,-0.29,1644846522.9375,P08,D11,1,0,0
1598,-0.06,1644846522.953125,P08,D11,1,0,0
1599,0.13,1644846522.96875,P08,D11,1,0,0
1600,0.24,1644846522.984375,P08,D11,1,0,0
1601,0.27,1644846523.0,P08,D11,1,0,0
1602,0.24,1644846523.015625,P08,D11,1,0,0
1603,0.2,1644846523.03125,P08,D11,1,0,0
1604,0.15,1644846523.046875,P08,D11,1,0,0
1605,0.06,1644846523.0625,P08,D11,1,0,0
1606,-0.09,1644846523.078125,P08,D11,1,0,0
1607,-0.29,1644846523.09375,P08,D11,1,0,0
1608,-0.5,1644846523.109375,P08,D11,1,0,0
1609,-0.66,1644846523.125,P08,D11,1,0,0
1610,-0.74,1644846523.140625,P08,D11,1,0,0
1611,-0.75,1644846523.15625,P08,D11,1,0,0
1612,-0.73,1644846523.171875,P08,D11,1,0,0
1613,-0.69,1644846523.1875,P08,D11,1,0,0
1614,-0.61,1644846523.203125,P08,D11,1,0,0
1615,-0.41,1644846523.21875,P08,D11,1,0,0
1616,-0.04,1644846523.234375,P08,D11,1,0,0
1617,0.48,1644846523.25,P08,D11,1,0,0
1618,1.03,1644846523.265625,P08,D11,1,0,0
1619,1.44,1644846523.28125,P08,D11,1,0,0
1620,1.56,1644846523.296875,P08,D11,1,0,0
1621,1.34,1644846523.3125,P08,D11,1,0,0
1622,0.84,1644846523.328125,P08,D11,1,0,0
1623,0.22,1644846523.34375,P08,D11,1,0,0
1624,-0.33,1644846523.359375,P08,D11,1,0,0
1625,-0.66,1644846523.375,P08,D11,1,0,0
1626,-0.69,1644846523.390625,P08,D11,1,0,0
1627,-0.47,1644846523.40625,P08,D11,1,0,0
1628,-0.12,1644846523.421875,P08,D11,1,0,0
1629,0.22,1644846523.4375,P08,D11,1,0,0
1630,0.4,1644846523.453125,P08,D11,1,0,0
1631,0.36,1644846523.46875,P08,D11,1,0,0
1632,0.11,1644846523.484375,P08,D11,1,0,0
1633,-0.27,1644846523.5,P08,D11,1,0,0
1634,-0.68,1644846523.515625,P08,D11,1,0,0
1635,-0.99,1644846523.53125,P08,D11,1,0,0
1636,-1.16,1644846523.546875,P08,D11,1,0,0
1637,-1.19,1644846523.5625,P08,D11,1,0,0
1638,-1.11,1644846523.578125,P08,D11,1,0,0
1639,-0.98,1644846523.59375,P08,D11,1,0,0
1640,-0.84,1644846523.609375,P08,D11,1,0,0
1641,-0.69,1644846523.625,P08,D11,1,0,0
1642,-0.5,1644846523.640625,P08,D11,1,0,0
1643,-0.27,1644846523.65625,P08,D11,1,0,0
1644,-0.01,1644846523.671875,P08,D11,1,0,0
1645,0.21,1644846523.6875,P08,D11,1,0,0
1646,0.34,1644846523.703125,P08,D11,1,0,0
1647,0.35,1644846523.71875,P08,D11,1,0,0
1648,0.22,1644846523.734375,P08,D11,1,0,0
1649,0.03,1644846523.75,P08,D11,1,0,0
1650,-0.14,1644846523.765625,P08,D11,1,0,0
1651,-0.19,1644846523.78125,P08,D11,1,0,0
1652,-0.06,1644846523.796875,P08,D11,1,0,0
1653,0.26,1644846523.8125,P08,D11,1,0,0
1654,0.71,1644846523.828125,P08,D11,1,0,0
1655,1.17,1644846523.84375,P08,D11,1,0,0
1656,1.53,1644846523.859375,P08,D11,1,0,0
1657,1.69,1644846523.875,P08,D11,1,0,0
1658,1.63,1644846523.890625,P08,D11,1,0,0
1659,1.35,1644846523.90625,P08,D11,1,0,0
1660,0.95,1644846523.921875,P08,D11,1,0,0
1661,0.51,1644846523.9375,P08,D11,1,0,0
1662,0.11,1644846523.953125,P08,D11,1,0,0
1663,-0.19,1644846523.96875,P08,D11,1,0,0
1664,-0.4,1644846523.984375,P08,D11,1,0,0
1665,-0.53,1644846524.0,P08,D11,1,0,0
1666,-0.63,1644846524.015625,P08,D11,1,0,0
1667,-0.71,1644846524.03125,P08,D11,1,0,0
1668,-0.77,1644846524.046875,P08,D11,1,0,0
1669,-0.81,1644846524.0625,P08,D11,1,0,0
1670,-0.8,1644846524.078125,P08,D11,1,0,0
1671,-0.76,1644846524.09375,P08,D11,1,0,0
1672,-0.69,1644846524.109375,P08,D11,1,0,0
1673,-0.6,1644846524.125,P08,D11,1,0,0
1674,-0.52,1644846524.140625,P08,D11,1,0,0
1675,-0.46,1644846524.15625,P08,D11,1,0,0
1676,-0.43,1644846524.171875,P08,D11,1,0,0
1677,-0.43,1644846524.1875,P08,D11,1,0,0
1678,-0.48,1644846524.203125,P08,D11,1,0,0
1679,-0.55,1644846524.21875,P08,D11,1,0,0
1680,-0.62,1644846524.234375,P08,D11,1,0,0
1681,-0.66,1644846524.25,P08,D11,1,0,0
1682,-0.65,1644846524.265625,P08,D11,1,0,0
1683,-0.62,1644846524.28125,P08,D11,1,0,0
1684,-0.6,1644846524.296875,P08,D11,1,0,0
1685,-0.64,1644846524.3125,P08,D11,1,0,0
1686,-0.73,1644846524.328125,P08,D11,1,0,0
1687,-0.86,1644846524.34375,P08,D11,1,0,0
1688,-0.99,1644846524.359375,P08,D11,1,0,0
1689,-1.07,1644846524.375,P08,D11,1,0,0
1690,-1.07,1644846524.390625,P08,D11,1,0,0
1691,-0.97,1644846524.40625,P08,D11,1,0,0
1692,-0.75,1644846524.421875,P08,D11,1,0,0
1693,-0.39,1644846524.4375,P08,D11,1,0,0
1694,0.1,1644846524.453125,P08,D11,1,0,0
1695,0.67,1644846524.46875,P08,D11,1,0,0
1696,1.23,1644846524.484375,P08,D11,1,0,0
1697,1.64,1644846524.5,P08,D11,1,0,0
1698,1.81,1644846524.515625,P08,D11,1,0,0
1699,1.71,1644846524.53125,P08,D11,1,0,0
1700,1.4,1644846524.546875,P08,D11,1,0,0
1701,1.01,1644846524.5625,P08,D11,1,0,0
1702,0.67,1644846524.578125,P08,D11,1,0,0
1703,0.49,1644846524.59375,P08,D11,1,0,0
1704,0.49,1644846524.609375,P08,D11,1,0,0
1705,0.62,1644846524.625,P08,D11,1,0,0
1706,0.74,1644846524.640625,P08,D11,1,0,0
1707,0.72,1644846524.65625,P08,D11,1,0,0
1708,0.49,1644846524.671875,P08,D11,1,0,0
1709,0.06,1644846524.6875,P08,D11,1,0,0
1710,-0.45,1644846524.703125,P08,D11,1,0,0
1711,-0.85,1644846524.71875,P08,D11,1,0,0
1712,-1.02,1644846524.734375,P08,D11,1,0,0
1713,-0.91,1644846524.75,P08,D11,1,0,0
1714,-0.58,1644846524.765625,P08,D11,1,0,0
1715,-0.22,1644846524.78125,P08,D11,1,0,0
1716,0.01,1644846524.796875,P08,D11,1,0,0
1717,-0.02,1644846524.8125,P08,D11,1,0,0
1718,-0.3,1644846524.828125,P08,D11,1,0,0
1719,-0.73,1644846524.84375,P08,D11,1,0,0
1720,-1.14,1644846524.859375,P08,D11,1,0,0
1721,-1.41,1644846524.875,P08,D11,1,0,0
1722,-1.52,1644846524.890625,P08,D11,1,0,0
1723,-1.48,1644846524.90625,P08,D11,1,0,0
1724,-1.37,1644846524.921875,P08,D11,1,0,0
1725,-1.24,1644846524.9375,P08,D11,1,0,0
1726,-1.12,1644846524.953125,P08,D11,1,0,0
1727,-1.01,1644846524.96875,P08,D11,1,0,0
1728,-0.91,1644846524.984375,P08,D11,1,0,0
1729,-0.82,1644846525.0,P08,D11,1,0,0
1730,-0.74,1644846525.015625,P08,D11,1,0,0
1731,-0.67,1644846525.03125,P08,D11,1,0,0
1732,-0.55,1644846525.046875,P08,D11,1,0,0
1733,-0.34,1644846525.0625,P08,D11,1,0,0
1734,0.01,1644846525.078125,P08,D11,1,0,0
1735,0.48,1644846525.09375,P08,D11,1,0,0
1736,0.98,1644846525.109375,P08,D11,1,0,0
1737,1.38,1644846525.125,P08,D11,1,0,0
1738,1.58,1644846525.140625,P08,D11,1,0,0
1739,1.56,1644846525.15625,P08,D11,1,0,0
1740,1.36,1644846525.171875,P08,D11,1,0,0
1741,1.08,1644846525.1875,P08,D11,1,0,0
1742,0.81,1644846525.203125,P08,D11,1,0,0
1743,0.57,1644846525.21875,P08,D11,1,0,0
1744,0.36,1644846525.234375,P08,D11,1,0,0
1745,0.19,1644846525.25,P08,D11,1,0,0
1746,0.07,1644846525.265625,P08,D11,1,0,0
1747,0.01,1644846525.28125,P08,D11,1,0,0
1748,0.05,1644846525.296875,P08,D11,1,0,0
1749,0.14,1644846525.3125,P08,D11,1,0,0
1750,0.23,1644846525.328125,P08,D11,1,0,0
1751,0.28,1644846525.34375,P08,D11,1,0,0
1752,0.28,1644846525.359375,P08,D11,1,0,0
1753,0.27,1644846525.375,P08,D11,1,0,0
1754,0.32,1644846525.390625,P08,D11,1,0,0
1755,0.49,1644846525.40625,P08,D11,1,0,0
1756,0.78,1644846525.421875,P08,D11,1,0,0
1757,1.13,1644846525.4375,P08,D11,1,0,0
1758,1.42,1644846525.453125,P08,D11,1,0,0
1759,1.55,1644846525.46875,P08,D11,1,0,0
1760,1.44,1644846525.484375,P08,D11,1,0,0
1761,1.12,1644846525.5,P08,D11,1,0,0
1762,0.69,1644846525.515625,P08,D11,1,0,0
1763,0.28,1644846525.53125,P08,D11,1,0,0
1764,0.05,1644846525.546875,P08,D11,1,0,0
1765,0.09,1644846525.5625,P08,D11,1,0,0
1766,0.39,1644846525.578125,P08,D11,1,0,0
1767,0.83,1644846525.59375,P08,D11,1,0,0
1768,1.25,1644846525.609375,P08,D11,1,0,0
1769,1.44,1644846525.625,P08,D11,1,0,0
1770,1.26,1644846525.640625,P08,D11,1,0,0
1771,0.7,1644846525.65625,P08,D11,1,0,0
1772,-0.14,1644846525.671875,P08,D11,1,0,0
1773,-1.05,1644846525.6875,P08,D11,1,0,0
1774,-1.78,1644846525.703125,P08,D11,1,0,0
1775,-2.16,1644846525.71875,P08,D11,1,0,0
1776,-2.1,1644846525.734375,P08,D11,1,0,0
1777,-1.66,1644846525.75,P08,D11,1,0,0
1778,-1.03,1644846525.765625,P08,D11,1,0,0
1779,-0.41,1644846525.78125,P08,D11,1,0,0
1780,0.03,1644846525.796875,P08,D11,1,0,0
1781,0.25,1644846525.8125,P08,D11,1,0,0
1782,0.29,1644846525.828125,P08,D11,1,0,0
1783,0.26,1644846525.84375,P08,D11,1,0,0
1784,0.27,1644846525.859375,P08,D11,1,0,0
1785,0.33,1644846525.875,P08,D11,1,0,0
1786,0.42,1644846525.890625,P08,D11,1,0,0
1787,0.48,1644846525.90625,P08,D11,1,0,0
1788,0.48,1644846525.921875,P08,D11,1,0,0
1789,0.43,1644846525.9375,P08,D11,1,0,0
1790,0.37,1644846525.953125,P08,D11,1,0,0
1791,0.36,1644846525.96875,P08,D11,1,0,0
1792,0.41,1644846525.984375,P08,D11,1,0,0
1793,0.47,1644846526.0,P08,D11,1,0,0
1794,0.48,1644846526.015625,P08,D11,1,0,0
1795,0.38,1644846526.03125,P08,D11,1,0,0
1796,0.18,1644846526.046875,P08,D11,1,0,0
1797,-0.08,1644846526.0625,P08,D11,1,0,0
1798,-0.31,1644846526.078125,P08,D11,1,0,0
1799,-0.44,1644846526.09375,P08,D11,1,0,0
1800,-0.44,1644846526.109375,P08,D11,1,0,0
1801,-0.35,1644846526.125,P08,D11,1,0,0
1802,-0.25,1644846526.140625,P08,D11,1,0,0
1803,-0.21,1644846526.15625,P08,D11,1,0,0
1804,-0.25,1644846526.171875,P08,D11,1,0,0
1805,-0.3,1644846526.1875,P08,D11,1,0,0
1806,-0.3,1644846526.203125,P08,D11,1,0,0
1807,-0.17,1644846526.21875,P08,D11,1,0,0
1808,0.06,1644846526.234375,P08,D11,1,0,0
1809,0.31,1644846526.25,P08,D11,1,0,0
1810,0.51,1644846526.265625,P08,D11,1,0,0
1811,0.6,1644846526.28125,P08,D11,1,0,0
1812,0.58,1644846526.296875,P08,D11,1,0,0
1813,0.53,1644846526.3125,P08,D11,1,0,0
1814,0.47,1644846526.328125,P08,D11,1,0,0
1815,0.47,1644846526.34375,P08,D11,1,0,0
1816,0.5,1644846526.359375,P08,D11,1,0,0
1817,0.55,1644846526.375,P08,D11,1,0,0
1818,0.61,1644846526.390625,P08,D11,1,0,0
1819,0.65,1644846526.40625,P08,D11,1,0,0
1820,0.63,1644846526.421875,P08,D11,1,0,0
1821,0.51,1644846526.4375,P08,D11,1,0,0
1822,0.27,1644846526.453125,P08,D11,1,0,0
1823,-0.04,1644846526.46875,P08,D11,1,0,0
1824,-0.37,1644846526.484375,P08,D11,1,0,0
1825,-0.62,1644846526.5,P08,D11,1,0,0
1826,-0.74,1644846526.515625,P08,D11,1,0,0
1827,-0.73,1644846526.53125,P08,D11,1,0,0
1828,-0.63,1644846526.546875,P08,D11,1,0,0
1829,-0.5,1644846526.5625,P08,D11,1,0,0
1830,-0.39,1644846526.578125,P08,D11,1,0,0
1831,-0.29,1644846526.59375,P08,D11,1,0,0
1832,-0.21,1644846526.609375,P08,D11,1,0,0
1833,-0.19,1644846526.625,P08,D11,1,0,0
1834,-0.23,1644846526.640625,P08,D11,1,0,0
1835,-0.38,1644846526.65625,P08,D11,1,0,0
1836,-0.59,1644846526.671875,P08,D11,1,0,0
1837,-0.8,1644846526.6875,P08,D11,1,0,0
1838,-0.89,1644846526.703125,P08,D11,1,0,0
1839,-0.81,1644846526.71875,P08,D11,1,0,0
1840,-0.55,1644846526.734375,P08,D11,1,0,0
1841,-0.21,1644846526.75,P08,D11,1,0,0
1842,0.09,1644846526.765625,P08,D11,1,0,0
1843,0.26,1644846526.78125,P08,D11,1,0,0
1844,0.29,1644846526.796875,P08,D11,1,0,0
1845,0.27,1644846526.8125,P08,D11,1,0,0
1846,0.28,1644846526.828125,P08,D11,1,0,0
1847,0.37,1644846526.84375,P08,D11,1,0,0
1848,0.49,1644846526.859375,P08,D11,1,0,0
1849,0.55,1644846526.875,P08,D11,1,0,0
1850,0.47,1644846526.890625,P08,D11,1,0,0
1851,0.23,1644846526.90625,P08,D11,1,0,0
1852,-0.12,1644846526.921875,P08,D11,1,0,0
1853,-0.5,1644846526.9375,P08,D11,1,0,0
1854,-0.83,1644846526.953125,P08,D11,1,0,0
1855,-1.04,1644846526.96875,P08,D11,1,0,0
1856,-1.09,1644846526.984375,P08,D11,1,0,0
1857,-0.96,1644846527.0,P08,D11,1,0,0
1858,-0.63,1644846527.015625,P08,D11,1,0,0
1859,-0.13,1644846527.03125,P08,D11,1,0,0
1860,0.46,1644846527.046875,P08,D11,1,0,0
1861,0.99,1644846527.0625,P08,D11,1,0,0
1862,1.32,1644846527.078125,P08,D11,1,0,0
1863,1.39,1644846527.09375,P08,D11,1,0,0
1864,1.2,1644846527.109375,P08,D11,1,0,0
1865,0.87,1644846527.125,P08,D11,1,0,0
1866,0.53,1644846527.140625,P08,D11,1,0,0
1867,0.31,1644846527.15625,P08,D11,1,0,0
1868,0.25,1644846527.171875,P08,D11,1,0,0
1869,0.35,1644846527.1875,P08,D11,1,0,0
1870,0.53,1644846527.203125,P08,D11,1,0,0
1871,0.69,1644846527.21875,P08,D11,1,0,0
1872,0.76,1644846527.234375,P08,D11,1,0,0
1873,0.71,1644846527.25,P08,D11,1,0,0
1874,0.57,1644846527.265625,P08,D11,1,0,0
1875,0.39,1644846527.28125,P08,D11,1,0,0
1876,0.25,1644846527.296875,P08,D11,1,0,0
1877,0.16,1644846527.3125,P08,D11,1,0,0
1878,0.12,1644846527.328125,P08,D11,1,0,0
1879,0.1,1644846527.34375,P08,D11,1,0,0
1880,0.07,1644846527.359375,P08,D11,1,0,0
1881,0.06,1644846527.375,P08,D11,1,0,0
1882,0.1,1644846527.390625,P08,D11,1,0,0
1883,0.21,1644846527.40625,P08,D11,1,0,0
1884,0.37,1644846527.421875,P08,D11,1,0,0
1885,0.54,1644846527.4375,P08,D11,1,0,0
1886,0.65,1644846527.453125,P08,D11,1,0,0
1887,0.68,1644846527.46875,P08,D11,1,0,0
1888,0.65,1644846527.484375,P08,D11,1,0,0
1889,0.59,1644846527.5,P08,D11,1,0,0
1890,0.56,1644846527.515625,P08,D11,1,0,0
1891,0.56,1644846527.53125,P08,D11,1,0,0
1892,0.57,1644846527.546875,P08,D11,1,0,0
1893,0.54,1644846527.5625,P08,D11,1,0,0
1894,0.41,1644846527.578125,P08,D11,1,0,0
1895,0.17,1644846527.59375,P08,D11,1,0,0
1896,-0.13,1644846527.609375,P08,D11,1,0,0
1897,-0.42,1644846527.625,P08,D11,1,0,0
1898,-0.62,1644846527.640625,P08,D11,1,0,0
1899,-0.67,1644846527.65625,P08,D11,1,0,0
1900,-0.59,1644846527.671875,P08,D11,1,0,0
1901,-0.44,1644846527.6875,P08,D11,1,0,0
1902,-0.27,1644846527.703125,P08,D11,1,0,0
1903,-0.15,1644846527.71875,P08,D11,1,0,0
1904,-0.08,1644846527.734375,P08,D11,1,0,0
1905,-0.07,1644846527.75,P08,D11,1,0,0
1906,-0.13,1644846527.765625,P08,D11,1,0,0
1907,-0.28,1644846527.78125,P08,D11,1,0,0
1908,-0.54,1644846527.796875,P08,D11,1,0,0
1909,-0.89,1644846527.8125,P08,D11,1,0,0
1910,-1.26,1644846527.828125,P08,D11,1,0,0
1911,-1.55,1644846527.84375,P08,D11,1,0,0
1912,-1.65,1644846527.859375,P08,D11,1,0,0
1913,-1.49,1644846527.875,P08,D11,1,0,0
1914,-1.1,1644846527.890625,P08,D11,1,0,0
1915,-0.57,1644846527.90625,P08,D11,1,0,0
1916,-0.03,1644846527.921875,P08,D11,1,0,0
1917,0.38,1644846527.9375,P08,D11,1,0,0
1918,0.56,1644846527.953125,P08,D11,1,0,0
1919,0.48,1644846527.96875,P08,D11,1,0,0
1920,0.19,1644846527.984375,P08,D11,1,0,0
1921,-0.2,1644846528.0,P08,D11,1,0,0
1922,-0.53,1644846528.015625,P08,D11,1,0,0
1923,-0.69,1644846528.03125,P08,D11,1,0,0
1924,-0.64,1644846528.046875,P08,D11,1,0,0
1925,-0.46,1644846528.0625,P08,D11,1,0,0
1926,-0.29,1644846528.078125,P08,D11,1,0,0
1927,-0.22,1644846528.09375,P08,D11,1,0,0
1928,-0.29,1644846528.109375,P08,D11,1,0,0
1929,-0.42,1644846528.125,P08,D11,1,0,0
1930,-0.48,1644846528.140625,P08,D11,1,0,0
1931,-0.42,1644846528.15625,P08,D11,1,0,0
1932,-0.26,1644846528.171875,P08,D11,1,0,0
1933,-0.12,1644846528.1875,P08,D11,1,0,0
1934,-0.11,1644846528.203125,P08,D11,1,0,0
1935,-0.26,1644846528.21875,P08,D11,1,0,0
1936,-0.49,1644846528.234375,P08,D11,1,0,0
1937,-0.66,1644846528.25,P08,D11,1,0,0
1938,-0.67,1644846528.265625,P08,D11,1,0,0
1939,-0.51,1644846528.28125,P08,D11,1,0,0
1940,-0.27,1644846528.296875,P08,D11,1,0,0
1941,-0.05,1644846528.3125,P08,D11,1,0,0
1942,0.09,1644846528.328125,P08,D11,1,0,0
1943,0.14,1644846528.34375,P08,D11,1,0,0
1944,0.12,1644846528.359375,P08,D11,1,0,0
1945,0.06,1644846528.375,P08,D11,1,0,0
1946,-0.05,1644846528.390625,P08,D11,1,0,0
1947,-0.17,1644846528.40625,P08,D11,1,0,0
1948,-0.26,1644846528.421875,P08,D11,1,0,0
1949,-0.25,1644846528.4375,P08,D11,1,0,0
1950,-0.09,1644846528.453125,P08,D11,1,0,0
1951,0.21,1644846528.46875,P08,D11,1,0,0
1952,0.56,1644846528.484375,P08,D11,1,0,0
1953,0.84,1644846528.5,P08,D11,1,0,0
1954,0.98,1644846528.515625,P08,D11,1,0,0
1955,1.0,1644846528.53125,P08,D11,1,0,0
1956,0.99,1644846528.546875,P08,D11,1,0,0
1957,1.04,1644846528.5625,P08,D11,1,0,0
1958,1.19,1644846528.578125,P08,D11,1,0,0
1959,1.4,1644846528.59375,P08,D11,1,0,0
1960,1.55,1644846528.609375,P08,D11,1,0,0
1961,1.54,1644846528.625,P08,D11,1,0,0
1962,1.37,1644846528.640625,P08,D11,1,0,0
1963,1.1,1644846528.65625,P08,D11,1,0,0
1964,0.87,1644846528.671875,P08,D11,1,0,0
1965,0.75,1644846528.6875,P08,D11,1,0,0
1966,0.74,1644846528.703125,P08,D11,1,0,0
1967,0.76,1644846528.71875,P08,D11,1,0,0
1968,0.73,1644846528.734375,P08,D11,1,0,0
1969,0.61,1644846528.75,P08,D11,1,0,0
1970,0.45,1644846528.765625,P08,D11,1,0,0
1971,0.32,1644846528.78125,P08,D11,1,0,0
1972,0.29,1644846528.796875,P08,D11,1,0,0
1973,0.32,1644846528.8125,P08,D11,1,0,0
1974,0.34,1644846528.828125,P08,D11,1,0,0
1975,0.25,1644846528.84375,P08,D11,1,0,0
1976,0.01,1644846528.859375,P08,D11,1,0,0
1977,-0.3,1644846528.875,P08,D11,1,0,0
1978,-0.55,1644846528.890625,P08,D11,1,0,0
1979,-0.64,1644846528.90625,P08,D11,1,0,0
1980,-0.55,1644846528.921875,P08,D11,1,0,0
1981,-0.39,1644846528.9375,P08,D11,1,0,0
1982,-0.29,1644846528.953125,P08,D11,1,0,0
1983,-0.39,1644846528.96875,P08,D11,1,0,0
1984,-0.67,1644846528.984375,P08,D11,1,0,0
1985,-1.05,1644846529.0,P08,D11,1,0,0
1986,-1.34,1644846529.015625,P08,D11,1,0,0
1987,-1.43,1644846529.03125,P08,D11,1,0,0
1988,-1.29,1644846529.046875,P08,D11,1,0,0
1989,-0.98,1644846529.0625,P08,D11,1,0,0
1990,-0.64,1644846529.078125,P08,D11,1,0,0
1991,-0.41,1644846529.09375,P08,D11,1,0,0
1992,-0.38,1644846529.109375,P08,D11,1,0,0
1993,-0.53,1644846529.125,P08,D11,1,0,0
1994,-0.78,1644846529.140625,P08,D11,1,0,0
1995,-1.0,1644846529.15625,P08,D11,1,0,0
1996,-1.1,1644846529.171875,P08,D11,1,0,0
1997,-1.03,1644846529.1875,P08,D11,1,0,0
1998,-0.84,1644846529.203125,P08,D11,1,0,0
1999,-0.63,1644846529.21875,P08,D11,1,0,0
2000,-0.47,1644846529.234375,P08,D11,1,0,0
2001,-0.42,1644846529.25,P08,D11,1,0,0
2002,-0.46,1644846529.265625,P08,D11,1,0,0
2003,-0.48,1644846529.28125,P08,D11,1,0,0
2004,-0.38,1644846529.296875,P08,D11,1,0,0
2005,-0.1,1644846529.3125,P08,D11,1,0,0
2006,0.29,1644846529.328125,P08,D11,1,0,0
2007,0.66,1644846529.34375,P08,D11,1,0,0
2008,0.86,1644846529.359375,P08,D11,1,0,0
2009,0.81,1644846529.375,P08,D11,1,0,0
2010,0.58,1644846529.390625,P08,D11,1,0,0
2011,0.32,1644846529.40625,P08,D11,1,0,0
2012,0.19,1644846529.421875,P08,D11,1,0,0
2013,0.25,1644846529.4375,P08,D11,1,0,0
2014,0.44,1644846529.453125,P08,D11,1,0,0
2015,0.63,1644846529.46875,P08,D11,1,0,0
2016,0.68,1644846529.484375,P08,D11,1,0,0
2017,0.6,1644846529.5,P08,D11,1,0,0
2018,0.45,1644846529.515625,P08,D11,1,0,0
2019,0.34,1644846529.53125,P08,D11,1,0,0
2020,0.31,1644846529.546875,P08,D11,1,0,0
2021,0.29,1644846529.5625,P08,D11,1,0,0
2022,0.17,1644846529.578125,P08,D11,1,0,0
2023,-0.1,1644846529.59375,P08,D11,1,0,0
2024,-0.49,1644846529.609375,P08,D11,1,0,0
2025,-0.86,1644846529.625,P08,D11,1,0,0
2026,-1.07,1644846529.640625,P08,D11,1,0,0
2027,-1.07,1644846529.65625,P08,D11,1,0,0
2028,-0.89,1644846529.671875,P08,D11,1,0,0
2029,-0.59,1644846529.6875,P08,D11,1,0,0
2030,-0.26,1644846529.703125,P08,D11,1,0,0
2031,0.09,1644846529.71875,P08,D11,1,0,0
2032,0.42,1644846529.734375,P08,D11,1,0,0
2033,0.69,1644846529.75,P08,D11,1,0,0
2034,0.81,1644846529.765625,P08,D11,1,0,0
2035,0.71,1644846529.78125,P08,D11,1,0,0
2036,0.42,1644846529.796875,P08,D11,1,0,0
2037,0.0,1644846529.8125,P08,D11,1,0,0
2038,-0.39,1644846529.828125,P08,D11,1,0,0
2039,-0.63,1644846529.84375,P08,D11,1,0,0
2040,-0.65,1644846529.859375,P08,D11,1,0,0
2041,-0.49,1644846529.875,P08,D11,1,0,0
2042,-0.23,1644846529.890625,P08,D11,1,0,0
2043,0.06,1644846529.90625,P08,D11,1,0,0
2044,0.33,1644846529.921875,P08,D11,1,0,0
2045,0.55,1644846529.9375,P08,D11,1,0,0
2046,0.72,1644846529.953125,P08,D11,1,0,0
2047,0.83,1644846529.96875,P08,D11,1,0,0
2048,0.86,1644846529.984375,P08,D11,1,0,0
2049,0.81,1644846530.0,P08,D11,1,0,0
2050,0.71,1644846530.015625,P08,D11,1,0,0
2051,0.59,1644846530.03125,P08,D11,1,0,0
2052,0.5,1644846530.046875,P08,D11,1,0,0
2053,0.48,1644846530.0625,P08,D11,1,0,0
2054,0.52,1644846530.078125,P08,D11,1,0,0
2055,0.59,1644846530.09375,P08,D11,1,0,0
2056,0.6,1644846530.109375,P08,D11,1,0,0
2057,0.48,1644846530.125,P08,D11,1,0,0
2058,0.16,1644846530.140625,P08,D11,1,0,0
2059,-0.32,1644846530.15625,P08,D11,1,0,0
2060,-0.84,1644846530.171875,P08,D11,1,0,0
2061,-1.24,1644846530.1875,P08,D11,1,0,0
2062,-1.43,1644846530.203125,P08,D11,1,0,0
2063,-1.38,1644846530.21875,P08,D11,1,0,0
2064,-1.15,1644846530.234375,P08,D11,1,0,0
2065,-0.86,1644846530.25,P08,D11,1,0,0
2066,-0.58,1644846530.265625,P08,D11,1,0,0
2067,-0.35,1644846530.28125,P08,D11,1,0,0
2068,-0.16,1644846530.296875,P08,D11,1,0,0
2069,0.02,1644846530.3125,P08,D11,1,0,0
2070,0.18,1644846530.328125,P08,D11,1,0,0
2071,0.3,1644846530.34375,P08,D11,1,0,0
2072,0.34,1644846530.359375,P08,D11,1,0,0
2073,0.29,1644846530.375,P08,D11,1,0,0
2074,0.17,1644846530.390625,P08,D11,1,0,0
2075,0.01,1644846530.40625,P08,D11,1,0,0
2076,-0.16,1644846530.421875,P08,D11,1,0,0
2077,-0.31,1644846530.4375,P08,D11,1,0,0
2078,-0.39,1644846530.453125,P08,D11,1,0,0
2079,-0.36,1644846530.46875,P08,D11,1,0,0
2080,-0.21,1644846530.484375,P08,D11,1,0,0
2081,0.02,1644846530.5,P08,D11,1,0,0
2082,0.24,1644846530.515625,P08,D11,1,0,0
2083,0.39,1644846530.53125,P08,D11,1,0,0
2084,0.44,1644846530.546875,P08,D11,1,0,0
2085,0.4,1644846530.5625,P08,D11,1,0,0
2086,0.35,1644846530.578125,P08,D11,1,0,0
2087,0.32,1644846530.59375,P08,D11,1,0,0
2088,0.3,1644846530.609375,P08,D11,1,0,0
2089,0.25,1644846530.625,P08,D11,1,0,0
2090,0.15,1644846530.640625,P08,D11,1,0,0
2091,-0.01,1644846530.65625,P08,D11,1,0,0
2092,-0.16,1644846530.671875,P08,D11,1,0,0
2093,-0.24,1644846530.6875,P08,D11,1,0,0
2094,-0.2,1644846530.703125,P08,D11,1,0,0
2095,-0.0,1644846530.71875,P08,D11,1,0,0
2096,0.32,1644846530.734375,P08,D11,1,0,0
2097,0.71,1644846530.75,P08,D11,1,0,0
2098,1.11,1644846530.765625,P08,D11,1,0,0
2099,1.45,1644846530.78125,P08,D11,1,0,0
2100,1.63,1644846530.796875,P08,D11,1,0,0
2101,1.59,1644846530.8125,P08,D11,1,0,0
2102,1.32,1644846530.828125,P08,D11,1,0,0
2103,0.86,1644846530.84375,P08,D11,1,0,0
2104,0.32,1644846530.859375,P08,D11,1,0,0
2105,-0.14,1644846530.875,P08,D11,1,0,0
2106,-0.39,1644846530.890625,P08,D11,1,0,0
2107,-0.37,1644846530.90625,P08,D11,1,0,0
2108,-0.1,1644846530.921875,P08,D11,1,0,0
2109,0.31,1644846530.9375,P08,D11,1,0,0
2110,0.7,1644846530.953125,P08,D11,1,0,0
2111,0.95,1644846530.96875,P08,D11,1,0,0
2112,0.97,1644846530.984375,P08,D11,1,0,0
2113,0.79,1644846531.0,P08,D11,1,0,0
2114,0.51,1644846531.015625,P08,D11,1,0,0
2115,0.23,1644846531.03125,P08,D11,1,0,0
2116,0.02,1644846531.046875,P08,D11,1,0,0
2117,-0.11,1644846531.0625,P08,D11,1,0,0
2118,-0.21,1644846531.078125,P08,D11,1,0,0
2119,-0.35,1644846531.09375,P08,D11,1,0,0
2120,-0.53,1644846531.109375,P08,D11,1,0,0
2121,-0.73,1644846531.125,P08,D11,1,0,0
2122,-0.85,1644846531.140625,P08,D11,1,0,0
2123,-0.84,1644846531.15625,P08,D11,1,0,0
2124,-0.68,1644846531.171875,P08,D11,1,0,0
2125,-0.43,1644846531.1875,P08,D11,1,0,0
2126,-0.18,1644846531.203125,P08,D11,1,0,0
2127,0.02,1644846531.21875,P08,D11,1,0,0
2128,0.14,1644846531.234375,P08,D11,1,0,0
2129,0.23,1644846531.25,P08,D11,1,0,0
2130,0.35,1644846531.265625,P08,D11,1,0,0
2131,0.51,1644846531.28125,P08,D11,1,0,0
2132,0.64,1644846531.296875,P08,D11,1,0,0
2133,0.65,1644846531.3125,P08,D11,1,0,0
2134,0.46,1644846531.328125,P08,D11,1,0,0
2135,0.08,1644846531.34375,P08,D11,1,0,0
2136,-0.36,1644846531.359375,P08,D11,1,0,0
2137,-0.68,1644846531.375,P08,D11,1,0,0
2138,-0.73,1644846531.390625,P08,D11,1,0,0
2139,-0.5,1644846531.40625,P08,D11,1,0,0
2140,-0.16,1644846531.421875,P08,D11,1,0,0
