,data,timestamp,participant,document,val,arou,eng
0,0.74,1644845919.390625,P08,D08,1,1,1
1,0.62,1644845919.40625,P08,D08,1,1,1
2,0.48,1644845919.421875,P08,D08,1,1,1
3,0.31,1644845919.4375,P08,D08,1,1,1
4,0.1,1644845919.453125,P08,D08,1,1,1
5,-0.14,1644845919.46875,P08,D08,1,1,1
6,-0.33,1644845919.484375,P08,D08,1,1,1
7,-0.42,1644845919.5,P08,D08,1,1,1
8,-0.37,1644845919.515625,P08,D08,1,1,1
9,-0.22,1644845919.53125,P08,D08,1,1,1
10,-0.08,1644845919.546875,P08,D08,1,1,1
11,-0.04,1644845919.5625,P08,D08,1,1,1
12,-0.15,1644845919.578125,P08,D08,1,1,1
13,-0.36,1644845919.59375,P08,D08,1,1,1
14,-0.56,1644845919.609375,P08,D08,1,1,1
15,-0.62,1644845919.625,P08,D08,1,1,1
16,-0.47,1644845919.640625,P08,D08,1,1,1
17,-0.13,1644845919.65625,P08,D08,1,1,1
18,0.31,1644845919.671875,P08,D08,1,1,1
19,0.76,1644845919.6875,P08,D08,1,1,1
20,1.12,1644845919.703125,P08,D08,1,1,1
21,1.35,1644845919.71875,P08,D08,1,1,1
22,1.39,1644845919.734375,P08,D08,1,1,1
23,1.24,1644845919.75,P08,D08,1,1,1
24,0.89,1644845919.765625,P08,D08,1,1,1
25,0.4,1644845919.78125,P08,D08,1,1,1
26,-0.12,1644845919.796875,P08,D08,1,1,1
27,-0.58,1644845919.8125,P08,D08,1,1,1
28,-0.88,1644845919.828125,P08,D08,1,1,1
29,-1.02,1644845919.84375,P08,D08,1,1,1
30,-1.07,1644845919.859375,P08,D08,1,1,1
31,-1.08,1644845919.875,P08,D08,1,1,1
32,-1.11,1644845919.890625,P08,D08,1,1,1
33,-1.16,1644845919.90625,P08,D08,1,1,1
34,-1.15,1644845919.921875,P08,D08,1,1,1
35,-1.05,1644845919.9375,P08,D08,1,1,1
36,-0.87,1644845919.953125,P08,D08,1,1,1
37,-0.62,1644845919.96875,P08,D08,1,1,1
38,-0.37,1644845919.984375,P08,D08,1,1,1
39,-0.15,1644845920.0,P08,D08,1,1,1
40,0.01,1644845920.015625,P08,D08,1,1,1
41,0.11,1644845920.03125,P08,D08,1,1,1
42,0.15,1644845920.046875,P08,D08,1,1,1
43,0.12,1644845920.0625,P08,D08,1,1,1
44,0.04,1644845920.078125,P08,D08,1,1,1
45,-0.06,1644845920.09375,P08,D08,1,1,1
46,-0.12,1644845920.109375,P08,D08,1,1,1
47,-0.12,1644845920.125,P08,D08,1,1,1
48,-0.08,1644845920.140625,P08,D08,1,1,1
49,-0.04,1644845920.15625,P08,D08,1,1,1
50,-0.01,1644845920.171875,P08,D08,1,1,1
51,-0.04,1644845920.1875,P08,D08,1,1,1
52,-0.1,1644845920.203125,P08,D08,1,1,1
53,-0.19,1644845920.21875,P08,D08,1,1,1
54,-0.31,1644845920.234375,P08,D08,1,1,1
55,-0.41,1644845920.25,P08,D08,1,1,1
56,-0.49,1644845920.265625,P08,D08,1,1,1
57,-0.5,1644845920.28125,P08,D08,1,1,1
58,-0.43,1644845920.296875,P08,D08,1,1,1
59,-0.28,1644845920.3125,P08,D08,1,1,1
60,-0.14,1644845920.328125,P08,D08,1,1,1
61,-0.09,1644845920.34375,P08,D08,1,1,1
62,-0.19,1644845920.359375,P08,D08,1,1,1
63,-0.4,1644845920.375,P08,D08,1,1,1
64,-0.62,1644845920.390625,P08,D08,1,1,1
65,-0.71,1644845920.40625,P08,D08,1,1,1
66,-0.63,1644845920.421875,P08,D08,1,1,1
67,-0.38,1644845920.4375,P08,D08,1,1,1
68,-0.07,1644845920.453125,P08,D08,1,1,1
69,0.23,1644845920.46875,P08,D08,1,1,1
70,0.46,1644845920.484375,P08,D08,1,1,1
71,0.66,1644845920.5,P08,D08,1,1,1
72,0.84,1644845920.515625,P08,D08,1,1,1
73,1.0,1644845920.53125,P08,D08,1,1,1
74,1.06,1644845920.546875,P08,D08,1,1,1
75,0.96,1644845920.5625,P08,D08,1,1,1
76,0.68,1644845920.578125,P08,D08,1,1,1
77,0.28,1644845920.59375,P08,D08,1,1,1
78,-0.08,1644845920.609375,P08,D08,1,1,1
79,-0.28,1644845920.625,P08,D08,1,1,1
80,-0.27,1644845920.640625,P08,D08,1,1,1
81,-0.1,1644845920.65625,P08,D08,1,1,1
82,0.09,1644845920.671875,P08,D08,1,1,1
83,0.16,1644845920.6875,P08,D08,1,1,1
84,0.05,1644845920.703125,P08,D08,1,1,1
85,-0.19,1644845920.71875,P08,D08,1,1,1
86,-0.44,1644845920.734375,P08,D08,1,1,1
87,-0.56,1644845920.75,P08,D08,1,1,1
88,-0.5,1644845920.765625,P08,D08,1,1,1
89,-0.31,1644845920.78125,P08,D08,1,1,1
90,-0.11,1644845920.796875,P08,D08,1,1,1
91,-0.02,1644845920.8125,P08,D08,1,1,1
92,-0.07,1644845920.828125,P08,D08,1,1,1
93,-0.22,1644845920.84375,P08,D08,1,1,1
94,-0.35,1644845920.859375,P08,D08,1,1,1
95,-0.35,1644845920.875,P08,D08,1,1,1
96,-0.22,1644845920.890625,P08,D08,1,1,1
97,-0.02,1644845920.90625,P08,D08,1,1,1
98,0.15,1644845920.921875,P08,D08,1,1,1
99,0.25,1644845920.9375,P08,D08,1,1,1
100,0.31,1644845920.953125,P08,D08,1,1,1
101,0.39,1644845920.96875,P08,D08,1,1,1
102,0.53,1644845920.984375,P08,D08,1,1,1
103,0.72,1644845921.0,P08,D08,1,1,1
104,0.86,1644845921.015625,P08,D08,1,1,1
105,0.84,1644845921.03125,P08,D08,1,1,1
106,0.61,1644845921.046875,P08,D08,1,1,1
107,0.21,1644845921.0625,P08,D08,1,1,1
108,-0.28,1644845921.078125,P08,D08,1,1,1
109,-0.72,1644845921.09375,P08,D08,1,1,1
110,-1.06,1644845921.109375,P08,D08,1,1,1
111,-1.24,1644845921.125,P08,D08,1,1,1
112,-1.26,1644845921.140625,P08,D08,1,1,1
113,-1.12,1644845921.15625,P08,D08,1,1,1
114,-0.84,1644845921.171875,P08,D08,1,1,1
115,-0.47,1644845921.1875,P08,D08,1,1,1
116,-0.09,1644845921.203125,P08,D08,1,1,1
117,0.16,1644845921.21875,P08,D08,1,1,1
118,0.19,1644845921.234375,P08,D08,1,1,1
119,-0.01,1644845921.25,P08,D08,1,1,1
120,-0.35,1644845921.265625,P08,D08,1,1,1
121,-0.66,1644845921.28125,P08,D08,1,1,1
122,-0.78,1644845921.296875,P08,D08,1,1,1
123,-0.64,1644845921.3125,P08,D08,1,1,1
124,-0.32,1644845921.328125,P08,D08,1,1,1
125,0.06,1644845921.34375,P08,D08,1,1,1
126,0.33,1644845921.359375,P08,D08,1,1,1
127,0.44,1644845921.375,P08,D08,1,1,1
128,0.44,1644845921.390625,P08,D08,1,1,1
129,0.41,1644845921.40625,P08,D08,1,1,1
130,0.45,1644845921.421875,P08,D08,1,1,1
131,0.56,1644845921.4375,P08,D08,1,1,1
132,0.67,1644845921.453125,P08,D08,1,1,1
133,0.71,1644845921.46875,P08,D08,1,1,1
134,0.65,1644845921.484375,P08,D08,1,1,1
135,0.56,1644845921.5,P08,D08,1,1,1
136,0.53,1644845921.515625,P08,D08,1,1,1
137,0.63,1644845921.53125,P08,D08,1,1,1
138,0.85,1644845921.546875,P08,D08,1,1,1
139,1.11,1644845921.5625,P08,D08,1,1,1
140,1.28,1644845921.578125,P08,D08,1,1,1
141,1.29,1644845921.59375,P08,D08,1,1,1
142,1.15,1644845921.609375,P08,D08,1,1,1
143,0.89,1644845921.625,P08,D08,1,1,1
144,0.62,1644845921.640625,P08,D08,1,1,1
145,0.41,1644845921.65625,P08,D08,1,1,1
146,0.28,1644845921.671875,P08,D08,1,1,1
147,0.22,1644845921.6875,P08,D08,1,1,1
148,0.21,1644845921.703125,P08,D08,1,1,1
149,0.21,1644845921.71875,P08,D08,1,1,1
150,0.22,1644845921.734375,P08,D08,1,1,1
151,0.2,1644845921.75,P08,D08,1,1,1
152,0.16,1644845921.765625,P08,D08,1,1,1
153,0.09,1644845921.78125,P08,D08,1,1,1
154,-0.02,1644845921.796875,P08,D08,1,1,1
155,-0.18,1644845921.8125,P08,D08,1,1,1
156,-0.38,1644845921.828125,P08,D08,1,1,1
157,-0.62,1644845921.84375,P08,D08,1,1,1
158,-0.89,1644845921.859375,P08,D08,1,1,1
159,-1.14,1644845921.875,P08,D08,1,1,1
160,-1.29,1644845921.890625,P08,D08,1,1,1
161,-1.32,1644845921.90625,P08,D08,1,1,1
162,-1.2,1644845921.921875,P08,D08,1,1,1
163,-0.96,1644845921.9375,P08,D08,1,1,1
164,-0.65,1644845921.953125,P08,D08,1,1,1
165,-0.34,1644845921.96875,P08,D08,1,1,1
166,-0.06,1644845921.984375,P08,D08,1,1,1
167,0.17,1644845922.0,P08,D08,1,1,1
168,0.35,1644845922.015625,P08,D08,1,1,1
169,0.46,1644845922.03125,P08,D08,1,1,1
170,0.51,1644845922.046875,P08,D08,1,1,1
171,0.5,1644845922.0625,P08,D08,1,1,1
172,0.44,1644845922.078125,P08,D08,1,1,1
173,0.36,1644845922.09375,P08,D08,1,1,1
174,0.29,1644845922.109375,P08,D08,1,1,1
175,0.24,1644845922.125,P08,D08,1,1,1
176,0.18,1644845922.140625,P08,D08,1,1,1
177,0.1,1644845922.15625,P08,D08,1,1,1
178,0.0,1644845922.171875,P08,D08,1,1,1
179,-0.08,1644845922.1875,P08,D08,1,1,1
180,-0.09,1644845922.203125,P08,D08,1,1,1
181,-0.02,1644845922.21875,P08,D08,1,1,1
182,0.1,1644845922.234375,P08,D08,1,1,1
183,0.19,1644845922.25,P08,D08,1,1,1
184,0.2,1644845922.265625,P08,D08,1,1,1
185,0.13,1644845922.28125,P08,D08,1,1,1
186,0.03,1644845922.296875,P08,D08,1,1,1
187,-0.03,1644845922.3125,P08,D08,1,1,1
188,-0.01,1644845922.328125,P08,D08,1,1,1
189,0.06,1644845922.34375,P08,D08,1,1,1
190,0.12,1644845922.359375,P08,D08,1,1,1
191,0.12,1644845922.375,P08,D08,1,1,1
192,0.07,1644845922.390625,P08,D08,1,1,1
193,0.01,1644845922.40625,P08,D08,1,1,1
194,-0.02,1644845922.421875,P08,D08,1,1,1
195,-0.02,1644845922.4375,P08,D08,1,1,1
196,-0.02,1644845922.453125,P08,D08,1,1,1
197,-0.05,1644845922.46875,P08,D08,1,1,1
198,-0.11,1644845922.484375,P08,D08,1,1,1
199,-0.18,1644845922.5,P08,D08,1,1,1
200,-0.22,1644845922.515625,P08,D08,1,1,1
201,-0.25,1644845922.53125,P08,D08,1,1,1
202,-0.29,1644845922.546875,P08,D08,1,1,1
203,-0.39,1644845922.5625,P08,D08,1,1,1
204,-0.54,1644845922.578125,P08,D08,1,1,1
205,-0.72,1644845922.59375,P08,D08,1,1,1
206,-0.89,1644845922.609375,P08,D08,1,1,1
207,-0.99,1644845922.625,P08,D08,1,1,1
208,-1.03,1644845922.640625,P08,D08,1,1,1
209,-1.01,1644845922.65625,P08,D08,1,1,1
210,-0.96,1644845922.671875,P08,D08,1,1,1
211,-0.89,1644845922.6875,P08,D08,1,1,1
212,-0.76,1644845922.703125,P08,D08,1,1,1
213,-0.56,1644845922.71875,P08,D08,1,1,1
214,-0.32,1644845922.734375,P08,D08,1,1,1
215,-0.07,1644845922.75,P08,D08,1,1,1
216,0.14,1644845922.765625,P08,D08,1,1,1
217,0.26,1644845922.78125,P08,D08,1,1,1
218,0.25,1644845922.796875,P08,D08,1,1,1
219,0.13,1644845922.8125,P08,D08,1,1,1
220,-0.09,1644845922.828125,P08,D08,1,1,1
221,-0.36,1644845922.84375,P08,D08,1,1,1
222,-0.61,1644845922.859375,P08,D08,1,1,1
223,-0.77,1644845922.875,P08,D08,1,1,1
224,-0.77,1644845922.890625,P08,D08,1,1,1
225,-0.6,1644845922.90625,P08,D08,1,1,1
226,-0.31,1644845922.921875,P08,D08,1,1,1
227,-0.01,1644845922.9375,P08,D08,1,1,1
228,0.16,1644845922.953125,P08,D08,1,1,1
229,0.16,1644845922.96875,P08,D08,1,1,1
230,-0.0,1644845922.984375,P08,D08,1,1,1
231,-0.21,1644845923.0,P08,D08,1,1,1
232,-0.31,1644845923.015625,P08,D08,1,1,1
233,-0.21,1644845923.03125,P08,D08,1,1,1
234,0.06,1644845923.046875,P08,D08,1,1,1
235,0.43,1644845923.0625,P08,D08,1,1,1
236,0.75,1644845923.078125,P08,D08,1,1,1
237,0.96,1644845923.09375,P08,D08,1,1,1
238,1.04,1644845923.109375,P08,D08,1,1,1
239,1.0,1644845923.125,P08,D08,1,1,1
240,0.9,1644845923.140625,P08,D08,1,1,1
241,0.74,1644845923.15625,P08,D08,1,1,1
242,0.53,1644845923.171875,P08,D08,1,1,1
243,0.28,1644845923.1875,P08,D08,1,1,1
244,0.06,1644845923.203125,P08,D08,1,1,1
245,-0.03,1644845923.21875,P08,D08,1,1,1
246,0.09,1644845923.234375,P08,D08,1,1,1
247,0.43,1644845923.25,P08,D08,1,1,1
248,0.89,1644845923.265625,P08,D08,1,1,1
249,1.3,1644845923.28125,P08,D08,1,1,1
250,1.47,1644845923.296875,P08,D08,1,1,1
251,1.33,1644845923.3125,P08,D08,1,1,1
252,0.91,1644845923.328125,P08,D08,1,1,1
253,0.37,1644845923.34375,P08,D08,1,1,1
254,-0.09,1644845923.359375,P08,D08,1,1,1
255,-0.32,1644845923.375,P08,D08,1,1,1
256,-0.28,1644845923.390625,P08,D08,1,1,1
257,-0.06,1644845923.40625,P08,D08,1,1,1
258,0.22,1644845923.421875,P08,D08,1,1,1
259,0.44,1644845923.4375,P08,D08,1,1,1
260,0.53,1644845923.453125,P08,D08,1,1,1
261,0.48,1644845923.46875,P08,D08,1,1,1
262,0.37,1644845923.484375,P08,D08,1,1,1
263,0.23,1644845923.5,P08,D08,1,1,1
264,0.13,1644845923.515625,P08,D08,1,1,1
265,0.07,1644845923.53125,P08,D08,1,1,1
266,0.05,1644845923.546875,P08,D08,1,1,1
267,0.05,1644845923.5625,P08,D08,1,1,1
268,0.08,1644845923.578125,P08,D08,1,1,1
269,0.12,1644845923.59375,P08,D08,1,1,1
270,0.19,1644845923.609375,P08,D08,1,1,1
271,0.28,1644845923.625,P08,D08,1,1,1
272,0.39,1644845923.640625,P08,D08,1,1,1
273,0.5,1644845923.65625,P08,D08,1,1,1
274,0.59,1644845923.671875,P08,D08,1,1,1
275,0.63,1644845923.6875,P08,D08,1,1,1
276,0.6,1644845923.703125,P08,D08,1,1,1
277,0.48,1644845923.71875,P08,D08,1,1,1
278,0.27,1644845923.734375,P08,D08,1,1,1
279,-0.02,1644845923.75,P08,D08,1,1,1
280,-0.36,1644845923.765625,P08,D08,1,1,1
281,-0.74,1644845923.78125,P08,D08,1,1,1
282,-1.1,1644845923.796875,P08,D08,1,1,1
283,-1.39,1644845923.8125,P08,D08,1,1,1
284,-1.55,1644845923.828125,P08,D08,1,1,1
285,-1.51,1644845923.84375,P08,D08,1,1,1
286,-1.24,1644845923.859375,P08,D08,1,1,1
287,-0.79,1644845923.875,P08,D08,1,1,1
288,-0.26,1644845923.890625,P08,D08,1,1,1
289,0.24,1644845923.90625,P08,D08,1,1,1
290,0.57,1644845923.921875,P08,D08,1,1,1
291,0.71,1644845923.9375,P08,D08,1,1,1
292,0.66,1644845923.953125,P08,D08,1,1,1
293,0.52,1644845923.96875,P08,D08,1,1,1
294,0.37,1644845923.984375,P08,D08,1,1,1
295,0.29,1644845924.0,P08,D08,1,1,1
296,0.28,1644845924.015625,P08,D08,1,1,1
297,0.31,1644845924.03125,P08,D08,1,1,1
298,0.33,1644845924.046875,P08,D08,1,1,1
299,0.31,1644845924.0625,P08,D08,1,1,1
300,0.27,1644845924.078125,P08,D08,1,1,1
301,0.24,1644845924.09375,P08,D08,1,1,1
302,0.29,1644845924.109375,P08,D08,1,1,1
303,0.42,1644845924.125,P08,D08,1,1,1
304,0.59,1644845924.140625,P08,D08,1,1,1
305,0.73,1644845924.15625,P08,D08,1,1,1
306,0.76,1644845924.171875,P08,D08,1,1,1
307,0.65,1644845924.1875,P08,D08,1,1,1
308,0.47,1644845924.203125,P08,D08,1,1,1
309,0.34,1644845924.21875,P08,D08,1,1,1
310,0.39,1644845924.234375,P08,D08,1,1,1
311,0.62,1644845924.25,P08,D08,1,1,1
312,0.99,1644845924.265625,P08,D08,1,1,1
313,1.32,1644845924.28125,P08,D08,1,1,1
314,1.49,1644845924.296875,P08,D08,1,1,1
315,1.42,1644845924.3125,P08,D08,1,1,1
316,1.15,1644845924.328125,P08,D08,1,1,1
317,0.76,1644845924.34375,P08,D08,1,1,1
318,0.33,1644845924.359375,P08,D08,1,1,1
319,-0.05,1644845924.375,P08,D08,1,1,1
320,-0.34,1644845924.390625,P08,D08,1,1,1
321,-0.52,1644845924.40625,P08,D08,1,1,1
322,-0.58,1644845924.421875,P08,D08,1,1,1
323,-0.54,1644845924.4375,P08,D08,1,1,1
324,-0.43,1644845924.453125,P08,D08,1,1,1
325,-0.31,1644845924.46875,P08,D08,1,1,1
326,-0.26,1644845924.484375,P08,D08,1,1,1
327,-0.31,1644845924.5,P08,D08,1,1,1
328,-0.46,1644845924.515625,P08,D08,1,1,1
329,-0.66,1644845924.53125,P08,D08,1,1,1
330,-0.83,1644845924.546875,P08,D08,1,1,1
331,-0.93,1644845924.5625,P08,D08,1,1,1
332,-0.92,1644845924.578125,P08,D08,1,1,1
333,-0.83,1644845924.59375,P08,D08,1,1,1
334,-0.68,1644845924.609375,P08,D08,1,1,1
335,-0.54,1644845924.625,P08,D08,1,1,1
336,-0.45,1644845924.640625,P08,D08,1,1,1
337,-0.43,1644845924.65625,P08,D08,1,1,1
338,-0.49,1644845924.671875,P08,D08,1,1,1
339,-0.59,1644845924.6875,P08,D08,1,1,1
340,-0.7,1644845924.703125,P08,D08,1,1,1
341,-0.81,1644845924.71875,P08,D08,1,1,1
342,-0.88,1644845924.734375,P08,D08,1,1,1
343,-0.93,1644845924.75,P08,D08,1,1,1
344,-0.93,1644845924.765625,P08,D08,1,1,1
345,-0.86,1644845924.78125,P08,D08,1,1,1
346,-0.71,1644845924.796875,P08,D08,1,1,1
347,-0.47,1644845924.8125,P08,D08,1,1,1
348,-0.17,1644845924.828125,P08,D08,1,1,1
349,0.1,1644845924.84375,P08,D08,1,1,1
350,0.26,1644845924.859375,P08,D08,1,1,1
351,0.27,1644845924.875,P08,D08,1,1,1
352,0.14,1644845924.890625,P08,D08,1,1,1
353,-0.05,1644845924.90625,P08,D08,1,1,1
354,-0.24,1644845924.921875,P08,D08,1,1,1
355,-0.37,1644845924.9375,P08,D08,1,1,1
356,-0.43,1644845924.953125,P08,D08,1,1,1
357,-0.4,1644845924.96875,P08,D08,1,1,1
358,-0.31,1644845924.984375,P08,D08,1,1,1
359,-0.19,1644845925.0,P08,D08,1,1,1
360,-0.08,1644845925.015625,P08,D08,1,1,1
361,-0.06,1644845925.03125,P08,D08,1,1,1
362,-0.17,1644845925.046875,P08,D08,1,1,1
363,-0.39,1644845925.0625,P08,D08,1,1,1
364,-0.66,1644845925.078125,P08,D08,1,1,1
365,-0.85,1644845925.09375,P08,D08,1,1,1
366,-0.85,1644845925.109375,P08,D08,1,1,1
367,-0.64,1644845925.125,P08,D08,1,1,1
368,-0.26,1644845925.140625,P08,D08,1,1,1
369,0.18,1644845925.15625,P08,D08,1,1,1
370,0.59,1644845925.171875,P08,D08,1,1,1
371,0.9,1644845925.1875,P08,D08,1,1,1
372,1.08,1644845925.203125,P08,D08,1,1,1
373,1.12,1644845925.21875,P08,D08,1,1,1
374,1.02,1644845925.234375,P08,D08,1,1,1
375,0.83,1644845925.25,P08,D08,1,1,1
376,0.61,1644845925.265625,P08,D08,1,1,1
377,0.46,1644845925.28125,P08,D08,1,1,1
378,0.47,1644845925.296875,P08,D08,1,1,1
379,0.68,1644845925.3125,P08,D08,1,1,1
380,1.01,1644845925.328125,P08,D08,1,1,1
381,1.37,1644845925.34375,P08,D08,1,1,1
382,1.62,1644845925.359375,P08,D08,1,1,1
383,1.66,1644845925.375,P08,D08,1,1,1
384,1.45,1644845925.390625,P08,D08,1,1,1
385,1.05,1644845925.40625,P08,D08,1,1,1
386,0.54,1644845925.421875,P08,D08,1,1,1
387,0.03,1644845925.4375,P08,D08,1,1,1
388,-0.39,1644845925.453125,P08,D08,1,1,1
389,-0.66,1644845925.46875,P08,D08,1,1,1
390,-0.75,1644845925.484375,P08,D08,1,1,1
391,-0.68,1644845925.5,P08,D08,1,1,1
392,-0.53,1644845925.515625,P08,D08,1,1,1
393,-0.35,1644845925.53125,P08,D08,1,1,1
394,-0.22,1644845925.546875,P08,D08,1,1,1
395,-0.17,1644845925.5625,P08,D08,1,1,1
396,-0.18,1644845925.578125,P08,D08,1,1,1
397,-0.24,1644845925.59375,P08,D08,1,1,1
398,-0.31,1644845925.609375,P08,D08,1,1,1
399,-0.38,1644845925.625,P08,D08,1,1,1
400,-0.45,1644845925.640625,P08,D08,1,1,1
401,-0.54,1644845925.65625,P08,D08,1,1,1
402,-0.63,1644845925.671875,P08,D08,1,1,1
403,-0.73,1644845925.6875,P08,D08,1,1,1
404,-0.8,1644845925.703125,P08,D08,1,1,1
405,-0.84,1644845925.71875,P08,D08,1,1,1
406,-0.85,1644845925.734375,P08,D08,1,1,1
407,-0.85,1644845925.75,P08,D08,1,1,1
408,-0.86,1644845925.765625,P08,D08,1,1,1
409,-0.86,1644845925.78125,P08,D08,1,1,1
410,-0.83,1644845925.796875,P08,D08,1,1,1
411,-0.71,1644845925.8125,P08,D08,1,1,1
412,-0.51,1644845925.828125,P08,D08,1,1,1
413,-0.28,1644845925.84375,P08,D08,1,1,1
414,-0.07,1644845925.859375,P08,D08,1,1,1
415,0.08,1644845925.875,P08,D08,1,1,1
416,0.19,1644845925.890625,P08,D08,1,1,1
417,0.32,1644845925.90625,P08,D08,1,1,1
418,0.52,1644845925.921875,P08,D08,1,1,1
419,0.79,1644845925.9375,P08,D08,1,1,1
420,1.05,1644845925.953125,P08,D08,1,1,1
421,1.2,1644845925.96875,P08,D08,1,1,1
422,1.14,1644845925.984375,P08,D08,1,1,1
423,0.88,1644845926.0,P08,D08,1,1,1
424,0.5,1644845926.015625,P08,D08,1,1,1
425,0.13,1644845926.03125,P08,D08,1,1,1
426,-0.08,1644845926.046875,P08,D08,1,1,1
427,-0.12,1644845926.0625,P08,D08,1,1,1
428,-0.02,1644845926.078125,P08,D08,1,1,1
429,0.1,1644845926.09375,P08,D08,1,1,1
430,0.18,1644845926.109375,P08,D08,1,1,1
431,0.16,1644845926.125,P08,D08,1,1,1
432,0.11,1644845926.140625,P08,D08,1,1,1
433,0.08,1644845926.15625,P08,D08,1,1,1
434,0.11,1644845926.171875,P08,D08,1,1,1
435,0.19,1644845926.1875,P08,D08,1,1,1
436,0.29,1644845926.203125,P08,D08,1,1,1
437,0.36,1644845926.21875,P08,D08,1,1,1
438,0.37,1644845926.234375,P08,D08,1,1,1
439,0.33,1644845926.25,P08,D08,1,1,1
440,0.23,1644845926.265625,P08,D08,1,1,1
441,0.07,1644845926.28125,P08,D08,1,1,1
442,-0.16,1644845926.296875,P08,D08,1,1,1
443,-0.44,1644845926.3125,P08,D08,1,1,1
444,-0.69,1644845926.328125,P08,D08,1,1,1
445,-0.84,1644845926.34375,P08,D08,1,1,1
446,-0.85,1644845926.359375,P08,D08,1,1,1
447,-0.72,1644845926.375,P08,D08,1,1,1
448,-0.53,1644845926.390625,P08,D08,1,1,1
449,-0.4,1644845926.40625,P08,D08,1,1,1
450,-0.4,1644845926.421875,P08,D08,1,1,1
451,-0.51,1644845926.4375,P08,D08,1,1,1
452,-0.64,1644845926.453125,P08,D08,1,1,1
453,-0.69,1644845926.46875,P08,D08,1,1,1
454,-0.59,1644845926.484375,P08,D08,1,1,1
455,-0.37,1644845926.5,P08,D08,1,1,1
456,-0.12,1644845926.515625,P08,D08,1,1,1
457,0.02,1644845926.53125,P08,D08,1,1,1
458,-0.01,1644845926.546875,P08,D08,1,1,1
459,-0.23,1644845926.5625,P08,D08,1,1,1
460,-0.52,1644845926.578125,P08,D08,1,1,1
461,-0.76,1644845926.59375,P08,D08,1,1,1
462,-0.82,1644845926.609375,P08,D08,1,1,1
463,-0.69,1644845926.625,P08,D08,1,1,1
464,-0.46,1644845926.640625,P08,D08,1,1,1
465,-0.25,1644845926.65625,P08,D08,1,1,1
466,-0.15,1644845926.671875,P08,D08,1,1,1
467,-0.17,1644845926.6875,P08,D08,1,1,1
468,-0.23,1644845926.703125,P08,D08,1,1,1
469,-0.24,1644845926.71875,P08,D08,1,1,1
470,-0.18,1644845926.734375,P08,D08,1,1,1
471,-0.1,1644845926.75,P08,D08,1,1,1
472,-0.1,1644845926.765625,P08,D08,1,1,1
473,-0.2,1644845926.78125,P08,D08,1,1,1
474,-0.35,1644845926.796875,P08,D08,1,1,1
475,-0.45,1644845926.8125,P08,D08,1,1,1
476,-0.39,1644845926.828125,P08,D08,1,1,1
477,-0.18,1644845926.84375,P08,D08,1,1,1
478,0.07,1644845926.859375,P08,D08,1,1,1
479,0.23,1644845926.875,P08,D08,1,1,1
480,0.24,1644845926.890625,P08,D08,1,1,1
481,0.14,1644845926.90625,P08,D08,1,1,1
482,0.02,1644845926.921875,P08,D08,1,1,1
483,-0.03,1644845926.9375,P08,D08,1,1,1
484,-0.01,1644845926.953125,P08,D08,1,1,1
485,0.05,1644845926.96875,P08,D08,1,1,1
486,0.11,1644845926.984375,P08,D08,1,1,1
487,0.19,1644845927.0,P08,D08,1,1,1
488,0.37,1644845927.015625,P08,D08,1,1,1
489,0.67,1644845927.03125,P08,D08,1,1,1
490,1.04,1644845927.046875,P08,D08,1,1,1
491,1.3,1644845927.0625,P08,D08,1,1,1
492,1.3,1644845927.078125,P08,D08,1,1,1
493,0.96,1644845927.09375,P08,D08,1,1,1
494,0.36,1644845927.109375,P08,D08,1,1,1
495,-0.3,1644845927.125,P08,D08,1,1,1
496,-0.82,1644845927.140625,P08,D08,1,1,1
497,-1.11,1644845927.15625,P08,D08,1,1,1
498,-1.2,1644845927.171875,P08,D08,1,1,1
499,-1.14,1644845927.1875,P08,D08,1,1,1
500,-0.99,1644845927.203125,P08,D08,1,1,1
501,-0.74,1644845927.21875,P08,D08,1,1,1
502,-0.34,1644845927.234375,P08,D08,1,1,1
503,0.19,1644845927.25,P08,D08,1,1,1
504,0.77,1644845927.265625,P08,D08,1,1,1
505,1.25,1644845927.28125,P08,D08,1,1,1
506,1.52,1644845927.296875,P08,D08,1,1,1
507,1.54,1644845927.3125,P08,D08,1,1,1
508,1.35,1644845927.328125,P08,D08,1,1,1
509,1.07,1644845927.34375,P08,D08,1,1,1
510,0.81,1644845927.359375,P08,D08,1,1,1
511,0.64,1644845927.375,P08,D08,1,1,1
512,0.56,1644845927.390625,P08,D08,1,1,1
513,0.53,1644845927.40625,P08,D08,1,1,1
514,0.53,1644845927.421875,P08,D08,1,1,1
515,0.51,1644845927.4375,P08,D08,1,1,1
516,0.49,1644845927.453125,P08,D08,1,1,1
517,0.49,1644845927.46875,P08,D08,1,1,1
518,0.51,1644845927.484375,P08,D08,1,1,1
519,0.55,1644845927.5,P08,D08,1,1,1
520,0.57,1644845927.515625,P08,D08,1,1,1
521,0.55,1644845927.53125,P08,D08,1,1,1
522,0.45,1644845927.546875,P08,D08,1,1,1
523,0.29,1644845927.5625,P08,D08,1,1,1
524,0.13,1644845927.578125,P08,D08,1,1,1
525,0.04,1644845927.59375,P08,D08,1,1,1
526,0.08,1644845927.609375,P08,D08,1,1,1
527,0.25,1644845927.625,P08,D08,1,1,1
528,0.51,1644845927.640625,P08,D08,1,1,1
529,0.76,1644845927.65625,P08,D08,1,1,1
530,0.9,1644845927.671875,P08,D08,1,1,1
531,0.89,1644845927.6875,P08,D08,1,1,1
532,0.68,1644845927.703125,P08,D08,1,1,1
533,0.33,1644845927.71875,P08,D08,1,1,1
534,-0.11,1644845927.734375,P08,D08,1,1,1
535,-0.52,1644845927.75,P08,D08,1,1,1
536,-0.78,1644845927.765625,P08,D08,1,1,1
537,-0.84,1644845927.78125,P08,D08,1,1,1
538,-0.69,1644845927.796875,P08,D08,1,1,1
539,-0.4,1644845927.8125,P08,D08,1,1,1
540,-0.09,1644845927.828125,P08,D08,1,1,1
541,0.17,1644845927.84375,P08,D08,1,1,1
542,0.33,1644845927.859375,P08,D08,1,1,1
543,0.4,1644845927.875,P08,D08,1,1,1
544,0.44,1644845927.890625,P08,D08,1,1,1
545,0.44,1644845927.90625,P08,D08,1,1,1
546,0.39,1644845927.921875,P08,D08,1,1,1
547,0.22,1644845927.9375,P08,D08,1,1,1
548,-0.11,1644845927.953125,P08,D08,1,1,1
549,-0.56,1644845927.96875,P08,D08,1,1,1
550,-1.03,1644845927.984375,P08,D08,1,1,1
551,-1.38,1644845928.0,P08,D08,1,1,1
552,-1.48,1644845928.015625,P08,D08,1,1,1
553,-1.29,1644845928.03125,P08,D08,1,1,1
554,-0.85,1644845928.046875,P08,D08,1,1,1
555,-0.29,1644845928.0625,P08,D08,1,1,1
556,0.24,1644845928.078125,P08,D08,1,1,1
557,0.58,1644845928.09375,P08,D08,1,1,1
558,0.65,1644845928.109375,P08,D08,1,1,1
559,0.44,1644845928.125,P08,D08,1,1,1
560,0.04,1644845928.140625,P08,D08,1,1,1
561,-0.38,1644845928.15625,P08,D08,1,1,1
562,-0.66,1644845928.171875,P08,D08,1,1,1
563,-0.72,1644845928.1875,P08,D08,1,1,1
564,-0.56,1644845928.203125,P08,D08,1,1,1
565,-0.28,1644845928.21875,P08,D08,1,1,1
566,-0.02,1644845928.234375,P08,D08,1,1,1
567,0.14,1644845928.25,P08,D08,1,1,1
568,0.19,1644845928.265625,P08,D08,1,1,1
569,0.2,1644845928.28125,P08,D08,1,1,1
570,0.21,1644845928.296875,P08,D08,1,1,1
571,0.26,1644845928.3125,P08,D08,1,1,1
572,0.31,1644845928.328125,P08,D08,1,1,1
573,0.31,1644845928.34375,P08,D08,1,1,1
574,0.25,1644845928.359375,P08,D08,1,1,1
575,0.15,1644845928.375,P08,D08,1,1,1
576,0.11,1644845928.390625,P08,D08,1,1,1
577,0.18,1644845928.40625,P08,D08,1,1,1
578,0.35,1644845928.421875,P08,D08,1,1,1
579,0.55,1644845928.4375,P08,D08,1,1,1
580,0.63,1644845928.453125,P08,D08,1,1,1
581,0.51,1644845928.46875,P08,D08,1,1,1
582,0.18,1644845928.484375,P08,D08,1,1,1
583,-0.29,1644845928.5,P08,D08,1,1,1
584,-0.77,1644845928.515625,P08,D08,1,1,1
585,-1.15,1644845928.53125,P08,D08,1,1,1
586,-1.34,1644845928.546875,P08,D08,1,1,1
587,-1.29,1644845928.5625,P08,D08,1,1,1
588,-1.03,1644845928.578125,P08,D08,1,1,1
589,-0.61,1644845928.59375,P08,D08,1,1,1
590,-0.14,1644845928.609375,P08,D08,1,1,1
591,0.29,1644845928.625,P08,D08,1,1,1
592,0.58,1644845928.640625,P08,D08,1,1,1
593,0.7,1644845928.65625,P08,D08,1,1,1
594,0.67,1644845928.671875,P08,D08,1,1,1
595,0.54,1644845928.6875,P08,D08,1,1,1
596,0.38,1644845928.703125,P08,D08,1,1,1
597,0.22,1644845928.71875,P08,D08,1,1,1
598,0.08,1644845928.734375,P08,D08,1,1,1
599,-0.03,1644845928.75,P08,D08,1,1,1
600,-0.07,1644845928.765625,P08,D08,1,1,1
601,-0.0,1644845928.78125,P08,D08,1,1,1
602,0.2,1644845928.796875,P08,D08,1,1,1
603,0.52,1644845928.8125,P08,D08,1,1,1
604,0.86,1644845928.828125,P08,D08,1,1,1
605,1.13,1644845928.84375,P08,D08,1,1,1
606,1.22,1644845928.859375,P08,D08,1,1,1
607,1.12,1644845928.875,P08,D08,1,1,1
608,0.83,1644845928.890625,P08,D08,1,1,1
609,0.45,1644845928.90625,P08,D08,1,1,1
610,0.06,1644845928.921875,P08,D08,1,1,1
611,-0.24,1644845928.9375,P08,D08,1,1,1
612,-0.43,1644845928.953125,P08,D08,1,1,1
613,-0.51,1644845928.96875,P08,D08,1,1,1
614,-0.52,1644845928.984375,P08,D08,1,1,1
615,-0.48,1644845929.0,P08,D08,1,1,1
616,-0.39,1644845929.015625,P08,D08,1,1,1
617,-0.24,1644845929.03125,P08,D08,1,1,1
618,-0.04,1644845929.046875,P08,D08,1,1,1
619,0.19,1644845929.0625,P08,D08,1,1,1
620,0.39,1644845929.078125,P08,D08,1,1,1
621,0.49,1644845929.09375,P08,D08,1,1,1
622,0.44,1644845929.109375,P08,D08,1,1,1
623,0.26,1644845929.125,P08,D08,1,1,1
624,0.04,1644845929.140625,P08,D08,1,1,1
625,-0.13,1644845929.15625,P08,D08,1,1,1
626,-0.16,1644845929.171875,P08,D08,1,1,1
627,-0.01,1644845929.1875,P08,D08,1,1,1
628,0.27,1644845929.203125,P08,D08,1,1,1
629,0.58,1644845929.21875,P08,D08,1,1,1
630,0.83,1644845929.234375,P08,D08,1,1,1
631,0.94,1644845929.25,P08,D08,1,1,1
632,0.88,1644845929.265625,P08,D08,1,1,1
633,0.68,1644845929.28125,P08,D08,1,1,1
634,0.4,1644845929.296875,P08,D08,1,1,1
635,0.09,1644845929.3125,P08,D08,1,1,1
636,-0.2,1644845929.328125,P08,D08,1,1,1
637,-0.45,1644845929.34375,P08,D08,1,1,1
638,-0.67,1644845929.359375,P08,D08,1,1,1
639,-0.85,1644845929.375,P08,D08,1,1,1
640,-0.97,1644845929.390625,P08,D08,1,1,1
641,-1.0,1644845929.40625,P08,D08,1,1,1
642,-0.95,1644845929.421875,P08,D08,1,1,1
643,-0.85,1644845929.4375,P08,D08,1,1,1
644,-0.74,1644845929.453125,P08,D08,1,1,1
645,-0.67,1644845929.46875,P08,D08,1,1,1
646,-0.61,1644845929.484375,P08,D08,1,1,1
647,-0.51,1644845929.5,P08,D08,1,1,1
648,-0.31,1644845929.515625,P08,D08,1,1,1
649,-0.03,1644845929.53125,P08,D08,1,1,1
650,0.25,1644845929.546875,P08,D08,1,1,1
651,0.38,1644845929.5625,P08,D08,1,1,1
652,0.3,1644845929.578125,P08,D08,1,1,1
653,0.04,1644845929.59375,P08,D08,1,1,1
654,-0.29,1644845929.609375,P08,D08,1,1,1
655,-0.53,1644845929.625,P08,D08,1,1,1
656,-0.6,1644845929.640625,P08,D08,1,1,1
657,-0.52,1644845929.65625,P08,D08,1,1,1
658,-0.38,1644845929.671875,P08,D08,1,1,1
659,-0.28,1644845929.6875,P08,D08,1,1,1
660,-0.28,1644845929.703125,P08,D08,1,1,1
661,-0.36,1644845929.71875,P08,D08,1,1,1
662,-0.48,1644845929.734375,P08,D08,1,1,1
663,-0.59,1644845929.75,P08,D08,1,1,1
664,-0.67,1644845929.765625,P08,D08,1,1,1
665,-0.73,1644845929.78125,P08,D08,1,1,1
666,-0.76,1644845929.796875,P08,D08,1,1,1
667,-0.75,1644845929.8125,P08,D08,1,1,1
668,-0.7,1644845929.828125,P08,D08,1,1,1
669,-0.62,1644845929.84375,P08,D08,1,1,1
670,-0.54,1644845929.859375,P08,D08,1,1,1
671,-0.51,1644845929.875,P08,D08,1,1,1
672,-0.54,1644845929.890625,P08,D08,1,1,1
673,-0.64,1644845929.90625,P08,D08,1,1,1
674,-0.75,1644845929.921875,P08,D08,1,1,1
675,-0.81,1644845929.9375,P08,D08,1,1,1
676,-0.77,1644845929.953125,P08,D08,1,1,1
677,-0.61,1644845929.96875,P08,D08,1,1,1
678,-0.37,1644845929.984375,P08,D08,1,1,1
679,-0.11,1644845930.0,P08,D08,1,1,1
680,0.07,1644845930.015625,P08,D08,1,1,1
681,0.14,1644845930.03125,P08,D08,1,1,1
682,0.09,1644845930.046875,P08,D08,1,1,1
683,0.0,1644845930.0625,P08,D08,1,1,1
684,-0.08,1644845930.078125,P08,D08,1,1,1
685,-0.12,1644845930.09375,P08,D08,1,1,1
686,-0.13,1644845930.109375,P08,D08,1,1,1
687,-0.14,1644845930.125,P08,D08,1,1,1
688,-0.16,1644845930.140625,P08,D08,1,1,1
689,-0.17,1644845930.15625,P08,D08,1,1,1
690,-0.09,1644845930.171875,P08,D08,1,1,1
691,0.12,1644845930.1875,P08,D08,1,1,1
692,0.46,1644845930.203125,P08,D08,1,1,1
693,0.86,1644845930.21875,P08,D08,1,1,1
694,1.21,1644845930.234375,P08,D08,1,1,1
695,1.41,1644845930.25,P08,D08,1,1,1
696,1.43,1644845930.265625,P08,D08,1,1,1
697,1.31,1644845930.28125,P08,D08,1,1,1
698,1.09,1644845930.296875,P08,D08,1,1,1
699,0.81,1644845930.3125,P08,D08,1,1,1
700,0.51,1644845930.328125,P08,D08,1,1,1
701,0.21,1644845930.34375,P08,D08,1,1,1
702,-0.02,1644845930.359375,P08,D08,1,1,1
703,-0.11,1644845930.375,P08,D08,1,1,1
704,-0.04,1644845930.390625,P08,D08,1,1,1
705,0.16,1644845930.40625,P08,D08,1,1,1
706,0.35,1644845930.421875,P08,D08,1,1,1
707,0.44,1644845930.4375,P08,D08,1,1,1
708,0.34,1644845930.453125,P08,D08,1,1,1
709,0.07,1644845930.46875,P08,D08,1,1,1
710,-0.26,1644845930.484375,P08,D08,1,1,1
711,-0.53,1644845930.5,P08,D08,1,1,1
712,-0.64,1644845930.515625,P08,D08,1,1,1
713,-0.55,1644845930.53125,P08,D08,1,1,1
714,-0.28,1644845930.546875,P08,D08,1,1,1
715,0.08,1644845930.5625,P08,D08,1,1,1
716,0.41,1644845930.578125,P08,D08,1,1,1
717,0.63,1644845930.59375,P08,D08,1,1,1
718,0.69,1644845930.609375,P08,D08,1,1,1
719,0.6,1644845930.625,P08,D08,1,1,1
720,0.41,1644845930.640625,P08,D08,1,1,1
721,0.21,1644845930.65625,P08,D08,1,1,1
722,0.05,1644845930.671875,P08,D08,1,1,1
723,-0.08,1644845930.6875,P08,D08,1,1,1
724,-0.2,1644845930.703125,P08,D08,1,1,1
725,-0.35,1644845930.71875,P08,D08,1,1,1
726,-0.52,1644845930.734375,P08,D08,1,1,1
727,-0.67,1644845930.75,P08,D08,1,1,1
728,-0.73,1644845930.765625,P08,D08,1,1,1
729,-0.67,1644845930.78125,P08,D08,1,1,1
730,-0.47,1644845930.796875,P08,D08,1,1,1
731,-0.19,1644845930.8125,P08,D08,1,1,1
732,0.06,1644845930.828125,P08,D08,1,1,1
733,0.21,1644845930.84375,P08,D08,1,1,1
734,0.22,1644845930.859375,P08,D08,1,1,1
735,0.12,1644845930.875,P08,D08,1,1,1
736,-0.01,1644845930.890625,P08,D08,1,1,1
737,-0.06,1644845930.90625,P08,D08,1,1,1
738,0.05,1644845930.921875,P08,D08,1,1,1
739,0.31,1644845930.9375,P08,D08,1,1,1
740,0.62,1644845930.953125,P08,D08,1,1,1
741,0.86,1644845930.96875,P08,D08,1,1,1
742,0.93,1644845930.984375,P08,D08,1,1,1
743,0.82,1644845931.0,P08,D08,1,1,1
744,0.61,1644845931.015625,P08,D08,1,1,1
745,0.42,1644845931.03125,P08,D08,1,1,1
746,0.32,1644845931.046875,P08,D08,1,1,1
747,0.28,1644845931.0625,P08,D08,1,1,1
748,0.23,1644845931.078125,P08,D08,1,1,1
749,0.09,1644845931.09375,P08,D08,1,1,1
750,-0.13,1644845931.109375,P08,D08,1,1,1
751,-0.35,1644845931.125,P08,D08,1,1,1
752,-0.46,1644845931.140625,P08,D08,1,1,1
753,-0.37,1644845931.15625,P08,D08,1,1,1
754,-0.14,1644845931.171875,P08,D08,1,1,1
755,0.11,1644845931.1875,P08,D08,1,1,1
756,0.23,1644845931.203125,P08,D08,1,1,1
757,0.12,1644845931.21875,P08,D08,1,1,1
758,-0.19,1644845931.234375,P08,D08,1,1,1
759,-0.59,1644845931.25,P08,D08,1,1,1
760,-0.94,1644845931.265625,P08,D08,1,1,1
761,-1.13,1644845931.28125,P08,D08,1,1,1
762,-1.13,1644845931.296875,P08,D08,1,1,1
763,-0.98,1644845931.3125,P08,D08,1,1,1
764,-0.74,1644845931.328125,P08,D08,1,1,1
765,-0.5,1644845931.34375,P08,D08,1,1,1
766,-0.28,1644845931.359375,P08,D08,1,1,1
767,-0.06,1644845931.375,P08,D08,1,1,1
768,0.16,1644845931.390625,P08,D08,1,1,1
769,0.39,1644845931.40625,P08,D08,1,1,1
770,0.6,1644845931.421875,P08,D08,1,1,1
771,0.69,1644845931.4375,P08,D08,1,1,1
772,0.61,1644845931.453125,P08,D08,1,1,1
773,0.35,1644845931.46875,P08,D08,1,1,1
774,-0.04,1644845931.484375,P08,D08,1,1,1
775,-0.43,1644845931.5,P08,D08,1,1,1
776,-0.69,1644845931.515625,P08,D08,1,1,1
777,-0.76,1644845931.53125,P08,D08,1,1,1
778,-0.63,1644845931.546875,P08,D08,1,1,1
779,-0.38,1644845931.5625,P08,D08,1,1,1
780,-0.08,1644845931.578125,P08,D08,1,1,1
781,0.22,1644845931.59375,P08,D08,1,1,1
782,0.5,1644845931.609375,P08,D08,1,1,1
783,0.74,1644845931.625,P08,D08,1,1,1
784,0.92,1644845931.640625,P08,D08,1,1,1
785,0.98,1644845931.65625,P08,D08,1,1,1
786,0.89,1644845931.671875,P08,D08,1,1,1
787,0.68,1644845931.6875,P08,D08,1,1,1
788,0.41,1644845931.703125,P08,D08,1,1,1
789,0.18,1644845931.71875,P08,D08,1,1,1
790,0.08,1644845931.734375,P08,D08,1,1,1
791,0.11,1644845931.75,P08,D08,1,1,1
792,0.23,1644845931.765625,P08,D08,1,1,1
793,0.38,1644845931.78125,P08,D08,1,1,1
794,0.49,1644845931.796875,P08,D08,1,1,1
795,0.53,1644845931.8125,P08,D08,1,1,1
796,0.44,1644845931.828125,P08,D08,1,1,1
797,0.23,1644845931.84375,P08,D08,1,1,1
798,-0.08,1644845931.859375,P08,D08,1,1,1
799,-0.45,1644845931.875,P08,D08,1,1,1
800,-0.75,1644845931.890625,P08,D08,1,1,1
801,-0.88,1644845931.90625,P08,D08,1,1,1
802,-0.77,1644845931.921875,P08,D08,1,1,1
803,-0.44,1644845931.9375,P08,D08,1,1,1
804,-0.01,1644845931.953125,P08,D08,1,1,1
805,0.38,1644845931.96875,P08,D08,1,1,1
806,0.61,1644845931.984375,P08,D08,1,1,1
807,0.63,1644845932.0,P08,D08,1,1,1
808,0.47,1644845932.015625,P08,D08,1,1,1
809,0.22,1644845932.03125,P08,D08,1,1,1
810,-0.03,1644845932.046875,P08,D08,1,1,1
811,-0.19,1644845932.0625,P08,D08,1,1,1
812,-0.23,1644845932.078125,P08,D08,1,1,1
813,-0.16,1644845932.09375,P08,D08,1,1,1
814,-0.04,1644845932.109375,P08,D08,1,1,1
815,0.07,1644845932.125,P08,D08,1,1,1
816,0.11,1644845932.140625,P08,D08,1,1,1
817,0.08,1644845932.15625,P08,D08,1,1,1
818,0.01,1644845932.171875,P08,D08,1,1,1
819,-0.09,1644845932.1875,P08,D08,1,1,1
820,-0.18,1644845932.203125,P08,D08,1,1,1
821,-0.27,1644845932.21875,P08,D08,1,1,1
822,-0.38,1644845932.234375,P08,D08,1,1,1
823,-0.53,1644845932.25,P08,D08,1,1,1
824,-0.7,1644845932.265625,P08,D08,1,1,1
825,-0.83,1644845932.28125,P08,D08,1,1,1
826,-0.87,1644845932.296875,P08,D08,1,1,1
827,-0.77,1644845932.3125,P08,D08,1,1,1
828,-0.57,1644845932.328125,P08,D08,1,1,1
829,-0.34,1644845932.34375,P08,D08,1,1,1
830,-0.19,1644845932.359375,P08,D08,1,1,1
831,-0.21,1644845932.375,P08,D08,1,1,1
832,-0.38,1644845932.390625,P08,D08,1,1,1
833,-0.61,1644845932.40625,P08,D08,1,1,1
834,-0.73,1644845932.421875,P08,D08,1,1,1
835,-0.59,1644845932.4375,P08,D08,1,1,1
836,-0.16,1644845932.453125,P08,D08,1,1,1
837,0.43,1644845932.46875,P08,D08,1,1,1
838,0.97,1644845932.484375,P08,D08,1,1,1
839,1.25,1644845932.5,P08,D08,1,1,1
840,1.18,1644845932.515625,P08,D08,1,1,1
841,0.88,1644845932.53125,P08,D08,1,1,1
842,0.56,1644845932.546875,P08,D08,1,1,1
843,0.39,1644845932.5625,P08,D08,1,1,1
844,0.43,1644845932.578125,P08,D08,1,1,1
845,0.59,1644845932.59375,P08,D08,1,1,1
846,0.7,1644845932.609375,P08,D08,1,1,1
847,0.68,1644845932.625,P08,D08,1,1,1
848,0.56,1644845932.640625,P08,D08,1,1,1
849,0.45,1644845932.65625,P08,D08,1,1,1
850,0.45,1644845932.671875,P08,D08,1,1,1
851,0.55,1644845932.6875,P08,D08,1,1,1
852,0.61,1644845932.703125,P08,D08,1,1,1
853,0.5,1644845932.71875,P08,D08,1,1,1
854,0.18,1644845932.734375,P08,D08,1,1,1
855,-0.26,1644845932.75,P08,D08,1,1,1
856,-0.65,1644845932.765625,P08,D08,1,1,1
857,-0.84,1644845932.78125,P08,D08,1,1,1
858,-0.81,1644845932.796875,P08,D08,1,1,1
859,-0.66,1644845932.8125,P08,D08,1,1,1
860,-0.54,1644845932.828125,P08,D08,1,1,1
861,-0.55,1644845932.84375,P08,D08,1,1,1
862,-0.67,1644845932.859375,P08,D08,1,1,1
863,-0.8,1644845932.875,P08,D08,1,1,1
864,-0.85,1644845932.890625,P08,D08,1,1,1
865,-0.76,1644845932.90625,P08,D08,1,1,1
866,-0.55,1644845932.921875,P08,D08,1,1,1
867,-0.29,1644845932.9375,P08,D08,1,1,1
868,-0.04,1644845932.953125,P08,D08,1,1,1
869,0.19,1644845932.96875,P08,D08,1,1,1
870,0.4,1644845932.984375,P08,D08,1,1,1
871,0.62,1644845933.0,P08,D08,1,1,1
872,0.83,1644845933.015625,P08,D08,1,1,1
873,1.02,1644845933.03125,P08,D08,1,1,1
874,1.14,1644845933.046875,P08,D08,1,1,1
875,1.16,1644845933.0625,P08,D08,1,1,1
876,1.09,1644845933.078125,P08,D08,1,1,1
877,0.94,1644845933.09375,P08,D08,1,1,1
878,0.74,1644845933.109375,P08,D08,1,1,1
879,0.52,1644845933.125,P08,D08,1,1,1
880,0.33,1644845933.140625,P08,D08,1,1,1
881,0.18,1644845933.15625,P08,D08,1,1,1
882,0.1,1644845933.171875,P08,D08,1,1,1
883,0.08,1644845933.1875,P08,D08,1,1,1
884,0.04,1644845933.203125,P08,D08,1,1,1
885,-0.05,1644845933.21875,P08,D08,1,1,1
886,-0.23,1644845933.234375,P08,D08,1,1,1
887,-0.48,1644845933.25,P08,D08,1,1,1
888,-0.74,1644845933.265625,P08,D08,1,1,1
889,-0.9,1644845933.28125,P08,D08,1,1,1
890,-0.89,1644845933.296875,P08,D08,1,1,1
891,-0.72,1644845933.3125,P08,D08,1,1,1
892,-0.44,1644845933.328125,P08,D08,1,1,1
893,-0.18,1644845933.34375,P08,D08,1,1,1
894,-0.02,1644845933.359375,P08,D08,1,1,1
895,-0.0,1644845933.375,P08,D08,1,1,1
896,-0.09,1644845933.390625,P08,D08,1,1,1
897,-0.18,1644845933.40625,P08,D08,1,1,1
898,-0.2,1644845933.421875,P08,D08,1,1,1
899,-0.1,1644845933.4375,P08,D08,1,1,1
900,0.09,1644845933.453125,P08,D08,1,1,1
901,0.29,1644845933.46875,P08,D08,1,1,1
902,0.4,1644845933.484375,P08,D08,1,1,1
903,0.39,1644845933.5,P08,D08,1,1,1
904,0.26,1644845933.515625,P08,D08,1,1,1
905,0.06,1644845933.53125,P08,D08,1,1,1
906,-0.12,1644845933.546875,P08,D08,1,1,1
907,-0.26,1644845933.5625,P08,D08,1,1,1
908,-0.36,1644845933.578125,P08,D08,1,1,1
909,-0.42,1644845933.59375,P08,D08,1,1,1
910,-0.46,1644845933.609375,P08,D08,1,1,1
911,-0.45,1644845933.625,P08,D08,1,1,1
912,-0.37,1644845933.640625,P08,D08,1,1,1
913,-0.21,1644845933.65625,P08,D08,1,1,1
914,-0.03,1644845933.671875,P08,D08,1,1,1
915,0.11,1644845933.6875,P08,D08,1,1,1
916,0.17,1644845933.703125,P08,D08,1,1,1
917,0.14,1644845933.71875,P08,D08,1,1,1
918,0.1,1644845933.734375,P08,D08,1,1,1
919,0.11,1644845933.75,P08,D08,1,1,1
920,0.19,1644845933.765625,P08,D08,1,1,1
921,0.3,1644845933.78125,P08,D08,1,1,1
922,0.32,1644845933.796875,P08,D08,1,1,1
923,0.19,1644845933.8125,P08,D08,1,1,1
924,-0.07,1644845933.828125,P08,D08,1,1,1
925,-0.35,1644845933.84375,P08,D08,1,1,1
926,-0.52,1644845933.859375,P08,D08,1,1,1
927,-0.46,1644845933.875,P08,D08,1,1,1
928,-0.18,1644845933.890625,P08,D08,1,1,1
929,0.25,1644845933.90625,P08,D08,1,1,1
930,0.66,1644845933.921875,P08,D08,1,1,1
931,0.91,1644845933.9375,P08,D08,1,1,1
932,0.94,1644845933.953125,P08,D08,1,1,1
933,0.76,1644845933.96875,P08,D08,1,1,1
934,0.46,1644845933.984375,P08,D08,1,1,1
935,0.16,1644845934.0,P08,D08,1,1,1
936,-0.06,1644845934.015625,P08,D08,1,1,1
937,-0.15,1644845934.03125,P08,D08,1,1,1
938,-0.12,1644845934.046875,P08,D08,1,1,1
939,-0.02,1644845934.0625,P08,D08,1,1,1
940,0.09,1644845934.078125,P08,D08,1,1,1
941,0.15,1644845934.09375,P08,D08,1,1,1
942,0.14,1644845934.109375,P08,D08,1,1,1
943,0.03,1644845934.125,P08,D08,1,1,1
944,-0.2,1644845934.140625,P08,D08,1,1,1
945,-0.51,1644845934.15625,P08,D08,1,1,1
946,-0.85,1644845934.171875,P08,D08,1,1,1
947,-1.14,1644845934.1875,P08,D08,1,1,1
948,-1.32,1644845934.203125,P08,D08,1,1,1
949,-1.37,1644845934.21875,P08,D08,1,1,1
950,-1.32,1644845934.234375,P08,D08,1,1,1
951,-1.24,1644845934.25,P08,D08,1,1,1
952,-1.17,1644845934.265625,P08,D08,1,1,1
953,-1.11,1644845934.28125,P08,D08,1,1,1
954,-1.01,1644845934.296875,P08,D08,1,1,1
955,-0.84,1644845934.3125,P08,D08,1,1,1
956,-0.6,1644845934.328125,P08,D08,1,1,1
957,-0.35,1644845934.34375,P08,D08,1,1,1
958,-0.15,1644845934.359375,P08,D08,1,1,1
959,-0.04,1644845934.375,P08,D08,1,1,1
960,0.01,1644845934.390625,P08,D08,1,1,1
961,0.05,1644845934.40625,P08,D08,1,1,1
962,0.12,1644845934.421875,P08,D08,1,1,1
963,0.23,1644845934.4375,P08,D08,1,1,1
964,0.34,1644845934.453125,P08,D08,1,1,1
965,0.44,1644845934.46875,P08,D08,1,1,1
966,0.51,1644845934.484375,P08,D08,1,1,1
967,0.57,1644845934.5,P08,D08,1,1,1
968,0.63,1644845934.515625,P08,D08,1,1,1
969,0.66,1644845934.53125,P08,D08,1,1,1
970,0.62,1644845934.546875,P08,D08,1,1,1
971,0.46,1644845934.5625,P08,D08,1,1,1
972,0.21,1644845934.578125,P08,D08,1,1,1
973,-0.05,1644845934.59375,P08,D08,1,1,1
974,-0.21,1644845934.609375,P08,D08,1,1,1
975,-0.2,1644845934.625,P08,D08,1,1,1
976,-0.03,1644845934.640625,P08,D08,1,1,1
977,0.23,1644845934.65625,P08,D08,1,1,1
978,0.48,1644845934.671875,P08,D08,1,1,1
979,0.67,1644845934.6875,P08,D08,1,1,1
980,0.8,1644845934.703125,P08,D08,1,1,1
981,0.92,1644845934.71875,P08,D08,1,1,1
982,1.06,1644845934.734375,P08,D08,1,1,1
983,1.19,1644845934.75,P08,D08,1,1,1
984,1.26,1644845934.765625,P08,D08,1,1,1
985,1.16,1644845934.78125,P08,D08,1,1,1
986,0.87,1644845934.796875,P08,D08,1,1,1
987,0.45,1644845934.8125,P08,D08,1,1,1
988,0.01,1644845934.828125,P08,D08,1,1,1
989,-0.33,1644845934.84375,P08,D08,1,1,1
990,-0.49,1644845934.859375,P08,D08,1,1,1
991,-0.47,1644845934.875,P08,D08,1,1,1
992,-0.33,1644845934.890625,P08,D08,1,1,1
993,-0.17,1644845934.90625,P08,D08,1,1,1
994,-0.07,1644845934.921875,P08,D08,1,1,1
995,-0.07,1644845934.9375,P08,D08,1,1,1
996,-0.15,1644845934.953125,P08,D08,1,1,1
997,-0.26,1644845934.96875,P08,D08,1,1,1
998,-0.33,1644845934.984375,P08,D08,1,1,1
999,-0.32,1644845935.0,P08,D08,1,1,1
1000,-0.26,1644845935.015625,P08,D08,1,1,1
1001,-0.2,1644845935.03125,P08,D08,1,1,1
1002,-0.23,1644845935.046875,P08,D08,1,1,1
1003,-0.36,1644845935.0625,P08,D08,1,1,1
1004,-0.57,1644845935.078125,P08,D08,1,1,1
1005,-0.75,1644845935.09375,P08,D08,1,1,1
1006,-0.8,1644845935.109375,P08,D08,1,1,1
1007,-0.69,1644845935.125,P08,D08,1,1,1
1008,-0.46,1644845935.140625,P08,D08,1,1,1
1009,-0.21,1644845935.15625,P08,D08,1,1,1
1010,-0.02,1644845935.171875,P08,D08,1,1,1
1011,0.09,1644845935.1875,P08,D08,1,1,1
1012,0.16,1644845935.203125,P08,D08,1,1,1
1013,0.25,1644845935.21875,P08,D08,1,1,1
1014,0.38,1644845935.234375,P08,D08,1,1,1
1015,0.52,1644845935.25,P08,D08,1,1,1
1016,0.6,1644845935.265625,P08,D08,1,1,1
1017,0.56,1644845935.28125,P08,D08,1,1,1
1018,0.39,1644845935.296875,P08,D08,1,1,1
1019,0.12,1644845935.3125,P08,D08,1,1,1
1020,-0.18,1644845935.328125,P08,D08,1,1,1
1021,-0.43,1644845935.34375,P08,D08,1,1,1
1022,-0.57,1644845935.359375,P08,D08,1,1,1
1023,-0.57,1644845935.375,P08,D08,1,1,1
1024,-0.43,1644845935.390625,P08,D08,1,1,1
1025,-0.2,1644845935.40625,P08,D08,1,1,1
1026,0.07,1644845935.421875,P08,D08,1,1,1
1027,0.3,1644845935.4375,P08,D08,1,1,1
1028,0.46,1644845935.453125,P08,D08,1,1,1
1029,0.56,1644845935.46875,P08,D08,1,1,1
1030,0.63,1644845935.484375,P08,D08,1,1,1
1031,0.66,1644845935.5,P08,D08,1,1,1
1032,0.62,1644845935.515625,P08,D08,1,1,1
1033,0.47,1644845935.53125,P08,D08,1,1,1
1034,0.18,1644845935.546875,P08,D08,1,1,1
1035,-0.18,1644845935.5625,P08,D08,1,1,1
1036,-0.49,1644845935.578125,P08,D08,1,1,1
1037,-0.64,1644845935.59375,P08,D08,1,1,1
1038,-0.58,1644845935.609375,P08,D08,1,1,1
1039,-0.37,1644845935.625,P08,D08,1,1,1
1040,-0.13,1644845935.640625,P08,D08,1,1,1
1041,-0.01,1644845935.65625,P08,D08,1,1,1
1042,-0.05,1644845935.671875,P08,D08,1,1,1
1043,-0.23,1644845935.6875,P08,D08,1,1,1
1044,-0.4,1644845935.703125,P08,D08,1,1,1
1045,-0.46,1644845935.71875,P08,D08,1,1,1
1046,-0.35,1644845935.734375,P08,D08,1,1,1
1047,-0.09,1644845935.75,P08,D08,1,1,1
1048,0.21,1644845935.765625,P08,D08,1,1,1
1049,0.47,1644845935.78125,P08,D08,1,1,1
1050,0.62,1644845935.796875,P08,D08,1,1,1
1051,0.67,1644845935.8125,P08,D08,1,1,1
1052,0.67,1644845935.828125,P08,D08,1,1,1
1053,0.64,1644845935.84375,P08,D08,1,1,1
1054,0.58,1644845935.859375,P08,D08,1,1,1
1055,0.42,1644845935.875,P08,D08,1,1,1
1056,0.13,1644845935.890625,P08,D08,1,1,1
1057,-0.25,1644845935.90625,P08,D08,1,1,1
1058,-0.58,1644845935.921875,P08,D08,1,1,1
1059,-0.72,1644845935.9375,P08,D08,1,1,1
1060,-0.57,1644845935.953125,P08,D08,1,1,1
1061,-0.18,1644845935.96875,P08,D08,1,1,1
1062,0.29,1644845935.984375,P08,D08,1,1,1
1063,0.63,1644845936.0,P08,D08,1,1,1
1064,0.7,1644845936.015625,P08,D08,1,1,1
1065,0.49,1644845936.03125,P08,D08,1,1,1
1066,0.14,1644845936.046875,P08,D08,1,1,1
1067,-0.19,1644845936.0625,P08,D08,1,1,1
1068,-0.4,1644845936.078125,P08,D08,1,1,1
1069,-0.5,1644845936.09375,P08,D08,1,1,1
1070,-0.55,1644845936.109375,P08,D08,1,1,1
1071,-0.58,1644845936.125,P08,D08,1,1,1
1072,-0.55,1644845936.140625,P08,D08,1,1,1
1073,-0.39,1644845936.15625,P08,D08,1,1,1
1074,-0.09,1644845936.171875,P08,D08,1,1,1
1075,0.3,1644845936.1875,P08,D08,1,1,1
1076,0.65,1644845936.203125,P08,D08,1,1,1
1077,0.85,1644845936.21875,P08,D08,1,1,1
1078,0.87,1644845936.234375,P08,D08,1,1,1
1079,0.79,1644845936.25,P08,D08,1,1,1
1080,0.69,1644845936.265625,P08,D08,1,1,1
1081,0.66,1644845936.28125,P08,D08,1,1,1
1082,0.7,1644845936.296875,P08,D08,1,1,1
1083,0.75,1644845936.3125,P08,D08,1,1,1
1084,0.76,1644845936.328125,P08,D08,1,1,1
1085,0.71,1644845936.34375,P08,D08,1,1,1
1086,0.6,1644845936.359375,P08,D08,1,1,1
1087,0.46,1644845936.375,P08,D08,1,1,1
1088,0.29,1644845936.390625,P08,D08,1,1,1
1089,0.11,1644845936.40625,P08,D08,1,1,1
1090,-0.04,1644845936.421875,P08,D08,1,1,1
1091,-0.11,1644845936.4375,P08,D08,1,1,1
1092,-0.08,1644845936.453125,P08,D08,1,1,1
1093,0.05,1644845936.46875,P08,D08,1,1,1
1094,0.22,1644845936.484375,P08,D08,1,1,1
1095,0.35,1644845936.5,P08,D08,1,1,1
1096,0.41,1644845936.515625,P08,D08,1,1,1
1097,0.38,1644845936.53125,P08,D08,1,1,1
1098,0.28,1644845936.546875,P08,D08,1,1,1
1099,0.14,1644845936.5625,P08,D08,1,1,1
1100,-0.02,1644845936.578125,P08,D08,1,1,1
1101,-0.18,1644845936.59375,P08,D08,1,1,1
1102,-0.32,1644845936.609375,P08,D08,1,1,1
1103,-0.4,1644845936.625,P08,D08,1,1,1
1104,-0.4,1644845936.640625,P08,D08,1,1,1
1105,-0.3,1644845936.65625,P08,D08,1,1,1
1106,-0.11,1644845936.671875,P08,D08,1,1,1
1107,0.13,1644845936.6875,P08,D08,1,1,1
1108,0.36,1644845936.703125,P08,D08,1,1,1
1109,0.52,1644845936.71875,P08,D08,1,1,1
1110,0.55,1644845936.734375,P08,D08,1,1,1
1111,0.42,1644845936.75,P08,D08,1,1,1
1112,0.14,1644845936.765625,P08,D08,1,1,1
1113,-0.2,1644845936.78125,P08,D08,1,1,1
1114,-0.47,1644845936.796875,P08,D08,1,1,1
1115,-0.57,1644845936.8125,P08,D08,1,1,1
1116,-0.45,1644845936.828125,P08,D08,1,1,1
1117,-0.17,1644845936.84375,P08,D08,1,1,1
1118,0.17,1644845936.859375,P08,D08,1,1,1
1119,0.4,1644845936.875,P08,D08,1,1,1
1120,0.43,1644845936.890625,P08,D08,1,1,1
1121,0.2,1644845936.90625,P08,D08,1,1,1
1122,-0.2,1644845936.921875,P08,D08,1,1,1
1123,-0.67,1644845936.9375,P08,D08,1,1,1
1124,-1.05,1644845936.953125,P08,D08,1,1,1
1125,-1.22,1644845936.96875,P08,D08,1,1,1
1126,-1.14,1644845936.984375,P08,D08,1,1,1
1127,-0.87,1644845937.0,P08,D08,1,1,1
1128,-0.51,1644845937.015625,P08,D08,1,1,1
1129,-0.2,1644845937.03125,P08,D08,1,1,1
1130,-0.03,1644845937.046875,P08,D08,1,1,1
1131,-0.01,1644845937.0625,P08,D08,1,1,1
1132,-0.11,1644845937.078125,P08,D08,1,1,1
1133,-0.26,1644845937.09375,P08,D08,1,1,1
1134,-0.39,1644845937.109375,P08,D08,1,1,1
1135,-0.47,1644845937.125,P08,D08,1,1,1
1136,-0.47,1644845937.140625,P08,D08,1,1,1
1137,-0.4,1644845937.15625,P08,D08,1,1,1
1138,-0.29,1644845937.171875,P08,D08,1,1,1
1139,-0.17,1644845937.1875,P08,D08,1,1,1
1140,-0.09,1644845937.203125,P08,D08,1,1,1
1141,-0.1,1644845937.21875,P08,D08,1,1,1
1142,-0.2,1644845937.234375,P08,D08,1,1,1
1143,-0.37,1644845937.25,P08,D08,1,1,1
1144,-0.52,1644845937.265625,P08,D08,1,1,1
1145,-0.57,1644845937.28125,P08,D08,1,1,1
1146,-0.47,1644845937.296875,P08,D08,1,1,1
1147,-0.26,1644845937.3125,P08,D08,1,1,1
1148,-0.01,1644845937.328125,P08,D08,1,1,1
1149,0.18,1644845937.34375,P08,D08,1,1,1
1150,0.24,1644845937.359375,P08,D08,1,1,1
1151,0.13,1644845937.375,P08,D08,1,1,1
1152,-0.07,1644845937.390625,P08,D08,1,1,1
1153,-0.28,1644845937.40625,P08,D08,1,1,1
1154,-0.4,1644845937.421875,P08,D08,1,1,1
1155,-0.38,1644845937.4375,P08,D08,1,1,1
1156,-0.2,1644845937.453125,P08,D08,1,1,1
1157,0.06,1644845937.46875,P08,D08,1,1,1
1158,0.32,1644845937.484375,P08,D08,1,1,1
1159,0.46,1644845937.5,P08,D08,1,1,1
1160,0.4,1644845937.515625,P08,D08,1,1,1
1161,0.14,1644845937.53125,P08,D08,1,1,1
1162,-0.26,1644845937.546875,P08,D08,1,1,1
1163,-0.65,1644845937.5625,P08,D08,1,1,1
1164,-0.9,1644845937.578125,P08,D08,1,1,1
1165,-0.92,1644845937.59375,P08,D08,1,1,1
1166,-0.72,1644845937.609375,P08,D08,1,1,1
1167,-0.4,1644845937.625,P08,D08,1,1,1
1168,-0.07,1644845937.640625,P08,D08,1,1,1
1169,0.16,1644845937.65625,P08,D08,1,1,1
1170,0.28,1644845937.671875,P08,D08,1,1,1
1171,0.32,1644845937.6875,P08,D08,1,1,1
1172,0.36,1644845937.703125,P08,D08,1,1,1
1173,0.43,1644845937.71875,P08,D08,1,1,1
1174,0.55,1644845937.734375,P08,D08,1,1,1
1175,0.66,1644845937.75,P08,D08,1,1,1
1176,0.7,1644845937.765625,P08,D08,1,1,1
1177,0.62,1644845937.78125,P08,D08,1,1,1
1178,0.41,1644845937.796875,P08,D08,1,1,1
1179,0.11,1644845937.8125,P08,D08,1,1,1
1180,-0.24,1644845937.828125,P08,D08,1,1,1
1181,-0.54,1644845937.84375,P08,D08,1,1,1
1182,-0.69,1644845937.859375,P08,D08,1,1,1
1183,-0.65,1644845937.875,P08,D08,1,1,1
1184,-0.41,1644845937.890625,P08,D08,1,1,1
1185,-0.03,1644845937.90625,P08,D08,1,1,1
1186,0.37,1644845937.921875,P08,D08,1,1,1
1187,0.66,1644845937.9375,P08,D08,1,1,1
1188,0.78,1644845937.953125,P08,D08,1,1,1
1189,0.68,1644845937.96875,P08,D08,1,1,1
1190,0.44,1644845937.984375,P08,D08,1,1,1
1191,0.18,1644845938.0,P08,D08,1,1,1
1192,0.0,1644845938.015625,P08,D08,1,1,1
1193,-0.02,1644845938.03125,P08,D08,1,1,1
1194,0.08,1644845938.046875,P08,D08,1,1,1
1195,0.23,1644845938.0625,P08,D08,1,1,1
1196,0.35,1644845938.078125,P08,D08,1,1,1
1197,0.38,1644845938.09375,P08,D08,1,1,1
1198,0.34,1644845938.109375,P08,D08,1,1,1
1199,0.24,1644845938.125,P08,D08,1,1,1
1200,0.13,1644845938.140625,P08,D08,1,1,1
1201,-0.01,1644845938.15625,P08,D08,1,1,1
1202,-0.2,1644845938.171875,P08,D08,1,1,1
1203,-0.47,1644845938.1875,P08,D08,1,1,1
1204,-0.77,1644845938.203125,P08,D08,1,1,1
1205,-1.04,1644845938.21875,P08,D08,1,1,1
1206,-1.17,1644845938.234375,P08,D08,1,1,1
1207,-1.11,1644845938.25,P08,D08,1,1,1
1208,-0.87,1644845938.265625,P08,D08,1,1,1
1209,-0.55,1644845938.28125,P08,D08,1,1,1
1210,-0.25,1644845938.296875,P08,D08,1,1,1
1211,-0.06,1644845938.3125,P08,D08,1,1,1
1212,0.03,1644845938.328125,P08,D08,1,1,1
1213,0.07,1644845938.34375,P08,D08,1,1,1
1214,0.14,1644845938.359375,P08,D08,1,1,1
1215,0.3,1644845938.375,P08,D08,1,1,1
1216,0.54,1644845938.390625,P08,D08,1,1,1
1217,0.79,1644845938.40625,P08,D08,1,1,1
1218,0.98,1644845938.421875,P08,D08,1,1,1
1219,1.04,1644845938.4375,P08,D08,1,1,1
1220,0.97,1644845938.453125,P08,D08,1,1,1
1221,0.8,1644845938.46875,P08,D08,1,1,1
1222,0.61,1644845938.484375,P08,D08,1,1,1
1223,0.47,1644845938.5,P08,D08,1,1,1
1224,0.41,1644845938.515625,P08,D08,1,1,1
1225,0.4,1644845938.53125,P08,D08,1,1,1
1226,0.36,1644845938.546875,P08,D08,1,1,1
1227,0.25,1644845938.5625,P08,D08,1,1,1
1228,0.05,1644845938.578125,P08,D08,1,1,1
1229,-0.21,1644845938.59375,P08,D08,1,1,1
1230,-0.43,1644845938.609375,P08,D08,1,1,1
1231,-0.58,1644845938.625,P08,D08,1,1,1
1232,-0.65,1644845938.640625,P08,D08,1,1,1
1233,-0.7,1644845938.65625,P08,D08,1,1,1
1234,-0.78,1644845938.671875,P08,D08,1,1,1
1235,-0.9,1644845938.6875,P08,D08,1,1,1
1236,-0.97,1644845938.703125,P08,D08,1,1,1
1237,-0.89,1644845938.71875,P08,D08,1,1,1
1238,-0.64,1644845938.734375,P08,D08,1,1,1
1239,-0.28,1644845938.75,P08,D08,1,1,1
1240,0.04,1644845938.765625,P08,D08,1,1,1
1241,0.16,1644845938.78125,P08,D08,1,1,1
1242,0.04,1644845938.796875,P08,D08,1,1,1
1243,-0.25,1644845938.8125,P08,D08,1,1,1
1244,-0.53,1644845938.828125,P08,D08,1,1,1
1245,-0.63,1644845938.84375,P08,D08,1,1,1
1246,-0.5,1644845938.859375,P08,D08,1,1,1
1247,-0.19,1644845938.875,P08,D08,1,1,1
1248,0.16,1644845938.890625,P08,D08,1,1,1
1249,0.41,1644845938.90625,P08,D08,1,1,1
1250,0.52,1644845938.921875,P08,D08,1,1,1
1251,0.5,1644845938.9375,P08,D08,1,1,1
1252,0.43,1644845938.953125,P08,D08,1,1,1
1253,0.4,1644845938.96875,P08,D08,1,1,1
1254,0.45,1644845938.984375,P08,D08,1,1,1
1255,0.57,1644845939.0,P08,D08,1,1,1
1256,0.71,1644845939.015625,P08,D08,1,1,1
1257,0.77,1644845939.03125,P08,D08,1,1,1
1258,0.69,1644845939.046875,P08,D08,1,1,1
1259,0.47,1644845939.0625,P08,D08,1,1,1
1260,0.15,1644845939.078125,P08,D08,1,1,1
1261,-0.16,1644845939.09375,P08,D08,1,1,1
1262,-0.38,1644845939.109375,P08,D08,1,1,1
1263,-0.44,1644845939.125,P08,D08,1,1,1
1264,-0.36,1644845939.140625,P08,D08,1,1,1
1265,-0.19,1644845939.15625,P08,D08,1,1,1
1266,-0.04,1644845939.171875,P08,D08,1,1,1
1267,0.02,1644845939.1875,P08,D08,1,1,1
1268,-0.02,1644845939.203125,P08,D08,1,1,1
1269,-0.12,1644845939.21875,P08,D08,1,1,1
1270,-0.22,1644845939.234375,P08,D08,1,1,1
1271,-0.3,1644845939.25,P08,D08,1,1,1
1272,-0.36,1644845939.265625,P08,D08,1,1,1
1273,-0.43,1644845939.28125,P08,D08,1,1,1
1274,-0.53,1644845939.296875,P08,D08,1,1,1
1275,-0.63,1644845939.3125,P08,D08,1,1,1
1276,-0.69,1644845939.328125,P08,D08,1,1,1
1277,-0.65,1644845939.34375,P08,D08,1,1,1
1278,-0.49,1644845939.359375,P08,D08,1,1,1
1279,-0.23,1644845939.375,P08,D08,1,1,1
1280,0.06,1644845939.390625,P08,D08,1,1,1
1281,0.32,1644845939.40625,P08,D08,1,1,1
1282,0.47,1644845939.421875,P08,D08,1,1,1
1283,0.48,1644845939.4375,P08,D08,1,1,1
1284,0.37,1644845939.453125,P08,D08,1,1,1
1285,0.17,1644845939.46875,P08,D08,1,1,1
1286,-0.03,1644845939.484375,P08,D08,1,1,1
1287,-0.15,1644845939.5,P08,D08,1,1,1
1288,-0.12,1644845939.515625,P08,D08,1,1,1
1289,0.08,1644845939.53125,P08,D08,1,1,1
1290,0.39,1644845939.546875,P08,D08,1,1,1
1291,0.72,1644845939.5625,P08,D08,1,1,1
1292,0.96,1644845939.578125,P08,D08,1,1,1
1293,1.05,1644845939.59375,P08,D08,1,1,1
1294,0.99,1644845939.609375,P08,D08,1,1,1
1295,0.84,1644845939.625,P08,D08,1,1,1
1296,0.66,1644845939.640625,P08,D08,1,1,1
1297,0.51,1644845939.65625,P08,D08,1,1,1
1298,0.42,1644845939.671875,P08,D08,1,1,1
1299,0.34,1644845939.6875,P08,D08,1,1,1
1300,0.27,1644845939.703125,P08,D08,1,1,1
1301,0.18,1644845939.71875,P08,D08,1,1,1
1302,0.1,1644845939.734375,P08,D08,1,1,1
1303,0.08,1644845939.75,P08,D08,1,1,1
1304,0.14,1644845939.765625,P08,D08,1,1,1
1305,0.27,1644845939.78125,P08,D08,1,1,1
1306,0.39,1644845939.796875,P08,D08,1,1,1
1307,0.47,1644845939.8125,P08,D08,1,1,1
1308,0.46,1644845939.828125,P08,D08,1,1,1
1309,0.4,1644845939.84375,P08,D08,1,1,1
1310,0.32,1644845939.859375,P08,D08,1,1,1
1311,0.24,1644845939.875,P08,D08,1,1,1
1312,0.13,1644845939.890625,P08,D08,1,1,1
1313,-0.05,1644845939.90625,P08,D08,1,1,1
1314,-0.34,1644845939.921875,P08,D08,1,1,1
1315,-0.73,1644845939.9375,P08,D08,1,1,1
1316,-1.12,1644845939.953125,P08,D08,1,1,1
1317,-1.38,1644845939.96875,P08,D08,1,1,1
1318,-1.43,1644845939.984375,P08,D08,1,1,1
1319,-1.27,1644845940.0,P08,D08,1,1,1
1320,-0.99,1644845940.015625,P08,D08,1,1,1
1321,-0.71,1644845940.03125,P08,D08,1,1,1
1322,-0.5,1644845940.046875,P08,D08,1,1,1
1323,-0.4,1644845940.0625,P08,D08,1,1,1
1324,-0.36,1644845940.078125,P08,D08,1,1,1
1325,-0.3,1644845940.09375,P08,D08,1,1,1
1326,-0.17,1644845940.109375,P08,D08,1,1,1
1327,0.03,1644845940.125,P08,D08,1,1,1
1328,0.24,1644845940.140625,P08,D08,1,1,1
1329,0.4,1644845940.15625,P08,D08,1,1,1
1330,0.45,1644845940.171875,P08,D08,1,1,1
1331,0.41,1644845940.1875,P08,D08,1,1,1
1332,0.33,1644845940.203125,P08,D08,1,1,1
1333,0.31,1644845940.21875,P08,D08,1,1,1
1334,0.39,1644845940.234375,P08,D08,1,1,1
1335,0.57,1644845940.25,P08,D08,1,1,1
1336,0.74,1644845940.265625,P08,D08,1,1,1
1337,0.79,1644845940.28125,P08,D08,1,1,1
1338,0.63,1644845940.296875,P08,D08,1,1,1
1339,0.27,1644845940.3125,P08,D08,1,1,1
1340,-0.2,1644845940.328125,P08,D08,1,1,1
1341,-0.62,1644845940.34375,P08,D08,1,1,1
1342,-0.87,1644845940.359375,P08,D08,1,1,1
1343,-0.93,1644845940.375,P08,D08,1,1,1
1344,-0.85,1644845940.390625,P08,D08,1,1,1
1345,-0.71,1644845940.40625,P08,D08,1,1,1
1346,-0.57,1644845940.421875,P08,D08,1,1,1
1347,-0.44,1644845940.4375,P08,D08,1,1,1
1348,-0.3,1644845940.453125,P08,D08,1,1,1
1349,-0.14,1644845940.46875,P08,D08,1,1,1
1350,0.03,1644845940.484375,P08,D08,1,1,1
1351,0.14,1644845940.5,P08,D08,1,1,1
1352,0.14,1644845940.515625,P08,D08,1,1,1
1353,0.02,1644845940.53125,P08,D08,1,1,1
1354,-0.15,1644845940.546875,P08,D08,1,1,1
1355,-0.25,1644845940.5625,P08,D08,1,1,1
1356,-0.15,1644845940.578125,P08,D08,1,1,1
1357,0.16,1644845940.59375,P08,D08,1,1,1
1358,0.64,1644845940.609375,P08,D08,1,1,1
1359,1.13,1644845940.625,P08,D08,1,1,1
1360,1.46,1644845940.640625,P08,D08,1,1,1
1361,1.55,1644845940.65625,P08,D08,1,1,1
1362,1.4,1644845940.671875,P08,D08,1,1,1
1363,1.11,1644845940.6875,P08,D08,1,1,1
1364,0.79,1644845940.703125,P08,D08,1,1,1
1365,0.55,1644845940.71875,P08,D08,1,1,1
1366,0.39,1644845940.734375,P08,D08,1,1,1
1367,0.29,1644845940.75,P08,D08,1,1,1
1368,0.21,1644845940.765625,P08,D08,1,1,1
1369,0.12,1644845940.78125,P08,D08,1,1,1
1370,0.08,1644845940.796875,P08,D08,1,1,1
1371,0.13,1644845940.8125,P08,D08,1,1,1
1372,0.29,1644845940.828125,P08,D08,1,1,1
1373,0.49,1644845940.84375,P08,D08,1,1,1
1374,0.62,1644845940.859375,P08,D08,1,1,1
1375,0.57,1644845940.875,P08,D08,1,1,1
1376,0.31,1644845940.890625,P08,D08,1,1,1
1377,-0.09,1644845940.90625,P08,D08,1,1,1
1378,-0.45,1644845940.921875,P08,D08,1,1,1
1379,-0.65,1644845940.9375,P08,D08,1,1,1
1380,-0.64,1644845940.953125,P08,D08,1,1,1
1381,-0.51,1644845940.96875,P08,D08,1,1,1
1382,-0.4,1644845940.984375,P08,D08,1,1,1
1383,-0.42,1644845941.0,P08,D08,1,1,1
1384,-0.57,1644845941.015625,P08,D08,1,1,1
1385,-0.73,1644845941.03125,P08,D08,1,1,1
1386,-0.78,1644845941.046875,P08,D08,1,1,1
1387,-0.66,1644845941.0625,P08,D08,1,1,1
1388,-0.46,1644845941.078125,P08,D08,1,1,1
1389,-0.33,1644845941.09375,P08,D08,1,1,1
1390,-0.38,1644845941.109375,P08,D08,1,1,1
1391,-0.62,1644845941.125,P08,D08,1,1,1
1392,-0.9,1644845941.140625,P08,D08,1,1,1
1393,-1.08,1644845941.15625,P08,D08,1,1,1
1394,-1.04,1644845941.171875,P08,D08,1,1,1
1395,-0.78,1644845941.1875,P08,D08,1,1,1
1396,-0.42,1644845941.203125,P08,D08,1,1,1
1397,-0.1,1644845941.21875,P08,D08,1,1,1
1398,0.08,1644845941.234375,P08,D08,1,1,1
1399,0.07,1644845941.25,P08,D08,1,1,1
1400,-0.11,1644845941.265625,P08,D08,1,1,1
1401,-0.43,1644845941.28125,P08,D08,1,1,1
1402,-0.82,1644845941.296875,P08,D08,1,1,1
1403,-1.19,1644845941.3125,P08,D08,1,1,1
1404,-1.42,1644845941.328125,P08,D08,1,1,1
1405,-1.41,1644845941.34375,P08,D08,1,1,1
1406,-1.11,1644845941.359375,P08,D08,1,1,1
1407,-0.57,1644845941.375,P08,D08,1,1,1
1408,0.09,1644845941.390625,P08,D08,1,1,1
1409,0.71,1644845941.40625,P08,D08,1,1,1
1410,1.17,1644845941.421875,P08,D08,1,1,1
1411,1.41,1644845941.4375,P08,D08,1,1,1
1412,1.45,1644845941.453125,P08,D08,1,1,1
1413,1.32,1644845941.46875,P08,D08,1,1,1
1414,1.05,1644845941.484375,P08,D08,1,1,1
1415,0.7,1644845941.5,P08,D08,1,1,1
1416,0.3,1644845941.515625,P08,D08,1,1,1
1417,-0.05,1644845941.53125,P08,D08,1,1,1
1418,-0.26,1644845941.546875,P08,D08,1,1,1
1419,-0.26,1644845941.5625,P08,D08,1,1,1
1420,-0.05,1644845941.578125,P08,D08,1,1,1
1421,0.28,1644845941.59375,P08,D08,1,1,1
1422,0.64,1644845941.609375,P08,D08,1,1,1
1423,0.92,1644845941.625,P08,D08,1,1,1
1424,1.08,1644845941.640625,P08,D08,1,1,1
1425,1.12,1644845941.65625,P08,D08,1,1,1
1426,1.08,1644845941.671875,P08,D08,1,1,1
1427,0.98,1644845941.6875,P08,D08,1,1,1
1428,0.83,1644845941.703125,P08,D08,1,1,1
1429,0.64,1644845941.71875,P08,D08,1,1,1
1430,0.42,1644845941.734375,P08,D08,1,1,1
1431,0.2,1644845941.75,P08,D08,1,1,1
1432,0.02,1644845941.765625,P08,D08,1,1,1
1433,-0.14,1644845941.78125,P08,D08,1,1,1
1434,-0.29,1644845941.796875,P08,D08,1,1,1
1435,-0.48,1644845941.8125,P08,D08,1,1,1
1436,-0.71,1644845941.828125,P08,D08,1,1,1
1437,-0.93,1644845941.84375,P08,D08,1,1,1
1438,-1.09,1644845941.859375,P08,D08,1,1,1
1439,-1.13,1644845941.875,P08,D08,1,1,1
1440,-1.02,1644845941.890625,P08,D08,1,1,1
1441,-0.8,1644845941.90625,P08,D08,1,1,1
1442,-0.54,1644845941.921875,P08,D08,1,1,1
1443,-0.31,1644845941.9375,P08,D08,1,1,1
1444,-0.18,1644845941.953125,P08,D08,1,1,1
1445,-0.16,1644845941.96875,P08,D08,1,1,1
1446,-0.23,1644845941.984375,P08,D08,1,1,1
1447,-0.34,1644845942.0,P08,D08,1,1,1
1448,-0.4,1644845942.015625,P08,D08,1,1,1
1449,-0.34,1644845942.03125,P08,D08,1,1,1
1450,-0.13,1644845942.046875,P08,D08,1,1,1
1451,0.18,1644845942.0625,P08,D08,1,1,1
1452,0.52,1644845942.078125,P08,D08,1,1,1
1453,0.78,1644845942.09375,P08,D08,1,1,1
1454,0.9,1644845942.109375,P08,D08,1,1,1
1455,0.85,1644845942.125,P08,D08,1,1,1
1456,0.65,1644845942.140625,P08,D08,1,1,1
1457,0.36,1644845942.15625,P08,D08,1,1,1
1458,0.04,1644845942.171875,P08,D08,1,1,1
1459,-0.24,1644845942.1875,P08,D08,1,1,1
1460,-0.43,1644845942.203125,P08,D08,1,1,1
1461,-0.51,1644845942.21875,P08,D08,1,1,1
1462,-0.49,1644845942.234375,P08,D08,1,1,1
1463,-0.41,1644845942.25,P08,D08,1,1,1
1464,-0.29,1644845942.265625,P08,D08,1,1,1
1465,-0.13,1644845942.28125,P08,D08,1,1,1
1466,0.06,1644845942.296875,P08,D08,1,1,1
1467,0.25,1644845942.3125,P08,D08,1,1,1
1468,0.39,1644845942.328125,P08,D08,1,1,1
1469,0.41,1644845942.34375,P08,D08,1,1,1
1470,0.3,1644845942.359375,P08,D08,1,1,1
1471,0.11,1644845942.375,P08,D08,1,1,1
1472,-0.08,1644845942.390625,P08,D08,1,1,1
1473,-0.16,1644845942.40625,P08,D08,1,1,1
1474,-0.14,1644845942.421875,P08,D08,1,1,1
1475,-0.06,1644845942.4375,P08,D08,1,1,1
1476,-0.04,1644845942.453125,P08,D08,1,1,1
1477,-0.13,1644845942.46875,P08,D08,1,1,1
1478,-0.31,1644845942.484375,P08,D08,1,1,1
1479,-0.47,1644845942.5,P08,D08,1,1,1
1480,-0.48,1644845942.515625,P08,D08,1,1,1
1481,-0.3,1644845942.53125,P08,D08,1,1,1
1482,-0.0,1644845942.546875,P08,D08,1,1,1
1483,0.27,1644845942.5625,P08,D08,1,1,1
1484,0.41,1644845942.578125,P08,D08,1,1,1
1485,0.38,1644845942.59375,P08,D08,1,1,1
1486,0.23,1644845942.609375,P08,D08,1,1,1
1487,0.09,1644845942.625,P08,D08,1,1,1
1488,0.05,1644845942.640625,P08,D08,1,1,1
1489,0.12,1644845942.65625,P08,D08,1,1,1
1490,0.24,1644845942.671875,P08,D08,1,1,1
1491,0.29,1644845942.6875,P08,D08,1,1,1
1492,0.2,1644845942.703125,P08,D08,1,1,1
1493,-0.02,1644845942.71875,P08,D08,1,1,1
1494,-0.27,1644845942.734375,P08,D08,1,1,1
1495,-0.42,1644845942.75,P08,D08,1,1,1
1496,-0.37,1644845942.765625,P08,D08,1,1,1
1497,-0.15,1644845942.78125,P08,D08,1,1,1
1498,0.12,1644845942.796875,P08,D08,1,1,1
1499,0.3,1644845942.8125,P08,D08,1,1,1
1500,0.3,1644845942.828125,P08,D08,1,1,1
1501,0.12,1644845942.84375,P08,D08,1,1,1
1502,-0.14,1644845942.859375,P08,D08,1,1,1
1503,-0.33,1644845942.875,P08,D08,1,1,1
1504,-0.36,1644845942.890625,P08,D08,1,1,1
1505,-0.23,1644845942.90625,P08,D08,1,1,1
1506,0.03,1644845942.921875,P08,D08,1,1,1
1507,0.33,1644845942.9375,P08,D08,1,1,1
1508,0.59,1644845942.953125,P08,D08,1,1,1
1509,0.75,1644845942.96875,P08,D08,1,1,1
1510,0.8,1644845942.984375,P08,D08,1,1,1
1511,0.68,1644845943.0,P08,D08,1,1,1
1512,0.39,1644845943.015625,P08,D08,1,1,1
1513,-0.0,1644845943.03125,P08,D08,1,1,1
1514,-0.43,1644845943.046875,P08,D08,1,1,1
1515,-0.76,1644845943.0625,P08,D08,1,1,1
1516,-0.93,1644845943.078125,P08,D08,1,1,1
1517,-0.92,1644845943.09375,P08,D08,1,1,1
1518,-0.79,1644845943.109375,P08,D08,1,1,1
1519,-0.61,1644845943.125,P08,D08,1,1,1
1520,-0.45,1644845943.140625,P08,D08,1,1,1
1521,-0.34,1644845943.15625,P08,D08,1,1,1
1522,-0.28,1644845943.171875,P08,D08,1,1,1
1523,-0.26,1644845943.1875,P08,D08,1,1,1
1524,-0.3,1644845943.203125,P08,D08,1,1,1
1525,-0.38,1644845943.21875,P08,D08,1,1,1
1526,-0.47,1644845943.234375,P08,D08,1,1,1
1527,-0.49,1644845943.25,P08,D08,1,1,1
1528,-0.37,1644845943.265625,P08,D08,1,1,1
1529,-0.07,1644845943.28125,P08,D08,1,1,1
1530,0.35,1644845943.296875,P08,D08,1,1,1
1531,0.77,1644845943.3125,P08,D08,1,1,1
1532,1.02,1644845943.328125,P08,D08,1,1,1
1533,1.03,1644845943.34375,P08,D08,1,1,1
1534,0.81,1644845943.359375,P08,D08,1,1,1
1535,0.46,1644845943.375,P08,D08,1,1,1
1536,0.15,1644845943.390625,P08,D08,1,1,1
1537,-0.01,1644845943.40625,P08,D08,1,1,1
1538,0.03,1644845943.421875,P08,D08,1,1,1
1539,0.22,1644845943.4375,P08,D08,1,1,1
1540,0.45,1644845943.453125,P08,D08,1,1,1
1541,0.61,1644845943.46875,P08,D08,1,1,1
1542,0.66,1644845943.484375,P08,D08,1,1,1
1543,0.6,1644845943.5,P08,D08,1,1,1
1544,0.47,1644845943.515625,P08,D08,1,1,1
1545,0.33,1644845943.53125,P08,D08,1,1,1
1546,0.21,1644845943.546875,P08,D08,1,1,1
1547,0.12,1644845943.5625,P08,D08,1,1,1
1548,0.07,1644845943.578125,P08,D08,1,1,1
1549,0.08,1644845943.59375,P08,D08,1,1,1
1550,0.12,1644845943.609375,P08,D08,1,1,1
1551,0.18,1644845943.625,P08,D08,1,1,1
1552,0.21,1644845943.640625,P08,D08,1,1,1
1553,0.17,1644845943.65625,P08,D08,1,1,1
1554,0.04,1644845943.671875,P08,D08,1,1,1
1555,-0.16,1644845943.6875,P08,D08,1,1,1
1556,-0.39,1644845943.703125,P08,D08,1,1,1
1557,-0.61,1644845943.71875,P08,D08,1,1,1
1558,-0.77,1644845943.734375,P08,D08,1,1,1
1559,-0.86,1644845943.75,P08,D08,1,1,1
1560,-0.86,1644845943.765625,P08,D08,1,1,1
1561,-0.73,1644845943.78125,P08,D08,1,1,1
1562,-0.44,1644845943.796875,P08,D08,1,1,1
1563,-0.01,1644845943.8125,P08,D08,1,1,1
1564,0.47,1644845943.828125,P08,D08,1,1,1
1565,0.86,1644845943.84375,P08,D08,1,1,1
1566,1.02,1644845943.859375,P08,D08,1,1,1
1567,0.91,1644845943.875,P08,D08,1,1,1
1568,0.55,1644845943.890625,P08,D08,1,1,1
1569,0.09,1644845943.90625,P08,D08,1,1,1
1570,-0.32,1644845943.921875,P08,D08,1,1,1
1571,-0.58,1644845943.9375,P08,D08,1,1,1
1572,-0.66,1644845943.953125,P08,D08,1,1,1
1573,-0.58,1644845943.96875,P08,D08,1,1,1
1574,-0.43,1644845943.984375,P08,D08,1,1,1
1575,-0.26,1644845944.0,P08,D08,1,1,1
1576,-0.14,1644845944.015625,P08,D08,1,1,1
1577,-0.1,1644845944.03125,P08,D08,1,1,1
1578,-0.16,1644845944.046875,P08,D08,1,1,1
1579,-0.31,1644845944.0625,P08,D08,1,1,1
1580,-0.49,1644845944.078125,P08,D08,1,1,1
1581,-0.61,1644845944.09375,P08,D08,1,1,1
1582,-0.59,1644845944.109375,P08,D08,1,1,1
1583,-0.42,1644845944.125,P08,D08,1,1,1
1584,-0.16,1644845944.140625,P08,D08,1,1,1
1585,0.09,1644845944.15625,P08,D08,1,1,1
1586,0.22,1644845944.171875,P08,D08,1,1,1
1587,0.19,1644845944.1875,P08,D08,1,1,1
1588,0.07,1644845944.203125,P08,D08,1,1,1
1589,-0.06,1644845944.21875,P08,D08,1,1,1
1590,-0.13,1644845944.234375,P08,D08,1,1,1
1591,-0.13,1644845944.25,P08,D08,1,1,1
1592,-0.11,1644845944.265625,P08,D08,1,1,1
1593,-0.15,1644845944.28125,P08,D08,1,1,1
1594,-0.27,1644845944.296875,P08,D08,1,1,1
1595,-0.46,1644845944.3125,P08,D08,1,1,1
1596,-0.6,1644845944.328125,P08,D08,1,1,1
1597,-0.61,1644845944.34375,P08,D08,1,1,1
1598,-0.44,1644845944.359375,P08,D08,1,1,1
1599,-0.13,1644845944.375,P08,D08,1,1,1
1600,0.22,1644845944.390625,P08,D08,1,1,1
1601,0.46,1644845944.40625,P08,D08,1,1,1
1602,0.54,1644845944.421875,P08,D08,1,1,1
1603,0.42,1644845944.4375,P08,D08,1,1,1
1604,0.19,1644845944.453125,P08,D08,1,1,1
1605,-0.05,1644845944.46875,P08,D08,1,1,1
1606,-0.18,1644845944.484375,P08,D08,1,1,1
1607,-0.14,1644845944.5,P08,D08,1,1,1
1608,0.06,1644845944.515625,P08,D08,1,1,1
1609,0.35,1644845944.53125,P08,D08,1,1,1
1610,0.6,1644845944.546875,P08,D08,1,1,1
1611,0.68,1644845944.5625,P08,D08,1,1,1
1612,0.57,1644845944.578125,P08,D08,1,1,1
1613,0.32,1644845944.59375,P08,D08,1,1,1
1614,0.05,1644845944.609375,P08,D08,1,1,1
1615,-0.15,1644845944.625,P08,D08,1,1,1
1616,-0.23,1644845944.640625,P08,D08,1,1,1
1617,-0.23,1644845944.65625,P08,D08,1,1,1
1618,-0.19,1644845944.671875,P08,D08,1,1,1
1619,-0.14,1644845944.6875,P08,D08,1,1,1
1620,-0.06,1644845944.703125,P08,D08,1,1,1
1621,0.07,1644845944.71875,P08,D08,1,1,1
1622,0.27,1644845944.734375,P08,D08,1,1,1
1623,0.46,1644845944.75,P08,D08,1,1,1
1624,0.57,1644845944.765625,P08,D08,1,1,1
1625,0.55,1644845944.78125,P08,D08,1,1,1
1626,0.44,1644845944.796875,P08,D08,1,1,1
1627,0.29,1644845944.8125,P08,D08,1,1,1
1628,0.18,1644845944.828125,P08,D08,1,1,1
1629,0.15,1644845944.84375,P08,D08,1,1,1
1630,0.16,1644845944.859375,P08,D08,1,1,1
1631,0.19,1644845944.875,P08,D08,1,1,1
1632,0.22,1644845944.890625,P08,D08,1,1,1
1633,0.25,1644845944.90625,P08,D08,1,1,1
1634,0.29,1644845944.921875,P08,D08,1,1,1
1635,0.3,1644845944.9375,P08,D08,1,1,1
1636,0.25,1644845944.953125,P08,D08,1,1,1
1637,0.11,1644845944.96875,P08,D08,1,1,1
1638,-0.09,1644845944.984375,P08,D08,1,1,1
1639,-0.25,1644845945.0,P08,D08,1,1,1
1640,-0.31,1644845945.015625,P08,D08,1,1,1
1641,-0.2,1644845945.03125,P08,D08,1,1,1
1642,0.02,1644845945.046875,P08,D08,1,1,1
1643,0.24,1644845945.0625,P08,D08,1,1,1
1644,0.32,1644845945.078125,P08,D08,1,1,1
1645,0.17,1644845945.09375,P08,D08,1,1,1
1646,-0.17,1644845945.109375,P08,D08,1,1,1
1647,-0.62,1644845945.125,P08,D08,1,1,1
1648,-1.01,1644845945.140625,P08,D08,1,1,1
1649,-1.22,1644845945.15625,P08,D08,1,1,1
1650,-1.17,1644845945.171875,P08,D08,1,1,1
1651,-0.9,1644845945.1875,P08,D08,1,1,1
1652,-0.53,1644845945.203125,P08,D08,1,1,1
1653,-0.2,1644845945.21875,P08,D08,1,1,1
1654,0.01,1644845945.234375,P08,D08,1,1,1
1655,0.07,1644845945.25,P08,D08,1,1,1
1656,0.03,1644845945.265625,P08,D08,1,1,1
1657,-0.03,1644845945.28125,P08,D08,1,1,1
1658,-0.08,1644845945.296875,P08,D08,1,1,1
1659,-0.09,1644845945.3125,P08,D08,1,1,1
1660,-0.07,1644845945.328125,P08,D08,1,1,1
1661,-0.03,1644845945.34375,P08,D08,1,1,1
1662,0.04,1644845945.359375,P08,D08,1,1,1
1663,0.12,1644845945.375,P08,D08,1,1,1
1664,0.2,1644845945.390625,P08,D08,1,1,1
1665,0.25,1644845945.40625,P08,D08,1,1,1
1666,0.23,1644845945.421875,P08,D08,1,1,1
1667,0.15,1644845945.4375,P08,D08,1,1,1
1668,0.06,1644845945.453125,P08,D08,1,1,1
1669,0.0,1644845945.46875,P08,D08,1,1,1
1670,0.05,1644845945.484375,P08,D08,1,1,1
1671,0.22,1644845945.5,P08,D08,1,1,1
1672,0.49,1644845945.515625,P08,D08,1,1,1
1673,0.79,1644845945.53125,P08,D08,1,1,1
1674,1.06,1644845945.546875,P08,D08,1,1,1
1675,1.24,1644845945.5625,P08,D08,1,1,1
1676,1.34,1644845945.578125,P08,D08,1,1,1
1677,1.34,1644845945.59375,P08,D08,1,1,1
1678,1.28,1644845945.609375,P08,D08,1,1,1
1679,1.14,1644845945.625,P08,D08,1,1,1
1680,0.94,1644845945.640625,P08,D08,1,1,1
1681,0.64,1644845945.65625,P08,D08,1,1,1
1682,0.23,1644845945.671875,P08,D08,1,1,1
1683,-0.24,1644845945.6875,P08,D08,1,1,1
1684,-0.69,1644845945.703125,P08,D08,1,1,1
1685,-1.03,1644845945.71875,P08,D08,1,1,1
1686,-1.16,1644845945.734375,P08,D08,1,1,1
1687,-1.08,1644845945.75,P08,D08,1,1,1
1688,-0.84,1644845945.765625,P08,D08,1,1,1
1689,-0.6,1644845945.78125,P08,D08,1,1,1
1690,-0.48,1644845945.796875,P08,D08,1,1,1
1691,-0.53,1644845945.8125,P08,D08,1,1,1
1692,-0.72,1644845945.828125,P08,D08,1,1,1
1693,-0.89,1644845945.84375,P08,D08,1,1,1
1694,-0.9,1644845945.859375,P08,D08,1,1,1
1695,-0.69,1644845945.875,P08,D08,1,1,1
1696,-0.32,1644845945.890625,P08,D08,1,1,1
1697,0.07,1644845945.90625,P08,D08,1,1,1
1698,0.31,1644845945.921875,P08,D08,1,1,1
1699,0.34,1644845945.9375,P08,D08,1,1,1
1700,0.19,1644845945.953125,P08,D08,1,1,1
1701,-0.02,1644845945.96875,P08,D08,1,1,1
1702,-0.18,1644845945.984375,P08,D08,1,1,1
1703,-0.25,1644845946.0,P08,D08,1,1,1
1704,-0.26,1644845946.015625,P08,D08,1,1,1
1705,-0.28,1644845946.03125,P08,D08,1,1,1
1706,-0.32,1644845946.046875,P08,D08,1,1,1
1707,-0.32,1644845946.0625,P08,D08,1,1,1
1708,-0.21,1644845946.078125,P08,D08,1,1,1
1709,0.05,1644845946.09375,P08,D08,1,1,1
1710,0.39,1644845946.109375,P08,D08,1,1,1
1711,0.67,1644845946.125,P08,D08,1,1,1
1712,0.75,1644845946.140625,P08,D08,1,1,1
1713,0.59,1644845946.15625,P08,D08,1,1,1
1714,0.24,1644845946.171875,P08,D08,1,1,1
1715,-0.13,1644845946.1875,P08,D08,1,1,1
1716,-0.37,1644845946.203125,P08,D08,1,1,1
1717,-0.43,1644845946.21875,P08,D08,1,1,1
1718,-0.32,1644845946.234375,P08,D08,1,1,1
1719,-0.15,1644845946.25,P08,D08,1,1,1
1720,0.02,1644845946.265625,P08,D08,1,1,1
1721,0.15,1644845946.28125,P08,D08,1,1,1
1722,0.25,1644845946.296875,P08,D08,1,1,1
1723,0.38,1644845946.3125,P08,D08,1,1,1
1724,0.54,1644845946.328125,P08,D08,1,1,1
1725,0.69,1644845946.34375,P08,D08,1,1,1
1726,0.78,1644845946.359375,P08,D08,1,1,1
1727,0.77,1644845946.375,P08,D08,1,1,1
1728,0.65,1644845946.390625,P08,D08,1,1,1
1729,0.46,1644845946.40625,P08,D08,1,1,1
1730,0.23,1644845946.421875,P08,D08,1,1,1
1731,0.01,1644845946.4375,P08,D08,1,1,1
1732,-0.18,1644845946.453125,P08,D08,1,1,1
1733,-0.3,1644845946.46875,P08,D08,1,1,1
1734,-0.34,1644845946.484375,P08,D08,1,1,1
1735,-0.27,1644845946.5,P08,D08,1,1,1
1736,-0.11,1644845946.515625,P08,D08,1,1,1
1737,0.1,1644845946.53125,P08,D08,1,1,1
1738,0.3,1644845946.546875,P08,D08,1,1,1
1739,0.42,1644845946.5625,P08,D08,1,1,1
1740,0.45,1644845946.578125,P08,D08,1,1,1
1741,0.42,1644845946.59375,P08,D08,1,1,1
1742,0.38,1644845946.609375,P08,D08,1,1,1
1743,0.4,1644845946.625,P08,D08,1,1,1
1744,0.48,1644845946.640625,P08,D08,1,1,1
1745,0.58,1644845946.65625,P08,D08,1,1,1
1746,0.64,1644845946.671875,P08,D08,1,1,1
1747,0.61,1644845946.6875,P08,D08,1,1,1
1748,0.5,1644845946.703125,P08,D08,1,1,1
1749,0.35,1644845946.71875,P08,D08,1,1,1
1750,0.2,1644845946.734375,P08,D08,1,1,1
1751,0.08,1644845946.75,P08,D08,1,1,1
1752,-0.03,1644845946.765625,P08,D08,1,1,1
1753,-0.18,1644845946.78125,P08,D08,1,1,1
1754,-0.37,1644845946.796875,P08,D08,1,1,1
1755,-0.55,1644845946.8125,P08,D08,1,1,1
1756,-0.62,1644845946.828125,P08,D08,1,1,1
1757,-0.51,1644845946.84375,P08,D08,1,1,1
1758,-0.24,1644845946.859375,P08,D08,1,1,1
1759,0.07,1644845946.875,P08,D08,1,1,1
1760,0.24,1644845946.890625,P08,D08,1,1,1
1761,0.13,1644845946.90625,P08,D08,1,1,1
1762,-0.25,1644845946.921875,P08,D08,1,1,1
1763,-0.76,1644845946.9375,P08,D08,1,1,1
1764,-1.19,1644845946.953125,P08,D08,1,1,1
1765,-1.39,1644845946.96875,P08,D08,1,1,1
1766,-1.34,1644845946.984375,P08,D08,1,1,1
1767,-1.11,1644845947.0,P08,D08,1,1,1
1768,-0.83,1644845947.015625,P08,D08,1,1,1
1769,-0.6,1644845947.03125,P08,D08,1,1,1
1770,-0.42,1644845947.046875,P08,D08,1,1,1
1771,-0.25,1644845947.0625,P08,D08,1,1,1
1772,-0.06,1644845947.078125,P08,D08,1,1,1
1773,0.09,1644845947.09375,P08,D08,1,1,1
1774,0.11,1644845947.109375,P08,D08,1,1,1
1775,-0.06,1644845947.125,P08,D08,1,1,1
1776,-0.42,1644845947.140625,P08,D08,1,1,1
1777,-0.88,1644845947.15625,P08,D08,1,1,1
1778,-1.24,1644845947.171875,P08,D08,1,1,1
1779,-1.35,1644845947.1875,P08,D08,1,1,1
1780,-1.14,1644845947.203125,P08,D08,1,1,1
1781,-0.68,1644845947.21875,P08,D08,1,1,1
1782,-0.1,1644845947.234375,P08,D08,1,1,1
1783,0.39,1644845947.25,P08,D08,1,1,1
1784,0.68,1644845947.265625,P08,D08,1,1,1
1785,0.7,1644845947.28125,P08,D08,1,1,1
1786,0.52,1644845947.296875,P08,D08,1,1,1
1787,0.23,1644845947.3125,P08,D08,1,1,1
1788,-0.06,1644845947.328125,P08,D08,1,1,1
1789,-0.3,1644845947.34375,P08,D08,1,1,1
1790,-0.45,1644845947.359375,P08,D08,1,1,1
1791,-0.52,1644845947.375,P08,D08,1,1,1
1792,-0.51,1644845947.390625,P08,D08,1,1,1
1793,-0.4,1644845947.40625,P08,D08,1,1,1
1794,-0.2,1644845947.421875,P08,D08,1,1,1
1795,0.06,1644845947.4375,P08,D08,1,1,1
1796,0.36,1644845947.453125,P08,D08,1,1,1
1797,0.67,1644845947.46875,P08,D08,1,1,1
1798,0.98,1644845947.484375,P08,D08,1,1,1
1799,1.25,1644845947.5,P08,D08,1,1,1
1800,1.47,1644845947.515625,P08,D08,1,1,1
1801,1.57,1644845947.53125,P08,D08,1,1,1
1802,1.52,1644845947.546875,P08,D08,1,1,1
1803,1.32,1644845947.5625,P08,D08,1,1,1
1804,0.99,1644845947.578125,P08,D08,1,1,1
1805,0.6,1644845947.59375,P08,D08,1,1,1
1806,0.22,1644845947.609375,P08,D08,1,1,1
1807,-0.11,1644845947.625,P08,D08,1,1,1
1808,-0.38,1644845947.640625,P08,D08,1,1,1
1809,-0.58,1644845947.65625,P08,D08,1,1,1
1810,-0.72,1644845947.671875,P08,D08,1,1,1
1811,-0.77,1644845947.6875,P08,D08,1,1,1
1812,-0.73,1644845947.703125,P08,D08,1,1,1
1813,-0.57,1644845947.71875,P08,D08,1,1,1
1814,-0.34,1644845947.734375,P08,D08,1,1,1
1815,-0.12,1644845947.75,P08,D08,1,1,1
1816,0.01,1644845947.765625,P08,D08,1,1,1
1817,0.0,1644845947.78125,P08,D08,1,1,1
1818,-0.14,1644845947.796875,P08,D08,1,1,1
1819,-0.33,1644845947.8125,P08,D08,1,1,1
1820,-0.48,1644845947.828125,P08,D08,1,1,1
1821,-0.5,1644845947.84375,P08,D08,1,1,1
1822,-0.39,1644845947.859375,P08,D08,1,1,1
1823,-0.22,1644845947.875,P08,D08,1,1,1
1824,-0.08,1644845947.890625,P08,D08,1,1,1
1825,-0.05,1644845947.90625,P08,D08,1,1,1
1826,-0.15,1644845947.921875,P08,D08,1,1,1
1827,-0.29,1644845947.9375,P08,D08,1,1,1
1828,-0.36,1644845947.953125,P08,D08,1,1,1
1829,-0.28,1644845947.96875,P08,D08,1,1,1
1830,-0.02,1644845947.984375,P08,D08,1,1,1
1831,0.32,1644845948.0,P08,D08,1,1,1
1832,0.63,1644845948.015625,P08,D08,1,1,1
1833,0.82,1644845948.03125,P08,D08,1,1,1
1834,0.84,1644845948.046875,P08,D08,1,1,1
1835,0.73,1644845948.0625,P08,D08,1,1,1
1836,0.57,1644845948.078125,P08,D08,1,1,1
1837,0.43,1644845948.09375,P08,D08,1,1,1
1838,0.38,1644845948.109375,P08,D08,1,1,1
1839,0.43,1644845948.125,P08,D08,1,1,1
1840,0.54,1644845948.140625,P08,D08,1,1,1
1841,0.69,1644845948.15625,P08,D08,1,1,1
1842,0.83,1644845948.171875,P08,D08,1,1,1
1843,0.89,1644845948.1875,P08,D08,1,1,1
1844,0.84,1644845948.203125,P08,D08,1,1,1
1845,0.69,1644845948.21875,P08,D08,1,1,1
1846,0.46,1644845948.234375,P08,D08,1,1,1
1847,0.22,1644845948.25,P08,D08,1,1,1
1848,0.02,1644845948.265625,P08,D08,1,1,1
1849,-0.13,1644845948.28125,P08,D08,1,1,1
1850,-0.24,1644845948.296875,P08,D08,1,1,1
1851,-0.35,1644845948.3125,P08,D08,1,1,1
1852,-0.48,1644845948.328125,P08,D08,1,1,1
1853,-0.61,1644845948.34375,P08,D08,1,1,1
1854,-0.72,1644845948.359375,P08,D08,1,1,1
1855,-0.74,1644845948.375,P08,D08,1,1,1
1856,-0.65,1644845948.390625,P08,D08,1,1,1
1857,-0.45,1644845948.40625,P08,D08,1,1,1
1858,-0.24,1644845948.421875,P08,D08,1,1,1
1859,-0.1,1644845948.4375,P08,D08,1,1,1
1860,-0.09,1644845948.453125,P08,D08,1,1,1
1861,-0.22,1644845948.46875,P08,D08,1,1,1
1862,-0.41,1644845948.484375,P08,D08,1,1,1
1863,-0.57,1644845948.5,P08,D08,1,1,1
1864,-0.62,1644845948.515625,P08,D08,1,1,1
1865,-0.54,1644845948.53125,P08,D08,1,1,1
1866,-0.38,1644845948.546875,P08,D08,1,1,1
1867,-0.22,1644845948.5625,P08,D08,1,1,1
1868,-0.12,1644845948.578125,P08,D08,1,1,1
1869,-0.11,1644845948.59375,P08,D08,1,1,1
1870,-0.17,1644845948.609375,P08,D08,1,1,1
1871,-0.24,1644845948.625,P08,D08,1,1,1
1872,-0.28,1644845948.640625,P08,D08,1,1,1
1873,-0.26,1644845948.65625,P08,D08,1,1,1
1874,-0.19,1644845948.671875,P08,D08,1,1,1
1875,-0.08,1644845948.6875,P08,D08,1,1,1
1876,0.06,1644845948.703125,P08,D08,1,1,1
1877,0.21,1644845948.71875,P08,D08,1,1,1
1878,0.32,1644845948.734375,P08,D08,1,1,1
1879,0.36,1644845948.75,P08,D08,1,1,1
1880,0.31,1644845948.765625,P08,D08,1,1,1
1881,0.17,1644845948.78125,P08,D08,1,1,1
1882,-0.02,1644845948.796875,P08,D08,1,1,1
1883,-0.2,1644845948.8125,P08,D08,1,1,1
1884,-0.35,1644845948.828125,P08,D08,1,1,1
1885,-0.41,1644845948.84375,P08,D08,1,1,1
1886,-0.37,1644845948.859375,P08,D08,1,1,1
1887,-0.21,1644845948.875,P08,D08,1,1,1
1888,0.06,1644845948.890625,P08,D08,1,1,1
1889,0.41,1644845948.90625,P08,D08,1,1,1
1890,0.75,1644845948.921875,P08,D08,1,1,1
1891,1.0,1644845948.9375,P08,D08,1,1,1
1892,1.11,1644845948.953125,P08,D08,1,1,1
1893,1.07,1644845948.96875,P08,D08,1,1,1
1894,0.91,1644845948.984375,P08,D08,1,1,1
1895,0.71,1644845949.0,P08,D08,1,1,1
1896,0.51,1644845949.015625,P08,D08,1,1,1
1897,0.3,1644845949.03125,P08,D08,1,1,1
1898,0.09,1644845949.046875,P08,D08,1,1,1
1899,-0.13,1644845949.0625,P08,D08,1,1,1
1900,-0.32,1644845949.078125,P08,D08,1,1,1
1901,-0.4,1644845949.09375,P08,D08,1,1,1
1902,-0.34,1644845949.109375,P08,D08,1,1,1
1903,-0.15,1644845949.125,P08,D08,1,1,1
1904,0.04,1644845949.140625,P08,D08,1,1,1
1905,0.12,1644845949.15625,P08,D08,1,1,1
1906,-0.0,1644845949.171875,P08,D08,1,1,1
1907,-0.3,1644845949.1875,P08,D08,1,1,1
1908,-0.65,1644845949.203125,P08,D08,1,1,1
1909,-0.93,1644845949.21875,P08,D08,1,1,1
1910,-1.03,1644845949.234375,P08,D08,1,1,1
1911,-0.96,1644845949.25,P08,D08,1,1,1
1912,-0.79,1644845949.265625,P08,D08,1,1,1
1913,-0.61,1644845949.28125,P08,D08,1,1,1
1914,-0.48,1644845949.296875,P08,D08,1,1,1
1915,-0.39,1644845949.3125,P08,D08,1,1,1
1916,-0.26,1644845949.328125,P08,D08,1,1,1
1917,-0.05,1644845949.34375,P08,D08,1,1,1
1918,0.28,1644845949.359375,P08,D08,1,1,1
1919,0.67,1644845949.375,P08,D08,1,1,1
1920,1.03,1644845949.390625,P08,D08,1,1,1
1921,1.24,1644845949.40625,P08,D08,1,1,1
1922,1.25,1644845949.421875,P08,D08,1,1,1
1923,1.07,1644845949.4375,P08,D08,1,1,1
1924,0.81,1644845949.453125,P08,D08,1,1,1
1925,0.59,1644845949.46875,P08,D08,1,1,1
1926,0.5,1644845949.484375,P08,D08,1,1,1
1927,0.61,1644845949.5,P08,D08,1,1,1
1928,0.85,1644845949.515625,P08,D08,1,1,1
1929,1.12,1644845949.53125,P08,D08,1,1,1
1930,1.32,1644845949.546875,P08,D08,1,1,1
1931,1.35,1644845949.5625,P08,D08,1,1,1
1932,1.17,1644845949.578125,P08,D08,1,1,1
1933,0.82,1644845949.59375,P08,D08,1,1,1
1934,0.36,1644845949.609375,P08,D08,1,1,1
1935,-0.11,1644845949.625,P08,D08,1,1,1
1936,-0.47,1644845949.640625,P08,D08,1,1,1
1937,-0.64,1644845949.65625,P08,D08,1,1,1
1938,-0.59,1644845949.671875,P08,D08,1,1,1
1939,-0.32,1644845949.6875,P08,D08,1,1,1
1940,0.08,1644845949.703125,P08,D08,1,1,1
1941,0.51,1644845949.71875,P08,D08,1,1,1
1942,0.86,1644845949.734375,P08,D08,1,1,1
1943,1.03,1644845949.75,P08,D08,1,1,1
1944,0.99,1644845949.765625,P08,D08,1,1,1
1945,0.73,1644845949.78125,P08,D08,1,1,1
1946,0.32,1644845949.796875,P08,D08,1,1,1
1947,-0.16,1644845949.8125,P08,D08,1,1,1
1948,-0.59,1644845949.828125,P08,D08,1,1,1
1949,-0.89,1644845949.84375,P08,D08,1,1,1
1950,-1.01,1644845949.859375,P08,D08,1,1,1
1951,-0.97,1644845949.875,P08,D08,1,1,1
1952,-0.81,1644845949.890625,P08,D08,1,1,1
1953,-0.63,1644845949.90625,P08,D08,1,1,1
1954,-0.5,1644845949.921875,P08,D08,1,1,1
1955,-0.45,1644845949.9375,P08,D08,1,1,1
1956,-0.49,1644845949.953125,P08,D08,1,1,1
1957,-0.63,1644845949.96875,P08,D08,1,1,1
1958,-0.87,1644845949.984375,P08,D08,1,1,1
1959,-1.18,1644845950.0,P08,D08,1,1,1
1960,-1.52,1644845950.015625,P08,D08,1,1,1
1961,-1.81,1644845950.03125,P08,D08,1,1,1
1962,-1.91,1644845950.046875,P08,D08,1,1,1
1963,-1.73,1644845950.0625,P08,D08,1,1,1
1964,-1.25,1644845950.078125,P08,D08,1,1,1
1965,-0.59,1644845950.09375,P08,D08,1,1,1
1966,0.06,1644845950.109375,P08,D08,1,1,1
1967,0.51,1644845950.125,P08,D08,1,1,1
1968,0.65,1644845950.140625,P08,D08,1,1,1
1969,0.52,1644845950.15625,P08,D08,1,1,1
1970,0.27,1644845950.171875,P08,D08,1,1,1
1971,0.03,1644845950.1875,P08,D08,1,1,1
1972,-0.09,1644845950.203125,P08,D08,1,1,1
1973,-0.11,1644845950.21875,P08,D08,1,1,1
1974,-0.08,1644845950.234375,P08,D08,1,1,1
1975,-0.05,1644845950.25,P08,D08,1,1,1
1976,-0.02,1644845950.265625,P08,D08,1,1,1
1977,0.05,1644845950.28125,P08,D08,1,1,1
1978,0.23,1644845950.296875,P08,D08,1,1,1
1979,0.5,1644845950.3125,P08,D08,1,1,1
1980,0.82,1644845950.328125,P08,D08,1,1,1
1981,1.09,1644845950.34375,P08,D08,1,1,1
1982,1.21,1644845950.359375,P08,D08,1,1,1
1983,1.16,1644845950.375,P08,D08,1,1,1
1984,0.98,1644845950.390625,P08,D08,1,1,1
1985,0.76,1644845950.40625,P08,D08,1,1,1
1986,0.56,1644845950.421875,P08,D08,1,1,1
1987,0.42,1644845950.4375,P08,D08,1,1,1
1988,0.34,1644845950.453125,P08,D08,1,1,1
1989,0.31,1644845950.46875,P08,D08,1,1,1
1990,0.31,1644845950.484375,P08,D08,1,1,1
1991,0.31,1644845950.5,P08,D08,1,1,1
1992,0.29,1644845950.515625,P08,D08,1,1,1
1993,0.22,1644845950.53125,P08,D08,1,1,1
1994,0.08,1644845950.546875,P08,D08,1,1,1
1995,-0.12,1644845950.5625,P08,D08,1,1,1
1996,-0.34,1644845950.578125,P08,D08,1,1,1
1997,-0.54,1644845950.59375,P08,D08,1,1,1
1998,-0.66,1644845950.609375,P08,D08,1,1,1
1999,-0.67,1644845950.625,P08,D08,1,1,1
2000,-0.6,1644845950.640625,P08,D08,1,1,1
2001,-0.49,1644845950.65625,P08,D08,1,1,1
2002,-0.41,1644845950.671875,P08,D08,1,1,1
2003,-0.38,1644845950.6875,P08,D08,1,1,1
2004,-0.41,1644845950.703125,P08,D08,1,1,1
2005,-0.46,1644845950.71875,P08,D08,1,1,1
2006,-0.51,1644845950.734375,P08,D08,1,1,1
2007,-0.55,1644845950.75,P08,D08,1,1,1
2008,-0.58,1644845950.765625,P08,D08,1,1,1
2009,-0.61,1644845950.78125,P08,D08,1,1,1
2010,-0.61,1644845950.796875,P08,D08,1,1,1
2011,-0.54,1644845950.8125,P08,D08,1,1,1
2012,-0.37,1644845950.828125,P08,D08,1,1,1
2013,-0.1,1644845950.84375,P08,D08,1,1,1
2014,0.19,1644845950.859375,P08,D08,1,1,1
2015,0.38,1644845950.875,P08,D08,1,1,1
2016,0.39,1644845950.890625,P08,D08,1,1,1
2017,0.21,1644845950.90625,P08,D08,1,1,1
2018,-0.07,1644845950.921875,P08,D08,1,1,1
2019,-0.3,1644845950.9375,P08,D08,1,1,1
2020,-0.38,1644845950.953125,P08,D08,1,1,1
2021,-0.29,1644845950.96875,P08,D08,1,1,1
2022,-0.08,1644845950.984375,P08,D08,1,1,1
2023,0.1,1644845951.0,P08,D08,1,1,1
2024,0.18,1644845951.015625,P08,D08,1,1,1
2025,0.13,1644845951.03125,P08,D08,1,1,1
2026,0.0,1644845951.046875,P08,D08,1,1,1
2027,-0.15,1644845951.0625,P08,D08,1,1,1
2028,-0.26,1644845951.078125,P08,D08,1,1,1
2029,-0.35,1644845951.09375,P08,D08,1,1,1
2030,-0.42,1644845951.109375,P08,D08,1,1,1
2031,-0.49,1644845951.125,P08,D08,1,1,1
2032,-0.51,1644845951.140625,P08,D08,1,1,1
2033,-0.42,1644845951.15625,P08,D08,1,1,1
2034,-0.15,1644845951.171875,P08,D08,1,1,1
2035,0.29,1644845951.1875,P08,D08,1,1,1
2036,0.86,1644845951.203125,P08,D08,1,1,1
2037,1.43,1644845951.21875,P08,D08,1,1,1
2038,1.86,1644845951.234375,P08,D08,1,1,1
2039,2.04,1644845951.25,P08,D08,1,1,1
2040,1.91,1644845951.265625,P08,D08,1,1,1
2041,1.52,1644845951.28125,P08,D08,1,1,1
2042,0.95,1644845951.296875,P08,D08,1,1,1
2043,0.38,1644845951.3125,P08,D08,1,1,1
2044,-0.07,1644845951.328125,P08,D08,1,1,1
2045,-0.28,1644845951.34375,P08,D08,1,1,1
2046,-0.27,1644845951.359375,P08,D08,1,1,1
2047,-0.1,1644845951.375,P08,D08,1,1,1
2048,0.11,1644845951.390625,P08,D08,1,1,1
2049,0.25,1644845951.40625,P08,D08,1,1,1
2050,0.25,1644845951.421875,P08,D08,1,1,1
2051,0.12,1644845951.4375,P08,D08,1,1,1
2052,-0.09,1644845951.453125,P08,D08,1,1,1
2053,-0.32,1644845951.46875,P08,D08,1,1,1
2054,-0.53,1644845951.484375,P08,D08,1,1,1
2055,-0.72,1644845951.5,P08,D08,1,1,1
2056,-0.89,1644845951.515625,P08,D08,1,1,1
2057,-1.01,1644845951.53125,P08,D08,1,1,1
2058,-1.08,1644845951.546875,P08,D08,1,1,1
2059,-1.06,1644845951.5625,P08,D08,1,1,1
2060,-0.93,1644845951.578125,P08,D08,1,1,1
2061,-0.7,1644845951.59375,P08,D08,1,1,1
2062,-0.43,1644845951.609375,P08,D08,1,1,1
2063,-0.16,1644845951.625,P08,D08,1,1,1
2064,0.07,1644845951.640625,P08,D08,1,1,1
2065,0.23,1644845951.65625,P08,D08,1,1,1
2066,0.31,1644845951.671875,P08,D08,1,1,1
2067,0.34,1644845951.6875,P08,D08,1,1,1
2068,0.32,1644845951.703125,P08,D08,1,1,1
2069,0.25,1644845951.71875,P08,D08,1,1,1
2070,0.12,1644845951.734375,P08,D08,1,1,1
2071,-0.06,1644845951.75,P08,D08,1,1,1
2072,-0.28,1644845951.765625,P08,D08,1,1,1
2073,-0.49,1644845951.78125,P08,D08,1,1,1
2074,-0.65,1644845951.796875,P08,D08,1,1,1
2075,-0.7,1644845951.8125,P08,D08,1,1,1
2076,-0.64,1644845951.828125,P08,D08,1,1,1
2077,-0.5,1644845951.84375,P08,D08,1,1,1
2078,-0.33,1644845951.859375,P08,D08,1,1,1
2079,-0.18,1644845951.875,P08,D08,1,1,1
2080,-0.08,1644845951.890625,P08,D08,1,1,1
2081,-0.02,1644845951.90625,P08,D08,1,1,1
2082,0.04,1644845951.921875,P08,D08,1,1,1
2083,0.12,1644845951.9375,P08,D08,1,1,1
2084,0.22,1644845951.953125,P08,D08,1,1,1
2085,0.33,1644845951.96875,P08,D08,1,1,1
2086,0.38,1644845951.984375,P08,D08,1,1,1
2087,0.33,1644845952.0,P08,D08,1,1,1
2088,0.2,1644845952.015625,P08,D08,1,1,1
2089,0.03,1644845952.03125,P08,D08,1,1,1
2090,-0.08,1644845952.046875,P08,D08,1,1,1
2091,-0.07,1644845952.0625,P08,D08,1,1,1
2092,0.05,1644845952.078125,P08,D08,1,1,1
2093,0.23,1644845952.09375,P08,D08,1,1,1
2094,0.35,1644845952.109375,P08,D08,1,1,1
2095,0.32,1644845952.125,P08,D08,1,1,1
2096,0.14,1644845952.140625,P08,D08,1,1,1
2097,-0.13,1644845952.15625,P08,D08,1,1,1
2098,-0.4,1644845952.171875,P08,D08,1,1,1
2099,-0.54,1644845952.1875,P08,D08,1,1,1
2100,-0.51,1644845952.203125,P08,D08,1,1,1
2101,-0.29,1644845952.21875,P08,D08,1,1,1
2102,0.06,1644845952.234375,P08,D08,1,1,1
2103,0.43,1644845952.25,P08,D08,1,1,1
2104,0.71,1644845952.265625,P08,D08,1,1,1
2105,0.82,1644845952.28125,P08,D08,1,1,1
2106,0.73,1644845952.296875,P08,D08,1,1,1
2107,0.5,1644845952.3125,P08,D08,1,1,1
2108,0.21,1644845952.328125,P08,D08,1,1,1
2109,-0.05,1644845952.34375,P08,D08,1,1,1
2110,-0.2,1644845952.359375,P08,D08,1,1,1
2111,-0.21,1644845952.375,P08,D08,1,1,1
2112,-0.1,1644845952.390625,P08,D08,1,1,1
2113,0.07,1644845952.40625,P08,D08,1,1,1
2114,0.24,1644845952.421875,P08,D08,1,1,1
2115,0.35,1644845952.4375,P08,D08,1,1,1
2116,0.35,1644845952.453125,P08,D08,1,1,1
2117,0.28,1644845952.46875,P08,D08,1,1,1
2118,0.17,1644845952.484375,P08,D08,1,1,1
2119,0.08,1644845952.5,P08,D08,1,1,1
2120,0.01,1644845952.515625,P08,D08,1,1,1
2121,-0.07,1644845952.53125,P08,D08,1,1,1
2122,-0.23,1644845952.546875,P08,D08,1,1,1
2123,-0.51,1644845952.5625,P08,D08,1,1,1
2124,-0.86,1644845952.578125,P08,D08,1,1,1
2125,-1.21,1644845952.59375,P08,D08,1,1,1
2126,-1.44,1644845952.609375,P08,D08,1,1,1
2127,-1.47,1644845952.625,P08,D08,1,1,1
2128,-1.32,1644845952.640625,P08,D08,1,1,1
2129,-1.04,1644845952.65625,P08,D08,1,1,1
2130,-0.73,1644845952.671875,P08,D08,1,1,1
2131,-0.41,1644845952.6875,P08,D08,1,1,1
2132,-0.11,1644845952.703125,P08,D08,1,1,1
2133,0.18,1644845952.71875,P08,D08,1,1,1
2134,0.44,1644845952.734375,P08,D08,1,1,1
2135,0.61,1644845952.75,P08,D08,1,1,1
2136,0.66,1644845952.765625,P08,D08,1,1,1
2137,0.57,1644845952.78125,P08,D08,1,1,1
2138,0.41,1644845952.796875,P08,D08,1,1,1
2139,0.28,1644845952.8125,P08,D08,1,1,1
2140,0.27,1644845952.828125,P08,D08,1,1,1
2141,0.39,1644845952.84375,P08,D08,1,1,1
2142,0.58,1644845952.859375,P08,D08,1,1,1
2143,0.73,1644845952.875,P08,D08,1,1,1
2144,0.76,1644845952.890625,P08,D08,1,1,1
2145,0.66,1644845952.90625,P08,D08,1,1,1
2146,0.5,1644845952.921875,P08,D08,1,1,1
2147,0.38,1644845952.9375,P08,D08,1,1,1
2148,0.39,1644845952.953125,P08,D08,1,1,1
2149,0.51,1644845952.96875,P08,D08,1,1,1
2150,0.65,1644845952.984375,P08,D08,1,1,1
2151,0.68,1644845953.0,P08,D08,1,1,1
2152,0.53,1644845953.015625,P08,D08,1,1,1
2153,0.23,1644845953.03125,P08,D08,1,1,1
2154,-0.1,1644845953.046875,P08,D08,1,1,1
2155,-0.33,1644845953.0625,P08,D08,1,1,1
2156,-0.36,1644845953.078125,P08,D08,1,1,1
2157,-0.19,1644845953.09375,P08,D08,1,1,1
2158,0.09,1644845953.109375,P08,D08,1,1,1
2159,0.33,1644845953.125,P08,D08,1,1,1
2160,0.42,1644845953.140625,P08,D08,1,1,1
2161,0.3,1644845953.15625,P08,D08,1,1,1
2162,0.04,1644845953.171875,P08,D08,1,1,1
2163,-0.28,1644845953.1875,P08,D08,1,1,1
2164,-0.52,1644845953.203125,P08,D08,1,1,1
2165,-0.65,1644845953.21875,P08,D08,1,1,1
2166,-0.68,1644845953.234375,P08,D08,1,1,1
2167,-0.71,1644845953.25,P08,D08,1,1,1
2168,-0.79,1644845953.265625,P08,D08,1,1,1
2169,-0.97,1644845953.28125,P08,D08,1,1,1
2170,-1.16,1644845953.296875,P08,D08,1,1,1
2171,-1.24,1644845953.3125,P08,D08,1,1,1
2172,-1.13,1644845953.328125,P08,D08,1,1,1
2173,-0.81,1644845953.34375,P08,D08,1,1,1
2174,-0.38,1644845953.359375,P08,D08,1,1,1
2175,0.03,1644845953.375,P08,D08,1,1,1
2176,0.26,1644845953.390625,P08,D08,1,1,1
2177,0.28,1644845953.40625,P08,D08,1,1,1
2178,0.14,1644845953.421875,P08,D08,1,1,1
2179,-0.05,1644845953.4375,P08,D08,1,1,1
2180,-0.19,1644845953.453125,P08,D08,1,1,1
2181,-0.25,1644845953.46875,P08,D08,1,1,1
2182,-0.24,1644845953.484375,P08,D08,1,1,1
2183,-0.22,1644845953.5,P08,D08,1,1,1
2184,-0.2,1644845953.515625,P08,D08,1,1,1
2185,-0.18,1644845953.53125,P08,D08,1,1,1
2186,-0.12,1644845953.546875,P08,D08,1,1,1
2187,-0.02,1644845953.5625,P08,D08,1,1,1
2188,0.15,1644845953.578125,P08,D08,1,1,1
2189,0.38,1644845953.59375,P08,D08,1,1,1
2190,0.65,1644845953.609375,P08,D08,1,1,1
2191,0.92,1644845953.625,P08,D08,1,1,1
2192,1.16,1644845953.640625,P08,D08,1,1,1
2193,1.35,1644845953.65625,P08,D08,1,1,1
2194,1.48,1644845953.671875,P08,D08,1,1,1
2195,1.54,1644845953.6875,P08,D08,1,1,1
2196,1.55,1644845953.703125,P08,D08,1,1,1
2197,1.5,1644845953.71875,P08,D08,1,1,1
2198,1.38,1644845953.734375,P08,D08,1,1,1
2199,1.17,1644845953.75,P08,D08,1,1,1
2200,0.86,1644845953.765625,P08,D08,1,1,1
2201,0.49,1644845953.78125,P08,D08,1,1,1
2202,0.13,1644845953.796875,P08,D08,1,1,1
2203,-0.17,1644845953.8125,P08,D08,1,1,1
2204,-0.36,1644845953.828125,P08,D08,1,1,1
2205,-0.46,1644845953.84375,P08,D08,1,1,1
2206,-0.54,1644845953.859375,P08,D08,1,1,1
2207,-0.67,1644845953.875,P08,D08,1,1,1
2208,-0.89,1644845953.890625,P08,D08,1,1,1
2209,-1.18,1644845953.90625,P08,D08,1,1,1
2210,-1.47,1644845953.921875,P08,D08,1,1,1
2211,-1.67,1644845953.9375,P08,D08,1,1,1
2212,-1.73,1644845953.953125,P08,D08,1,1,1
2213,-1.63,1644845953.96875,P08,D08,1,1,1
2214,-1.39,1644845953.984375,P08,D08,1,1,1
2215,-1.08,1644845954.0,P08,D08,1,1,1
2216,-0.76,1644845954.015625,P08,D08,1,1,1
2217,-0.47,1644845954.03125,P08,D08,1,1,1
2218,-0.25,1644845954.046875,P08,D08,1,1,1
2219,-0.09,1644845954.0625,P08,D08,1,1,1
2220,0.02,1644845954.078125,P08,D08,1,1,1
2221,0.08,1644845954.09375,P08,D08,1,1,1
2222,0.09,1644845954.109375,P08,D08,1,1,1
2223,0.05,1644845954.125,P08,D08,1,1,1
2224,-0.02,1644845954.140625,P08,D08,1,1,1
2225,-0.07,1644845954.15625,P08,D08,1,1,1
2226,-0.07,1644845954.171875,P08,D08,1,1,1
2227,0.0,1644845954.1875,P08,D08,1,1,1
2228,0.12,1644845954.203125,P08,D08,1,1,1
2229,0.26,1644845954.21875,P08,D08,1,1,1
2230,0.36,1644845954.234375,P08,D08,1,1,1
2231,0.41,1644845954.25,P08,D08,1,1,1
2232,0.41,1644845954.265625,P08,D08,1,1,1
2233,0.38,1644845954.28125,P08,D08,1,1,1
2234,0.32,1644845954.296875,P08,D08,1,1,1
2235,0.29,1644845954.3125,P08,D08,1,1,1
2236,0.3,1644845954.328125,P08,D08,1,1,1
2237,0.39,1644845954.34375,P08,D08,1,1,1
2238,0.55,1644845954.359375,P08,D08,1,1,1
2239,0.7,1644845954.375,P08,D08,1,1,1
2240,0.79,1644845954.390625,P08,D08,1,1,1
2241,0.76,1644845954.40625,P08,D08,1,1,1
2242,0.6,1644845954.421875,P08,D08,1,1,1
2243,0.37,1644845954.4375,P08,D08,1,1,1
2244,0.18,1644845954.453125,P08,D08,1,1,1
2245,0.08,1644845954.46875,P08,D08,1,1,1
2246,0.11,1644845954.484375,P08,D08,1,1,1
2247,0.26,1644845954.5,P08,D08,1,1,1
2248,0.47,1644845954.515625,P08,D08,1,1,1
2249,0.66,1644845954.53125,P08,D08,1,1,1
2250,0.74,1644845954.546875,P08,D08,1,1,1
2251,0.66,1644845954.5625,P08,D08,1,1,1
2252,0.42,1644845954.578125,P08,D08,1,1,1
2253,0.1,1644845954.59375,P08,D08,1,1,1
2254,-0.16,1644845954.609375,P08,D08,1,1,1
2255,-0.22,1644845954.625,P08,D08,1,1,1
2256,-0.01,1644845954.640625,P08,D08,1,1,1
2257,0.44,1644845954.65625,P08,D08,1,1,1
2258,0.97,1644845954.671875,P08,D08,1,1,1
2259,1.41,1644845954.6875,P08,D08,1,1,1
2260,1.6,1644845954.703125,P08,D08,1,1,1
2261,1.51,1644845954.71875,P08,D08,1,1,1
2262,1.2,1644845954.734375,P08,D08,1,1,1
2263,0.82,1644845954.75,P08,D08,1,1,1
2264,0.48,1644845954.765625,P08,D08,1,1,1
2265,0.26,1644845954.78125,P08,D08,1,1,1
2266,0.17,1644845954.796875,P08,D08,1,1,1
2267,0.13,1644845954.8125,P08,D08,1,1,1
2268,0.05,1644845954.828125,P08,D08,1,1,1
2269,-0.13,1644845954.84375,P08,D08,1,1,1
2270,-0.42,1644845954.859375,P08,D08,1,1,1
2271,-0.76,1644845954.875,P08,D08,1,1,1
2272,-1.04,1644845954.890625,P08,D08,1,1,1
2273,-1.2,1644845954.90625,P08,D08,1,1,1
2274,-1.2,1644845954.921875,P08,D08,1,1,1
2275,-1.06,1644845954.9375,P08,D08,1,1,1
2276,-0.86,1644845954.953125,P08,D08,1,1,1
2277,-0.65,1644845954.96875,P08,D08,1,1,1
2278,-0.46,1644845954.984375,P08,D08,1,1,1
2279,-0.31,1644845955.0,P08,D08,1,1,1
2280,-0.2,1644845955.015625,P08,D08,1,1,1
2281,-0.17,1644845955.03125,P08,D08,1,1,1
2282,-0.26,1644845955.046875,P08,D08,1,1,1
2283,-0.52,1644845955.0625,P08,D08,1,1,1
2284,-0.92,1644845955.078125,P08,D08,1,1,1
2285,-1.38,1644845955.09375,P08,D08,1,1,1
2286,-1.77,1644845955.109375,P08,D08,1,1,1
2287,-1.99,1644845955.125,P08,D08,1,1,1
2288,-1.99,1644845955.140625,P08,D08,1,1,1
2289,-1.79,1644845955.15625,P08,D08,1,1,1
2290,-1.47,1644845955.171875,P08,D08,1,1,1
2291,-1.11,1644845955.1875,P08,D08,1,1,1
2292,-0.77,1644845955.203125,P08,D08,1,1,1
2293,-0.47,1644845955.21875,P08,D08,1,1,1
2294,-0.21,1644845955.234375,P08,D08,1,1,1
2295,-0.0,1644845955.25,P08,D08,1,1,1
2296,0.14,1644845955.265625,P08,D08,1,1,1
2297,0.2,1644845955.28125,P08,D08,1,1,1
2298,0.21,1644845955.296875,P08,D08,1,1,1
2299,0.2,1644845955.3125,P08,D08,1,1,1
2300,0.21,1644845955.328125,P08,D08,1,1,1
2301,0.27,1644845955.34375,P08,D08,1,1,1
2302,0.35,1644845955.359375,P08,D08,1,1,1
2303,0.38,1644845955.375,P08,D08,1,1,1
2304,0.33,1644845955.390625,P08,D08,1,1,1
2305,0.21,1644845955.40625,P08,D08,1,1,1
2306,0.09,1644845955.421875,P08,D08,1,1,1
2307,0.04,1644845955.4375,P08,D08,1,1,1
2308,0.14,1644845955.453125,P08,D08,1,1,1
2309,0.36,1644845955.46875,P08,D08,1,1,1
2310,0.62,1644845955.484375,P08,D08,1,1,1
2311,0.8,1644845955.5,P08,D08,1,1,1
2312,0.8,1644845955.515625,P08,D08,1,1,1
2313,0.65,1644845955.53125,P08,D08,1,1,1
2314,0.45,1644845955.546875,P08,D08,1,1,1
2315,0.31,1644845955.5625,P08,D08,1,1,1
2316,0.28,1644845955.578125,P08,D08,1,1,1
2317,0.33,1644845955.59375,P08,D08,1,1,1
2318,0.36,1644845955.609375,P08,D08,1,1,1
2319,0.29,1644845955.625,P08,D08,1,1,1
2320,0.13,1644845955.640625,P08,D08,1,1,1
2321,-0.07,1644845955.65625,P08,D08,1,1,1
2322,-0.23,1644845955.671875,P08,D08,1,1,1
2323,-0.3,1644845955.6875,P08,D08,1,1,1
2324,-0.27,1644845955.703125,P08,D08,1,1,1
2325,-0.18,1644845955.71875,P08,D08,1,1,1
2326,-0.04,1644845955.734375,P08,D08,1,1,1
2327,0.11,1644845955.75,P08,D08,1,1,1
2328,0.25,1644845955.765625,P08,D08,1,1,1
2329,0.33,1644845955.78125,P08,D08,1,1,1
2330,0.3,1644845955.796875,P08,D08,1,1,1
2331,0.12,1644845955.8125,P08,D08,1,1,1
2332,-0.18,1644845955.828125,P08,D08,1,1,1
2333,-0.5,1644845955.84375,P08,D08,1,1,1
2334,-0.71,1644845955.859375,P08,D08,1,1,1
2335,-0.75,1644845955.875,P08,D08,1,1,1
2336,-0.59,1644845955.890625,P08,D08,1,1,1
2337,-0.32,1644845955.90625,P08,D08,1,1,1
2338,-0.03,1644845955.921875,P08,D08,1,1,1
2339,0.2,1644845955.9375,P08,D08,1,1,1
2340,0.34,1644845955.953125,P08,D08,1,1,1
2341,0.39,1644845955.96875,P08,D08,1,1,1
2342,0.38,1644845955.984375,P08,D08,1,1,1
2343,0.32,1644845956.0,P08,D08,1,1,1
2344,0.26,1644845956.015625,P08,D08,1,1,1
2345,0.21,1644845956.03125,P08,D08,1,1,1
2346,0.18,1644845956.046875,P08,D08,1,1,1
2347,0.13,1644845956.0625,P08,D08,1,1,1
2348,0.03,1644845956.078125,P08,D08,1,1,1
2349,-0.15,1644845956.09375,P08,D08,1,1,1
2350,-0.39,1644845956.109375,P08,D08,1,1,1
2351,-0.56,1644845956.125,P08,D08,1,1,1
2352,-0.57,1644845956.140625,P08,D08,1,1,1
2353,-0.35,1644845956.15625,P08,D08,1,1,1
2354,0.05,1644845956.171875,P08,D08,1,1,1
2355,0.51,1644845956.1875,P08,D08,1,1,1
2356,0.84,1644845956.203125,P08,D08,1,1,1
2357,0.93,1644845956.21875,P08,D08,1,1,1
2358,0.8,1644845956.234375,P08,D08,1,1,1
2359,0.59,1644845956.25,P08,D08,1,1,1
2360,0.43,1644845956.265625,P08,D08,1,1,1
2361,0.43,1644845956.28125,P08,D08,1,1,1
2362,0.58,1644845956.296875,P08,D08,1,1,1
2363,0.77,1644845956.3125,P08,D08,1,1,1
2364,0.87,1644845956.328125,P08,D08,1,1,1
2365,0.8,1644845956.34375,P08,D08,1,1,1
2366,0.56,1644845956.359375,P08,D08,1,1,1
2367,0.22,1644845956.375,P08,D08,1,1,1
2368,-0.1,1644845956.390625,P08,D08,1,1,1
2369,-0.3,1644845956.40625,P08,D08,1,1,1
2370,-0.27,1644845956.421875,P08,D08,1,1,1
2371,-0.01,1644845956.4375,P08,D08,1,1,1
2372,0.41,1644845956.453125,P08,D08,1,1,1
2373,0.86,1644845956.46875,P08,D08,1,1,1
2374,1.13,1644845956.484375,P08,D08,1,1,1
2375,1.1,1644845956.5,P08,D08,1,1,1
2376,0.74,1644845956.515625,P08,D08,1,1,1
2377,0.18,1644845956.53125,P08,D08,1,1,1
2378,-0.38,1644845956.546875,P08,D08,1,1,1
2379,-0.75,1644845956.5625,P08,D08,1,1,1
2380,-0.85,1644845956.578125,P08,D08,1,1,1
2381,-0.75,1644845956.59375,P08,D08,1,1,1
2382,-0.54,1644845956.609375,P08,D08,1,1,1
2383,-0.32,1644845956.625,P08,D08,1,1,1
2384,-0.13,1644845956.640625,P08,D08,1,1,1
2385,0.05,1644845956.65625,P08,D08,1,1,1
2386,0.22,1644845956.671875,P08,D08,1,1,1
2387,0.32,1644845956.6875,P08,D08,1,1,1
2388,0.29,1644845956.703125,P08,D08,1,1,1
2389,0.08,1644845956.71875,P08,D08,1,1,1
2390,-0.28,1644845956.734375,P08,D08,1,1,1
2391,-0.69,1644845956.75,P08,D08,1,1,1
2392,-1.03,1644845956.765625,P08,D08,1,1,1
2393,-1.21,1644845956.78125,P08,D08,1,1,1
2394,-1.19,1644845956.796875,P08,D08,1,1,1
2395,-0.99,1644845956.8125,P08,D08,1,1,1
2396,-0.63,1644845956.828125,P08,D08,1,1,1
2397,-0.16,1644845956.84375,P08,D08,1,1,1
2398,0.35,1644845956.859375,P08,D08,1,1,1
2399,0.79,1644845956.875,P08,D08,1,1,1
2400,1.06,1644845956.890625,P08,D08,1,1,1
2401,1.07,1644845956.90625,P08,D08,1,1,1
2402,0.79,1644845956.921875,P08,D08,1,1,1
2403,0.29,1644845956.9375,P08,D08,1,1,1
2404,-0.3,1644845956.953125,P08,D08,1,1,1
2405,-0.83,1644845956.96875,P08,D08,1,1,1
2406,-1.18,1644845956.984375,P08,D08,1,1,1
2407,-1.29,1644845957.0,P08,D08,1,1,1
2408,-1.16,1644845957.015625,P08,D08,1,1,1
2409,-0.86,1644845957.03125,P08,D08,1,1,1
2410,-0.49,1644845957.046875,P08,D08,1,1,1
2411,-0.17,1644845957.0625,P08,D08,1,1,1
2412,0.01,1644845957.078125,P08,D08,1,1,1
2413,0.03,1644845957.09375,P08,D08,1,1,1
2414,-0.05,1644845957.109375,P08,D08,1,1,1
2415,-0.13,1644845957.125,P08,D08,1,1,1
2416,-0.12,1644845957.140625,P08,D08,1,1,1
2417,-0.01,1644845957.15625,P08,D08,1,1,1
2418,0.17,1644845957.171875,P08,D08,1,1,1
2419,0.33,1644845957.1875,P08,D08,1,1,1
2420,0.41,1644845957.203125,P08,D08,1,1,1
2421,0.44,1644845957.21875,P08,D08,1,1,1
2422,0.45,1644845957.234375,P08,D08,1,1,1
2423,0.51,1644845957.25,P08,D08,1,1,1
2424,0.6,1644845957.265625,P08,D08,1,1,1
2425,0.67,1644845957.28125,P08,D08,1,1,1
2426,0.63,1644845957.296875,P08,D08,1,1,1
2427,0.43,1644845957.3125,P08,D08,1,1,1
2428,0.09,1644845957.328125,P08,D08,1,1,1
2429,-0.29,1644845957.34375,P08,D08,1,1,1
2430,-0.58,1644845957.359375,P08,D08,1,1,1
2431,-0.68,1644845957.375,P08,D08,1,1,1
2432,-0.55,1644845957.390625,P08,D08,1,1,1
2433,-0.23,1644845957.40625,P08,D08,1,1,1
2434,0.17,1644845957.421875,P08,D08,1,1,1
2435,0.57,1644845957.4375,P08,D08,1,1,1
2436,0.88,1644845957.453125,P08,D08,1,1,1
2437,1.07,1644845957.46875,P08,D08,1,1,1
2438,1.12,1644845957.484375,P08,D08,1,1,1
2439,1.03,1644845957.5,P08,D08,1,1,1
2440,0.81,1644845957.515625,P08,D08,1,1,1
2441,0.49,1644845957.53125,P08,D08,1,1,1
2442,0.14,1644845957.546875,P08,D08,1,1,1
2443,-0.19,1644845957.5625,P08,D08,1,1,1
2444,-0.43,1644845957.578125,P08,D08,1,1,1
2445,-0.55,1644845957.59375,P08,D08,1,1,1
2446,-0.57,1644845957.609375,P08,D08,1,1,1
2447,-0.52,1644845957.625,P08,D08,1,1,1
2448,-0.42,1644845957.640625,P08,D08,1,1,1
2449,-0.26,1644845957.65625,P08,D08,1,1,1
2450,0.0,1644845957.671875,P08,D08,1,1,1
2451,0.36,1644845957.6875,P08,D08,1,1,1
2452,0.73,1644845957.703125,P08,D08,1,1,1
2453,1.01,1644845957.71875,P08,D08,1,1,1
2454,1.09,1644845957.734375,P08,D08,1,1,1
2455,0.92,1644845957.75,P08,D08,1,1,1
2456,0.56,1644845957.765625,P08,D08,1,1,1
2457,0.14,1644845957.78125,P08,D08,1,1,1
2458,-0.2,1644845957.796875,P08,D08,1,1,1
2459,-0.4,1644845957.8125,P08,D08,1,1,1
2460,-0.48,1644845957.828125,P08,D08,1,1,1
2461,-0.51,1644845957.84375,P08,D08,1,1,1
2462,-0.58,1644845957.859375,P08,D08,1,1,1
2463,-0.72,1644845957.875,P08,D08,1,1,1
2464,-0.88,1644845957.890625,P08,D08,1,1,1
2465,-0.97,1644845957.90625,P08,D08,1,1,1
2466,-0.93,1644845957.921875,P08,D08,1,1,1
2467,-0.72,1644845957.9375,P08,D08,1,1,1
2468,-0.4,1644845957.953125,P08,D08,1,1,1
2469,-0.07,1644845957.96875,P08,D08,1,1,1
2470,0.2,1644845957.984375,P08,D08,1,1,1
2471,0.36,1644845958.0,P08,D08,1,1,1
2472,0.4,1644845958.015625,P08,D08,1,1,1
2473,0.35,1644845958.03125,P08,D08,1,1,1
2474,0.22,1644845958.046875,P08,D08,1,1,1
2475,0.03,1644845958.0625,P08,D08,1,1,1
2476,-0.17,1644845958.078125,P08,D08,1,1,1
2477,-0.34,1644845958.09375,P08,D08,1,1,1
2478,-0.41,1644845958.109375,P08,D08,1,1,1
2479,-0.3,1644845958.125,P08,D08,1,1,1
2480,-0.04,1644845958.140625,P08,D08,1,1,1
2481,0.3,1644845958.15625,P08,D08,1,1,1
2482,0.59,1644845958.171875,P08,D08,1,1,1
2483,0.7,1644845958.1875,P08,D08,1,1,1
2484,0.59,1644845958.203125,P08,D08,1,1,1
2485,0.3,1644845958.21875,P08,D08,1,1,1
2486,-0.03,1644845958.234375,P08,D08,1,1,1
2487,-0.29,1644845958.25,P08,D08,1,1,1
2488,-0.39,1644845958.265625,P08,D08,1,1,1
2489,-0.34,1644845958.28125,P08,D08,1,1,1
2490,-0.21,1644845958.296875,P08,D08,1,1,1
2491,-0.04,1644845958.3125,P08,D08,1,1,1
2492,0.11,1644845958.328125,P08,D08,1,1,1
2493,0.25,1644845958.34375,P08,D08,1,1,1
2494,0.39,1644845958.359375,P08,D08,1,1,1
2495,0.52,1644845958.375,P08,D08,1,1,1
2496,0.59,1644845958.390625,P08,D08,1,1,1
2497,0.57,1644845958.40625,P08,D08,1,1,1
2498,0.41,1644845958.421875,P08,D08,1,1,1
2499,0.13,1644845958.4375,P08,D08,1,1,1
2500,-0.21,1644845958.453125,P08,D08,1,1,1
2501,-0.5,1644845958.46875,P08,D08,1,1,1
2502,-0.66,1644845958.484375,P08,D08,1,1,1
2503,-0.64,1644845958.5,P08,D08,1,1,1
2504,-0.49,1644845958.515625,P08,D08,1,1,1
2505,-0.28,1644845958.53125,P08,D08,1,1,1
2506,-0.1,1644845958.546875,P08,D08,1,1,1
2507,-0.01,1644845958.5625,P08,D08,1,1,1
2508,-0.0,1644845958.578125,P08,D08,1,1,1
2509,-0.06,1644845958.59375,P08,D08,1,1,1
2510,-0.14,1644845958.609375,P08,D08,1,1,1
2511,-0.23,1644845958.625,P08,D08,1,1,1
2512,-0.32,1644845958.640625,P08,D08,1,1,1
2513,-0.44,1644845958.65625,P08,D08,1,1,1
2514,-0.55,1644845958.671875,P08,D08,1,1,1
2515,-0.64,1644845958.6875,P08,D08,1,1,1
2516,-0.67,1644845958.703125,P08,D08,1,1,1
2517,-0.61,1644845958.71875,P08,D08,1,1,1
2518,-0.46,1644845958.734375,P08,D08,1,1,1
2519,-0.26,1644845958.75,P08,D08,1,1,1
2520,-0.06,1644845958.765625,P08,D08,1,1,1
2521,0.06,1644845958.78125,P08,D08,1,1,1
2522,0.07,1644845958.796875,P08,D08,1,1,1
2523,-0.01,1644845958.8125,P08,D08,1,1,1
2524,-0.11,1644845958.828125,P08,D08,1,1,1
2525,-0.13,1644845958.84375,P08,D08,1,1,1
2526,0.0,1644845958.859375,P08,D08,1,1,1
2527,0.29,1644845958.875,P08,D08,1,1,1
2528,0.65,1644845958.890625,P08,D08,1,1,1
2529,0.98,1644845958.90625,P08,D08,1,1,1
2530,1.15,1644845958.921875,P08,D08,1,1,1
2531,1.15,1644845958.9375,P08,D08,1,1,1
2532,1.01,1644845958.953125,P08,D08,1,1,1
2533,0.85,1644845958.96875,P08,D08,1,1,1
2534,0.77,1644845958.984375,P08,D08,1,1,1
2535,0.79,1644845959.0,P08,D08,1,1,1
2536,0.85,1644845959.015625,P08,D08,1,1,1
2537,0.83,1644845959.03125,P08,D08,1,1,1
2538,0.66,1644845959.046875,P08,D08,1,1,1
2539,0.3,1644845959.0625,P08,D08,1,1,1
2540,-0.2,1644845959.078125,P08,D08,1,1,1
2541,-0.73,1644845959.09375,P08,D08,1,1,1
2542,-1.15,1644845959.109375,P08,D08,1,1,1
2543,-1.36,1644845959.125,P08,D08,1,1,1
2544,-1.35,1644845959.140625,P08,D08,1,1,1
2545,-1.18,1644845959.15625,P08,D08,1,1,1
2546,-0.97,1644845959.171875,P08,D08,1,1,1
2547,-0.81,1644845959.1875,P08,D08,1,1,1
2548,-0.77,1644845959.203125,P08,D08,1,1,1
2549,-0.81,1644845959.21875,P08,D08,1,1,1
2550,-0.84,1644845959.234375,P08,D08,1,1,1
2551,-0.77,1644845959.25,P08,D08,1,1,1
2552,-0.55,1644845959.265625,P08,D08,1,1,1
2553,-0.25,1644845959.28125,P08,D08,1,1,1
2554,0.04,1644845959.296875,P08,D08,1,1,1
2555,0.25,1644845959.3125,P08,D08,1,1,1
2556,0.35,1644845959.328125,P08,D08,1,1,1
2557,0.39,1644845959.34375,P08,D08,1,1,1
2558,0.47,1644845959.359375,P08,D08,1,1,1
2559,0.63,1644845959.375,P08,D08,1,1,1
2560,0.85,1644845959.390625,P08,D08,1,1,1
2561,1.03,1644845959.40625,P08,D08,1,1,1
2562,1.08,1644845959.421875,P08,D08,1,1,1
2563,0.98,1644845959.4375,P08,D08,1,1,1
2564,0.76,1644845959.453125,P08,D08,1,1,1
2565,0.52,1644845959.46875,P08,D08,1,1,1
2566,0.36,1644845959.484375,P08,D08,1,1,1
2567,0.3,1644845959.5,P08,D08,1,1,1
2568,0.31,1644845959.515625,P08,D08,1,1,1
2569,0.34,1644845959.53125,P08,D08,1,1,1
2570,0.32,1644845959.546875,P08,D08,1,1,1
2571,0.23,1644845959.5625,P08,D08,1,1,1
2572,0.1,1644845959.578125,P08,D08,1,1,1
2573,-0.06,1644845959.59375,P08,D08,1,1,1
2574,-0.22,1644845959.609375,P08,D08,1,1,1
2575,-0.37,1644845959.625,P08,D08,1,1,1
2576,-0.51,1644845959.640625,P08,D08,1,1,1
2577,-0.6,1644845959.65625,P08,D08,1,1,1
2578,-0.62,1644845959.671875,P08,D08,1,1,1
2579,-0.53,1644845959.6875,P08,D08,1,1,1
2580,-0.35,1644845959.703125,P08,D08,1,1,1
2581,-0.09,1644845959.71875,P08,D08,1,1,1
2582,0.17,1644845959.734375,P08,D08,1,1,1
2583,0.35,1644845959.75,P08,D08,1,1,1
2584,0.39,1644845959.765625,P08,D08,1,1,1
2585,0.28,1644845959.78125,P08,D08,1,1,1
2586,0.03,1644845959.796875,P08,D08,1,1,1
2587,-0.28,1644845959.8125,P08,D08,1,1,1
2588,-0.57,1644845959.828125,P08,D08,1,1,1
2589,-0.78,1644845959.84375,P08,D08,1,1,1
2590,-0.88,1644845959.859375,P08,D08,1,1,1
2591,-0.89,1644845959.875,P08,D08,1,1,1
2592,-0.84,1644845959.890625,P08,D08,1,1,1
2593,-0.77,1644845959.90625,P08,D08,1,1,1
2594,-0.68,1644845959.921875,P08,D08,1,1,1
2595,-0.55,1644845959.9375,P08,D08,1,1,1
2596,-0.35,1644845959.953125,P08,D08,1,1,1
2597,-0.09,1644845959.96875,P08,D08,1,1,1
2598,0.19,1644845959.984375,P08,D08,1,1,1
2599,0.44,1644845960.0,P08,D08,1,1,1
2600,0.6,1644845960.015625,P08,D08,1,1,1
2601,0.66,1644845960.03125,P08,D08,1,1,1
2602,0.64,1644845960.046875,P08,D08,1,1,1
2603,0.58,1644845960.0625,P08,D08,1,1,1
2604,0.52,1644845960.078125,P08,D08,1,1,1
2605,0.48,1644845960.09375,P08,D08,1,1,1
2606,0.45,1644845960.109375,P08,D08,1,1,1
2607,0.42,1644845960.125,P08,D08,1,1,1
2608,0.37,1644845960.140625,P08,D08,1,1,1
2609,0.28,1644845960.15625,P08,D08,1,1,1
2610,0.18,1644845960.171875,P08,D08,1,1,1
2611,0.08,1644845960.1875,P08,D08,1,1,1
2612,0.01,1644845960.203125,P08,D08,1,1,1
2613,-0.02,1644845960.21875,P08,D08,1,1,1
2614,-0.03,1644845960.234375,P08,D08,1,1,1
2615,-0.06,1644845960.25,P08,D08,1,1,1
2616,-0.12,1644845960.265625,P08,D08,1,1,1
2617,-0.23,1644845960.28125,P08,D08,1,1,1
2618,-0.36,1644845960.296875,P08,D08,1,1,1
2619,-0.47,1644845960.3125,P08,D08,1,1,1
2620,-0.57,1644845960.328125,P08,D08,1,1,1
2621,-0.63,1644845960.34375,P08,D08,1,1,1
2622,-0.64,1644845960.359375,P08,D08,1,1,1
2623,-0.6,1644845960.375,P08,D08,1,1,1
2624,-0.48,1644845960.390625,P08,D08,1,1,1
2625,-0.26,1644845960.40625,P08,D08,1,1,1
2626,0.04,1644845960.421875,P08,D08,1,1,1
2627,0.35,1644845960.4375,P08,D08,1,1,1
2628,0.62,1644845960.453125,P08,D08,1,1,1
2629,0.77,1644845960.46875,P08,D08,1,1,1
2630,0.78,1644845960.484375,P08,D08,1,1,1
2631,0.65,1644845960.5,P08,D08,1,1,1
2632,0.42,1644845960.515625,P08,D08,1,1,1
2633,0.18,1644845960.53125,P08,D08,1,1,1
2634,-0.01,1644845960.546875,P08,D08,1,1,1
2635,-0.07,1644845960.5625,P08,D08,1,1,1
2636,0.04,1644845960.578125,P08,D08,1,1,1
2637,0.26,1644845960.59375,P08,D08,1,1,1
2638,0.5,1644845960.609375,P08,D08,1,1,1
2639,0.66,1644845960.625,P08,D08,1,1,1
2640,0.66,1644845960.640625,P08,D08,1,1,1
2641,0.55,1644845960.65625,P08,D08,1,1,1
2642,0.41,1644845960.671875,P08,D08,1,1,1
2643,0.34,1644845960.6875,P08,D08,1,1,1
2644,0.37,1644845960.703125,P08,D08,1,1,1
2645,0.46,1644845960.71875,P08,D08,1,1,1
2646,0.5,1644845960.734375,P08,D08,1,1,1
2647,0.43,1644845960.75,P08,D08,1,1,1
2648,0.23,1644845960.765625,P08,D08,1,1,1
2649,-0.05,1644845960.78125,P08,D08,1,1,1
2650,-0.36,1644845960.796875,P08,D08,1,1,1
2651,-0.66,1644845960.8125,P08,D08,1,1,1
2652,-0.94,1644845960.828125,P08,D08,1,1,1
2653,-1.23,1644845960.84375,P08,D08,1,1,1
2654,-1.52,1644845960.859375,P08,D08,1,1,1
2655,-1.77,1644845960.875,P08,D08,1,1,1
2656,-1.95,1644845960.890625,P08,D08,1,1,1
2657,-1.99,1644845960.90625,P08,D08,1,1,1
2658,-1.84,1644845960.921875,P08,D08,1,1,1
2659,-1.52,1644845960.9375,P08,D08,1,1,1
2660,-1.05,1644845960.953125,P08,D08,1,1,1
2661,-0.5,1644845960.96875,P08,D08,1,1,1
2662,0.01,1644845960.984375,P08,D08,1,1,1
2663,0.4,1644845961.0,P08,D08,1,1,1
2664,0.6,1644845961.015625,P08,D08,1,1,1
2665,0.63,1644845961.03125,P08,D08,1,1,1
2666,0.55,1644845961.046875,P08,D08,1,1,1
2667,0.46,1644845961.0625,P08,D08,1,1,1
2668,0.44,1644845961.078125,P08,D08,1,1,1
2669,0.53,1644845961.09375,P08,D08,1,1,1
2670,0.68,1644845961.109375,P08,D08,1,1,1
2671,0.8,1644845961.125,P08,D08,1,1,1
2672,0.81,1644845961.140625,P08,D08,1,1,1
2673,0.68,1644845961.15625,P08,D08,1,1,1
2674,0.43,1644845961.171875,P08,D08,1,1,1
2675,0.18,1644845961.1875,P08,D08,1,1,1
2676,-0.02,1644845961.203125,P08,D08,1,1,1
2677,-0.08,1644845961.21875,P08,D08,1,1,1
2678,-0.01,1644845961.234375,P08,D08,1,1,1
2679,0.16,1644845961.25,P08,D08,1,1,1
2680,0.37,1644845961.265625,P08,D08,1,1,1
2681,0.58,1644845961.28125,P08,D08,1,1,1
2682,0.76,1644845961.296875,P08,D08,1,1,1
2683,0.86,1644845961.3125,P08,D08,1,1,1
2684,0.87,1644845961.328125,P08,D08,1,1,1
2685,0.79,1644845961.34375,P08,D08,1,1,1
2686,0.65,1644845961.359375,P08,D08,1,1,1
2687,0.5,1644845961.375,P08,D08,1,1,1
2688,0.39,1644845961.390625,P08,D08,1,1,1
2689,0.35,1644845961.40625,P08,D08,1,1,1
2690,0.34,1644845961.421875,P08,D08,1,1,1
2691,0.32,1644845961.4375,P08,D08,1,1,1
2692,0.25,1644845961.453125,P08,D08,1,1,1
2693,0.16,1644845961.46875,P08,D08,1,1,1
2694,0.08,1644845961.484375,P08,D08,1,1,1
2695,0.05,1644845961.5,P08,D08,1,1,1
2696,0.08,1644845961.515625,P08,D08,1,1,1
2697,0.11,1644845961.53125,P08,D08,1,1,1
2698,0.1,1644845961.546875,P08,D08,1,1,1
2699,0.02,1644845961.5625,P08,D08,1,1,1
2700,-0.08,1644845961.578125,P08,D08,1,1,1
2701,-0.15,1644845961.59375,P08,D08,1,1,1
2702,-0.14,1644845961.609375,P08,D08,1,1,1
2703,-0.08,1644845961.625,P08,D08,1,1,1
2704,-0.06,1644845961.640625,P08,D08,1,1,1
2705,-0.11,1644845961.65625,P08,D08,1,1,1
2706,-0.24,1644845961.671875,P08,D08,1,1,1
2707,-0.35,1644845961.6875,P08,D08,1,1,1
2708,-0.35,1644845961.703125,P08,D08,1,1,1
2709,-0.22,1644845961.71875,P08,D08,1,1,1
2710,-0.06,1644845961.734375,P08,D08,1,1,1
2711,0.01,1644845961.75,P08,D08,1,1,1
2712,-0.15,1644845961.765625,P08,D08,1,1,1
2713,-0.53,1644845961.78125,P08,D08,1,1,1
2714,-0.97,1644845961.796875,P08,D08,1,1,1
2715,-1.28,1644845961.8125,P08,D08,1,1,1
2716,-1.32,1644845961.828125,P08,D08,1,1,1
2717,-1.1,1644845961.84375,P08,D08,1,1,1
2718,-0.77,1644845961.859375,P08,D08,1,1,1
2719,-0.49,1644845961.875,P08,D08,1,1,1
2720,-0.4,1644845961.890625,P08,D08,1,1,1
2721,-0.44,1644845961.90625,P08,D08,1,1,1
2722,-0.51,1644845961.921875,P08,D08,1,1,1
2723,-0.48,1644845961.9375,P08,D08,1,1,1
2724,-0.32,1644845961.953125,P08,D08,1,1,1
2725,-0.1,1644845961.96875,P08,D08,1,1,1
2726,0.09,1644845961.984375,P08,D08,1,1,1
2727,0.17,1644845962.0,P08,D08,1,1,1
2728,0.18,1644845962.015625,P08,D08,1,1,1
2729,0.18,1644845962.03125,P08,D08,1,1,1
2730,0.23,1644845962.046875,P08,D08,1,1,1
2731,0.34,1644845962.0625,P08,D08,1,1,1
2732,0.48,1644845962.078125,P08,D08,1,1,1
2733,0.55,1644845962.09375,P08,D08,1,1,1
2734,0.51,1644845962.109375,P08,D08,1,1,1
2735,0.36,1644845962.125,P08,D08,1,1,1
2736,0.12,1644845962.140625,P08,D08,1,1,1
2737,-0.13,1644845962.15625,P08,D08,1,1,1
2738,-0.34,1644845962.171875,P08,D08,1,1,1
2739,-0.46,1644845962.1875,P08,D08,1,1,1
2740,-0.5,1644845962.203125,P08,D08,1,1,1
2741,-0.47,1644845962.21875,P08,D08,1,1,1
2742,-0.42,1644845962.234375,P08,D08,1,1,1
2743,-0.36,1644845962.25,P08,D08,1,1,1
2744,-0.33,1644845962.265625,P08,D08,1,1,1
2745,-0.31,1644845962.28125,P08,D08,1,1,1
2746,-0.28,1644845962.296875,P08,D08,1,1,1
2747,-0.2,1644845962.3125,P08,D08,1,1,1
2748,-0.06,1644845962.328125,P08,D08,1,1,1
2749,0.13,1644845962.34375,P08,D08,1,1,1
2750,0.3,1644845962.359375,P08,D08,1,1,1
2751,0.41,1644845962.375,P08,D08,1,1,1
2752,0.43,1644845962.390625,P08,D08,1,1,1
2753,0.36,1644845962.40625,P08,D08,1,1,1
2754,0.27,1644845962.421875,P08,D08,1,1,1
2755,0.21,1644845962.4375,P08,D08,1,1,1
2756,0.22,1644845962.453125,P08,D08,1,1,1
2757,0.3,1644845962.46875,P08,D08,1,1,1
2758,0.37,1644845962.484375,P08,D08,1,1,1
2759,0.38,1644845962.5,P08,D08,1,1,1
2760,0.29,1644845962.515625,P08,D08,1,1,1
2761,0.12,1644845962.53125,P08,D08,1,1,1
2762,-0.05,1644845962.546875,P08,D08,1,1,1
2763,-0.13,1644845962.5625,P08,D08,1,1,1
2764,-0.07,1644845962.578125,P08,D08,1,1,1
2765,0.13,1644845962.59375,P08,D08,1,1,1
2766,0.37,1644845962.609375,P08,D08,1,1,1
2767,0.55,1644845962.625,P08,D08,1,1,1
2768,0.58,1644845962.640625,P08,D08,1,1,1
2769,0.44,1644845962.65625,P08,D08,1,1,1
2770,0.17,1644845962.671875,P08,D08,1,1,1
2771,-0.14,1644845962.6875,P08,D08,1,1,1
2772,-0.35,1644845962.703125,P08,D08,1,1,1
2773,-0.41,1644845962.71875,P08,D08,1,1,1
2774,-0.28,1644845962.734375,P08,D08,1,1,1
2775,-0.02,1644845962.75,P08,D08,1,1,1
2776,0.29,1644845962.765625,P08,D08,1,1,1
2777,0.56,1644845962.78125,P08,D08,1,1,1
2778,0.72,1644845962.796875,P08,D08,1,1,1
2779,0.7,1644845962.8125,P08,D08,1,1,1
2780,0.52,1644845962.828125,P08,D08,1,1,1
2781,0.19,1644845962.84375,P08,D08,1,1,1
2782,-0.19,1644845962.859375,P08,D08,1,1,1
2783,-0.48,1644845962.875,P08,D08,1,1,1
2784,-0.57,1644845962.890625,P08,D08,1,1,1
2785,-0.41,1644845962.90625,P08,D08,1,1,1
2786,-0.05,1644845962.921875,P08,D08,1,1,1
2787,0.37,1644845962.9375,P08,D08,1,1,1
2788,0.71,1644845962.953125,P08,D08,1,1,1
2789,0.87,1644845962.96875,P08,D08,1,1,1
2790,0.81,1644845962.984375,P08,D08,1,1,1
2791,0.6,1644845963.0,P08,D08,1,1,1
2792,0.37,1644845963.015625,P08,D08,1,1,1
2793,0.21,1644845963.03125,P08,D08,1,1,1
2794,0.18,1644845963.046875,P08,D08,1,1,1
2795,0.27,1644845963.0625,P08,D08,1,1,1
2796,0.39,1644845963.078125,P08,D08,1,1,1
2797,0.46,1644845963.09375,P08,D08,1,1,1
2798,0.4,1644845963.109375,P08,D08,1,1,1
2799,0.19,1644845963.125,P08,D08,1,1,1
2800,-0.13,1644845963.140625,P08,D08,1,1,1
2801,-0.49,1644845963.15625,P08,D08,1,1,1
2802,-0.8,1644845963.171875,P08,D08,1,1,1
2803,-0.96,1644845963.1875,P08,D08,1,1,1
2804,-0.94,1644845963.203125,P08,D08,1,1,1
2805,-0.74,1644845963.21875,P08,D08,1,1,1
2806,-0.37,1644845963.234375,P08,D08,1,1,1
2807,0.06,1644845963.25,P08,D08,1,1,1
2808,0.42,1644845963.265625,P08,D08,1,1,1
2809,0.6,1644845963.28125,P08,D08,1,1,1
2810,0.52,1644845963.296875,P08,D08,1,1,1
2811,0.22,1644845963.3125,P08,D08,1,1,1
2812,-0.17,1644845963.328125,P08,D08,1,1,1
2813,-0.49,1644845963.34375,P08,D08,1,1,1
2814,-0.59,1644845963.359375,P08,D08,1,1,1
2815,-0.49,1644845963.375,P08,D08,1,1,1
2816,-0.3,1644845963.390625,P08,D08,1,1,1
2817,-0.18,1644845963.40625,P08,D08,1,1,1
2818,-0.24,1644845963.421875,P08,D08,1,1,1
2819,-0.46,1644845963.4375,P08,D08,1,1,1
2820,-0.73,1644845963.453125,P08,D08,1,1,1
2821,-0.89,1644845963.46875,P08,D08,1,1,1
2822,-0.88,1644845963.484375,P08,D08,1,1,1
2823,-0.76,1644845963.5,P08,D08,1,1,1
2824,-0.66,1644845963.515625,P08,D08,1,1,1
2825,-0.7,1644845963.53125,P08,D08,1,1,1
2826,-0.85,1644845963.546875,P08,D08,1,1,1
2827,-0.97,1644845963.5625,P08,D08,1,1,1
2828,-0.89,1644845963.578125,P08,D08,1,1,1
2829,-0.54,1644845963.59375,P08,D08,1,1,1
2830,0.01,1644845963.609375,P08,D08,1,1,1
2831,0.55,1644845963.625,P08,D08,1,1,1
2832,0.88,1644845963.640625,P08,D08,1,1,1
2833,0.88,1644845963.65625,P08,D08,1,1,1
2834,0.57,1644845963.671875,P08,D08,1,1,1
2835,0.11,1644845963.6875,P08,D08,1,1,1
2836,-0.33,1644845963.703125,P08,D08,1,1,1
2837,-0.61,1644845963.71875,P08,D08,1,1,1
2838,-0.67,1644845963.734375,P08,D08,1,1,1
2839,-0.54,1644845963.75,P08,D08,1,1,1
2840,-0.28,1644845963.765625,P08,D08,1,1,1
2841,0.03,1644845963.78125,P08,D08,1,1,1
2842,0.34,1644845963.796875,P08,D08,1,1,1
2843,0.58,1644845963.8125,P08,D08,1,1,1
2844,0.72,1644845963.828125,P08,D08,1,1,1
2845,0.76,1644845963.84375,P08,D08,1,1,1
2846,0.74,1644845963.859375,P08,D08,1,1,1
2847,0.71,1644845963.875,P08,D08,1,1,1
2848,0.7,1644845963.890625,P08,D08,1,1,1
2849,0.71,1644845963.90625,P08,D08,1,1,1
2850,0.68,1644845963.921875,P08,D08,1,1,1
2851,0.55,1644845963.9375,P08,D08,1,1,1
2852,0.3,1644845963.953125,P08,D08,1,1,1
2853,-0.02,1644845963.96875,P08,D08,1,1,1
2854,-0.31,1644845963.984375,P08,D08,1,1,1
2855,-0.45,1644845964.0,P08,D08,1,1,1
2856,-0.39,1644845964.015625,P08,D08,1,1,1
2857,-0.18,1644845964.03125,P08,D08,1,1,1
2858,0.07,1644845964.046875,P08,D08,1,1,1
2859,0.19,1644845964.0625,P08,D08,1,1,1
2860,0.11,1644845964.078125,P08,D08,1,1,1
2861,-0.17,1644845964.09375,P08,D08,1,1,1
2862,-0.54,1644845964.109375,P08,D08,1,1,1
2863,-0.84,1644845964.125,P08,D08,1,1,1
2864,-0.95,1644845964.140625,P08,D08,1,1,1
2865,-0.82,1644845964.15625,P08,D08,1,1,1
2866,-0.53,1644845964.171875,P08,D08,1,1,1
2867,-0.15,1644845964.1875,P08,D08,1,1,1
2868,0.16,1644845964.203125,P08,D08,1,1,1
2869,0.34,1644845964.21875,P08,D08,1,1,1
2870,0.36,1644845964.234375,P08,D08,1,1,1
2871,0.24,1644845964.25,P08,D08,1,1,1
2872,0.09,1644845964.265625,P08,D08,1,1,1
2873,-0.02,1644845964.28125,P08,D08,1,1,1
2874,-0.02,1644845964.296875,P08,D08,1,1,1
2875,0.07,1644845964.3125,P08,D08,1,1,1
2876,0.17,1644845964.328125,P08,D08,1,1,1
2877,0.2,1644845964.34375,P08,D08,1,1,1
2878,0.1,1644845964.359375,P08,D08,1,1,1
2879,-0.1,1644845964.375,P08,D08,1,1,1
2880,-0.32,1644845964.390625,P08,D08,1,1,1
2881,-0.48,1644845964.40625,P08,D08,1,1,1
2882,-0.52,1644845964.421875,P08,D08,1,1,1
2883,-0.46,1644845964.4375,P08,D08,1,1,1
2884,-0.34,1644845964.453125,P08,D08,1,1,1
2885,-0.19,1644845964.46875,P08,D08,1,1,1
2886,-0.03,1644845964.484375,P08,D08,1,1,1
2887,0.14,1644845964.5,P08,D08,1,1,1
2888,0.31,1644845964.515625,P08,D08,1,1,1
2889,0.43,1644845964.53125,P08,D08,1,1,1
2890,0.47,1644845964.546875,P08,D08,1,1,1
2891,0.37,1644845964.5625,P08,D08,1,1,1
2892,0.13,1644845964.578125,P08,D08,1,1,1
2893,-0.16,1644845964.59375,P08,D08,1,1,1
2894,-0.38,1644845964.609375,P08,D08,1,1,1
2895,-0.44,1644845964.625,P08,D08,1,1,1
2896,-0.29,1644845964.640625,P08,D08,1,1,1
2897,-0.01,1644845964.65625,P08,D08,1,1,1
2898,0.28,1644845964.671875,P08,D08,1,1,1
2899,0.45,1644845964.6875,P08,D08,1,1,1
2900,0.45,1644845964.703125,P08,D08,1,1,1
2901,0.34,1644845964.71875,P08,D08,1,1,1
2902,0.21,1644845964.734375,P08,D08,1,1,1
2903,0.2,1644845964.75,P08,D08,1,1,1
2904,0.35,1644845964.765625,P08,D08,1,1,1
2905,0.6,1644845964.78125,P08,D08,1,1,1
2906,0.83,1644845964.796875,P08,D08,1,1,1
2907,0.9,1644845964.8125,P08,D08,1,1,1
2908,0.76,1644845964.828125,P08,D08,1,1,1
2909,0.46,1644845964.84375,P08,D08,1,1,1
2910,0.12,1644845964.859375,P08,D08,1,1,1
2911,-0.16,1644845964.875,P08,D08,1,1,1
2912,-0.3,1644845964.890625,P08,D08,1,1,1
2913,-0.31,1644845964.90625,P08,D08,1,1,1
2914,-0.22,1644845964.921875,P08,D08,1,1,1
2915,-0.11,1644845964.9375,P08,D08,1,1,1
2916,-0.03,1644845964.953125,P08,D08,1,1,1
2917,-0.01,1644845964.96875,P08,D08,1,1,1
2918,-0.05,1644845964.984375,P08,D08,1,1,1
2919,-0.11,1644845965.0,P08,D08,1,1,1
2920,-0.18,1644845965.015625,P08,D08,1,1,1
