,data,timestamp,participant,document,val,arou,eng
0,1.11,1644844509.390625,P08,D03,1,1,1
1,1.29,1644844509.40625,P08,D03,1,1,1
2,1.45,1644844509.421875,P08,D03,1,1,1
3,1.49,1644844509.4375,P08,D03,1,1,1
4,1.29,1644844509.453125,P08,D03,1,1,1
5,0.8,1644844509.46875,P08,D03,1,1,1
6,0.16,1644844509.484375,P08,D03,1,1,1
7,-0.41,1644844509.5,P08,D03,1,1,1
8,-0.69,1644844509.515625,P08,D03,1,1,1
9,-0.55,1644844509.53125,P08,D03,1,1,1
10,-0.09,1644844509.546875,P08,D03,1,1,1
11,0.47,1644844509.5625,P08,D03,1,1,1
12,0.88,1644844509.578125,P08,D03,1,1,1
13,1.01,1644844509.59375,P08,D03,1,1,1
14,0.89,1644844509.609375,P08,D03,1,1,1
15,0.64,1644844509.625,P08,D03,1,1,1
16,0.39,1644844509.640625,P08,D03,1,1,1
17,0.22,1644844509.65625,P08,D03,1,1,1
18,0.1,1644844509.671875,P08,D03,1,1,1
19,0.01,1644844509.6875,P08,D03,1,1,1
20,-0.07,1644844509.703125,P08,D03,1,1,1
21,-0.09,1644844509.71875,P08,D03,1,1,1
22,0.02,1644844509.734375,P08,D03,1,1,1
23,0.27,1644844509.75,P08,D03,1,1,1
24,0.64,1644844509.765625,P08,D03,1,1,1
25,1.03,1644844509.78125,P08,D03,1,1,1
26,1.32,1644844509.796875,P08,D03,1,1,1
27,1.44,1644844509.8125,P08,D03,1,1,1
28,1.35,1644844509.828125,P08,D03,1,1,1
29,1.08,1644844509.84375,P08,D03,1,1,1
30,0.68,1644844509.859375,P08,D03,1,1,1
31,0.22,1644844509.875,P08,D03,1,1,1
32,-0.23,1644844509.890625,P08,D03,1,1,1
33,-0.61,1644844509.90625,P08,D03,1,1,1
34,-0.86,1644844509.921875,P08,D03,1,1,1
35,-0.93,1644844509.9375,P08,D03,1,1,1
36,-0.86,1644844509.953125,P08,D03,1,1,1
37,-0.73,1644844509.96875,P08,D03,1,1,1
38,-0.65,1644844509.984375,P08,D03,1,1,1
39,-0.71,1644844510.0,P08,D03,1,1,1
40,-0.92,1644844510.015625,P08,D03,1,1,1
41,-1.2,1644844510.03125,P08,D03,1,1,1
42,-1.44,1644844510.046875,P08,D03,1,1,1
43,-1.55,1644844510.0625,P08,D03,1,1,1
44,-1.53,1644844510.078125,P08,D03,1,1,1
45,-1.47,1644844510.09375,P08,D03,1,1,1
46,-1.49,1644844510.109375,P08,D03,1,1,1
47,-1.62,1644844510.125,P08,D03,1,1,1
48,-1.78,1644844510.140625,P08,D03,1,1,1
49,-1.82,1644844510.15625,P08,D03,1,1,1
50,-1.59,1644844510.171875,P08,D03,1,1,1
51,-1.09,1644844510.1875,P08,D03,1,1,1
52,-0.45,1644844510.203125,P08,D03,1,1,1
53,0.1,1644844510.21875,P08,D03,1,1,1
54,0.36,1644844510.234375,P08,D03,1,1,1
55,0.25,1644844510.25,P08,D03,1,1,1
56,-0.11,1644844510.265625,P08,D03,1,1,1
57,-0.49,1644844510.28125,P08,D03,1,1,1
58,-0.67,1644844510.296875,P08,D03,1,1,1
59,-0.51,1644844510.3125,P08,D03,1,1,1
60,-0.07,1644844510.328125,P08,D03,1,1,1
61,0.47,1644844510.34375,P08,D03,1,1,1
62,0.91,1644844510.359375,P08,D03,1,1,1
63,1.11,1644844510.375,P08,D03,1,1,1
64,1.03,1644844510.390625,P08,D03,1,1,1
65,0.77,1644844510.40625,P08,D03,1,1,1
66,0.44,1644844510.421875,P08,D03,1,1,1
67,0.13,1644844510.4375,P08,D03,1,1,1
68,-0.13,1644844510.453125,P08,D03,1,1,1
69,-0.36,1644844510.46875,P08,D03,1,1,1
70,-0.55,1644844510.484375,P08,D03,1,1,1
71,-0.64,1644844510.5,P08,D03,1,1,1
72,-0.6,1644844510.515625,P08,D03,1,1,1
73,-0.43,1644844510.53125,P08,D03,1,1,1
74,-0.19,1644844510.546875,P08,D03,1,1,1
75,-0.01,1644844510.5625,P08,D03,1,1,1
76,0.03,1644844510.578125,P08,D03,1,1,1
77,-0.06,1644844510.59375,P08,D03,1,1,1
78,-0.2,1644844510.609375,P08,D03,1,1,1
79,-0.27,1644844510.625,P08,D03,1,1,1
80,-0.23,1644844510.640625,P08,D03,1,1,1
81,-0.13,1644844510.65625,P08,D03,1,1,1
82,-0.1,1644844510.671875,P08,D03,1,1,1
83,-0.25,1644844510.6875,P08,D03,1,1,1
84,-0.6,1644844510.703125,P08,D03,1,1,1
85,-1.04,1644844510.71875,P08,D03,1,1,1
86,-1.38,1644844510.734375,P08,D03,1,1,1
87,-1.47,1644844510.75,P08,D03,1,1,1
88,-1.24,1644844510.765625,P08,D03,1,1,1
89,-0.76,1644844510.78125,P08,D03,1,1,1
90,-0.21,1644844510.796875,P08,D03,1,1,1
91,0.24,1644844510.8125,P08,D03,1,1,1
92,0.48,1644844510.828125,P08,D03,1,1,1
93,0.49,1644844510.84375,P08,D03,1,1,1
94,0.34,1644844510.859375,P08,D03,1,1,1
95,0.12,1644844510.875,P08,D03,1,1,1
96,-0.1,1644844510.890625,P08,D03,1,1,1
97,-0.28,1644844510.90625,P08,D03,1,1,1
98,-0.4,1644844510.921875,P08,D03,1,1,1
99,-0.45,1644844510.9375,P08,D03,1,1,1
100,-0.39,1644844510.953125,P08,D03,1,1,1
101,-0.22,1644844510.96875,P08,D03,1,1,1
102,0.06,1644844510.984375,P08,D03,1,1,1
103,0.38,1644844511.0,P08,D03,1,1,1
104,0.66,1644844511.015625,P08,D03,1,1,1
105,0.8,1644844511.03125,P08,D03,1,1,1
106,0.78,1644844511.046875,P08,D03,1,1,1
107,0.62,1644844511.0625,P08,D03,1,1,1
108,0.39,1644844511.078125,P08,D03,1,1,1
109,0.19,1644844511.09375,P08,D03,1,1,1
110,0.09,1644844511.109375,P08,D03,1,1,1
111,0.15,1644844511.125,P08,D03,1,1,1
112,0.34,1644844511.140625,P08,D03,1,1,1
113,0.61,1644844511.15625,P08,D03,1,1,1
114,0.9,1644844511.171875,P08,D03,1,1,1
115,1.14,1644844511.1875,P08,D03,1,1,1
116,1.3,1644844511.203125,P08,D03,1,1,1
117,1.36,1644844511.21875,P08,D03,1,1,1
118,1.34,1644844511.234375,P08,D03,1,1,1
119,1.25,1644844511.25,P08,D03,1,1,1
120,1.11,1644844511.265625,P08,D03,1,1,1
121,0.98,1644844511.28125,P08,D03,1,1,1
122,0.87,1644844511.296875,P08,D03,1,1,1
123,0.81,1644844511.3125,P08,D03,1,1,1
124,0.82,1644844511.328125,P08,D03,1,1,1
125,0.87,1644844511.34375,P08,D03,1,1,1
126,0.93,1644844511.359375,P08,D03,1,1,1
127,0.95,1644844511.375,P08,D03,1,1,1
128,0.92,1644844511.390625,P08,D03,1,1,1
129,0.83,1644844511.40625,P08,D03,1,1,1
130,0.72,1644844511.421875,P08,D03,1,1,1
131,0.63,1644844511.4375,P08,D03,1,1,1
132,0.57,1644844511.453125,P08,D03,1,1,1
133,0.52,1644844511.46875,P08,D03,1,1,1
134,0.48,1644844511.484375,P08,D03,1,1,1
135,0.44,1644844511.5,P08,D03,1,1,1
136,0.42,1644844511.515625,P08,D03,1,1,1
137,0.46,1644844511.53125,P08,D03,1,1,1
138,0.56,1644844511.546875,P08,D03,1,1,1
139,0.72,1644844511.5625,P08,D03,1,1,1
140,0.89,1644844511.578125,P08,D03,1,1,1
141,1.01,1644844511.59375,P08,D03,1,1,1
142,1.01,1644844511.609375,P08,D03,1,1,1
143,0.86,1644844511.625,P08,D03,1,1,1
144,0.58,1644844511.640625,P08,D03,1,1,1
145,0.23,1644844511.65625,P08,D03,1,1,1
146,-0.11,1644844511.671875,P08,D03,1,1,1
147,-0.33,1644844511.6875,P08,D03,1,1,1
148,-0.42,1644844511.703125,P08,D03,1,1,1
149,-0.4,1644844511.71875,P08,D03,1,1,1
150,-0.36,1644844511.734375,P08,D03,1,1,1
151,-0.39,1644844511.75,P08,D03,1,1,1
152,-0.53,1644844511.765625,P08,D03,1,1,1
153,-0.73,1644844511.78125,P08,D03,1,1,1
154,-0.9,1644844511.796875,P08,D03,1,1,1
155,-0.93,1644844511.8125,P08,D03,1,1,1
156,-0.78,1644844511.828125,P08,D03,1,1,1
157,-0.5,1644844511.84375,P08,D03,1,1,1
158,-0.19,1644844511.859375,P08,D03,1,1,1
159,0.04,1644844511.875,P08,D03,1,1,1
160,0.14,1644844511.890625,P08,D03,1,1,1
161,0.12,1644844511.90625,P08,D03,1,1,1
162,0.06,1644844511.921875,P08,D03,1,1,1
163,0.0,1644844511.9375,P08,D03,1,1,1
164,-0.03,1644844511.953125,P08,D03,1,1,1
165,-0.07,1644844511.96875,P08,D03,1,1,1
166,-0.15,1644844511.984375,P08,D03,1,1,1
167,-0.24,1644844512.0,P08,D03,1,1,1
168,-0.28,1644844512.015625,P08,D03,1,1,1
169,-0.2,1644844512.03125,P08,D03,1,1,1
170,0.01,1644844512.046875,P08,D03,1,1,1
171,0.28,1644844512.0625,P08,D03,1,1,1
172,0.47,1644844512.078125,P08,D03,1,1,1
173,0.49,1644844512.09375,P08,D03,1,1,1
174,0.35,1644844512.109375,P08,D03,1,1,1
175,0.14,1644844512.125,P08,D03,1,1,1
176,0.01,1644844512.140625,P08,D03,1,1,1
177,0.04,1644844512.15625,P08,D03,1,1,1
178,0.22,1644844512.171875,P08,D03,1,1,1
179,0.44,1644844512.1875,P08,D03,1,1,1
180,0.61,1644844512.203125,P08,D03,1,1,1
181,0.63,1644844512.21875,P08,D03,1,1,1
182,0.53,1644844512.234375,P08,D03,1,1,1
183,0.33,1644844512.25,P08,D03,1,1,1
184,0.07,1644844512.265625,P08,D03,1,1,1
185,-0.22,1644844512.28125,P08,D03,1,1,1
186,-0.51,1644844512.296875,P08,D03,1,1,1
187,-0.78,1644844512.3125,P08,D03,1,1,1
188,-0.96,1644844512.328125,P08,D03,1,1,1
189,-0.96,1644844512.34375,P08,D03,1,1,1
190,-0.76,1644844512.359375,P08,D03,1,1,1
191,-0.44,1644844512.375,P08,D03,1,1,1
192,-0.08,1644844512.390625,P08,D03,1,1,1
193,0.18,1644844512.40625,P08,D03,1,1,1
194,0.29,1644844512.421875,P08,D03,1,1,1
195,0.23,1644844512.4375,P08,D03,1,1,1
196,0.08,1644844512.453125,P08,D03,1,1,1
197,-0.1,1644844512.46875,P08,D03,1,1,1
198,-0.26,1644844512.484375,P08,D03,1,1,1
199,-0.36,1644844512.5,P08,D03,1,1,1
200,-0.38,1644844512.515625,P08,D03,1,1,1
201,-0.32,1644844512.53125,P08,D03,1,1,1
202,-0.24,1644844512.546875,P08,D03,1,1,1
203,-0.19,1644844512.5625,P08,D03,1,1,1
204,-0.27,1644844512.578125,P08,D03,1,1,1
205,-0.48,1644844512.59375,P08,D03,1,1,1
206,-0.78,1644844512.609375,P08,D03,1,1,1
207,-1.03,1644844512.625,P08,D03,1,1,1
208,-1.09,1644844512.640625,P08,D03,1,1,1
209,-0.88,1644844512.65625,P08,D03,1,1,1
210,-0.43,1644844512.671875,P08,D03,1,1,1
211,0.11,1644844512.6875,P08,D03,1,1,1
212,0.58,1644844512.703125,P08,D03,1,1,1
213,0.88,1644844512.71875,P08,D03,1,1,1
214,1.0,1644844512.734375,P08,D03,1,1,1
215,0.99,1644844512.75,P08,D03,1,1,1
216,0.92,1644844512.765625,P08,D03,1,1,1
217,0.83,1644844512.78125,P08,D03,1,1,1
218,0.75,1644844512.796875,P08,D03,1,1,1
219,0.69,1644844512.8125,P08,D03,1,1,1
220,0.66,1644844512.828125,P08,D03,1,1,1
221,0.69,1644844512.84375,P08,D03,1,1,1
222,0.76,1644844512.859375,P08,D03,1,1,1
223,0.82,1644844512.875,P08,D03,1,1,1
224,0.82,1644844512.890625,P08,D03,1,1,1
225,0.71,1644844512.90625,P08,D03,1,1,1
226,0.53,1644844512.921875,P08,D03,1,1,1
227,0.34,1644844512.9375,P08,D03,1,1,1
228,0.21,1644844512.953125,P08,D03,1,1,1
229,0.18,1644844512.96875,P08,D03,1,1,1
230,0.24,1644844512.984375,P08,D03,1,1,1
231,0.34,1644844513.0,P08,D03,1,1,1
232,0.45,1644844513.015625,P08,D03,1,1,1
233,0.53,1644844513.03125,P08,D03,1,1,1
234,0.56,1644844513.046875,P08,D03,1,1,1
235,0.55,1644844513.0625,P08,D03,1,1,1
236,0.46,1644844513.078125,P08,D03,1,1,1
237,0.32,1644844513.09375,P08,D03,1,1,1
238,0.13,1644844513.109375,P08,D03,1,1,1
239,-0.06,1644844513.125,P08,D03,1,1,1
240,-0.21,1644844513.140625,P08,D03,1,1,1
241,-0.3,1644844513.15625,P08,D03,1,1,1
242,-0.35,1644844513.171875,P08,D03,1,1,1
243,-0.37,1644844513.1875,P08,D03,1,1,1
244,-0.36,1644844513.203125,P08,D03,1,1,1
245,-0.31,1644844513.21875,P08,D03,1,1,1
246,-0.19,1644844513.234375,P08,D03,1,1,1
247,-0.02,1644844513.25,P08,D03,1,1,1
248,0.15,1644844513.265625,P08,D03,1,1,1
249,0.24,1644844513.28125,P08,D03,1,1,1
250,0.19,1644844513.296875,P08,D03,1,1,1
251,-0.01,1644844513.3125,P08,D03,1,1,1
252,-0.32,1644844513.328125,P08,D03,1,1,1
253,-0.64,1644844513.34375,P08,D03,1,1,1
254,-0.89,1644844513.359375,P08,D03,1,1,1
255,-1.0,1644844513.375,P08,D03,1,1,1
256,-0.98,1644844513.390625,P08,D03,1,1,1
257,-0.87,1644844513.40625,P08,D03,1,1,1
258,-0.72,1644844513.421875,P08,D03,1,1,1
259,-0.56,1644844513.4375,P08,D03,1,1,1
260,-0.42,1644844513.453125,P08,D03,1,1,1
261,-0.31,1644844513.46875,P08,D03,1,1,1
262,-0.24,1644844513.484375,P08,D03,1,1,1
263,-0.22,1644844513.5,P08,D03,1,1,1
264,-0.24,1644844513.515625,P08,D03,1,1,1
265,-0.26,1644844513.53125,P08,D03,1,1,1
266,-0.25,1644844513.546875,P08,D03,1,1,1
267,-0.13,1644844513.5625,P08,D03,1,1,1
268,0.1,1644844513.578125,P08,D03,1,1,1
269,0.39,1644844513.59375,P08,D03,1,1,1
270,0.65,1644844513.609375,P08,D03,1,1,1
271,0.81,1644844513.625,P08,D03,1,1,1
272,0.83,1644844513.640625,P08,D03,1,1,1
273,0.73,1644844513.65625,P08,D03,1,1,1
274,0.56,1644844513.671875,P08,D03,1,1,1
275,0.35,1644844513.6875,P08,D03,1,1,1
276,0.11,1644844513.703125,P08,D03,1,1,1
277,-0.17,1644844513.71875,P08,D03,1,1,1
278,-0.49,1644844513.734375,P08,D03,1,1,1
279,-0.78,1644844513.75,P08,D03,1,1,1
280,-0.95,1644844513.765625,P08,D03,1,1,1
281,-0.94,1644844513.78125,P08,D03,1,1,1
282,-0.75,1644844513.796875,P08,D03,1,1,1
283,-0.48,1644844513.8125,P08,D03,1,1,1
284,-0.25,1644844513.828125,P08,D03,1,1,1
285,-0.16,1644844513.84375,P08,D03,1,1,1
286,-0.2,1644844513.859375,P08,D03,1,1,1
287,-0.3,1644844513.875,P08,D03,1,1,1
288,-0.35,1644844513.890625,P08,D03,1,1,1
289,-0.28,1644844513.90625,P08,D03,1,1,1
290,-0.13,1644844513.921875,P08,D03,1,1,1
291,0.04,1644844513.9375,P08,D03,1,1,1
292,0.13,1644844513.953125,P08,D03,1,1,1
293,0.1,1644844513.96875,P08,D03,1,1,1
294,-0.01,1644844513.984375,P08,D03,1,1,1
295,-0.15,1644844514.0,P08,D03,1,1,1
296,-0.25,1644844514.015625,P08,D03,1,1,1
297,-0.28,1644844514.03125,P08,D03,1,1,1
298,-0.28,1644844514.046875,P08,D03,1,1,1
299,-0.27,1644844514.0625,P08,D03,1,1,1
300,-0.3,1644844514.078125,P08,D03,1,1,1
301,-0.36,1644844514.09375,P08,D03,1,1,1
302,-0.44,1644844514.109375,P08,D03,1,1,1
303,-0.49,1644844514.125,P08,D03,1,1,1
304,-0.45,1644844514.140625,P08,D03,1,1,1
305,-0.32,1644844514.15625,P08,D03,1,1,1
306,-0.1,1644844514.171875,P08,D03,1,1,1
307,0.15,1644844514.1875,P08,D03,1,1,1
308,0.37,1644844514.203125,P08,D03,1,1,1
309,0.49,1644844514.21875,P08,D03,1,1,1
310,0.45,1644844514.234375,P08,D03,1,1,1
311,0.27,1644844514.25,P08,D03,1,1,1
312,0.0,1644844514.265625,P08,D03,1,1,1
313,-0.24,1644844514.28125,P08,D03,1,1,1
314,-0.37,1644844514.296875,P08,D03,1,1,1
315,-0.35,1644844514.3125,P08,D03,1,1,1
316,-0.22,1644844514.328125,P08,D03,1,1,1
317,-0.14,1644844514.34375,P08,D03,1,1,1
318,-0.23,1644844514.359375,P08,D03,1,1,1
319,-0.52,1644844514.375,P08,D03,1,1,1
320,-0.92,1644844514.390625,P08,D03,1,1,1
321,-1.27,1644844514.40625,P08,D03,1,1,1
322,-1.38,1644844514.421875,P08,D03,1,1,1
323,-1.2,1644844514.4375,P08,D03,1,1,1
324,-0.77,1644844514.453125,P08,D03,1,1,1
325,-0.21,1644844514.46875,P08,D03,1,1,1
326,0.34,1644844514.484375,P08,D03,1,1,1
327,0.82,1644844514.5,P08,D03,1,1,1
328,1.2,1644844514.515625,P08,D03,1,1,1
329,1.51,1644844514.53125,P08,D03,1,1,1
330,1.72,1644844514.546875,P08,D03,1,1,1
331,1.81,1644844514.5625,P08,D03,1,1,1
332,1.72,1644844514.578125,P08,D03,1,1,1
333,1.47,1644844514.59375,P08,D03,1,1,1
334,1.1,1644844514.609375,P08,D03,1,1,1
335,0.73,1644844514.625,P08,D03,1,1,1
336,0.43,1644844514.640625,P08,D03,1,1,1
337,0.28,1644844514.65625,P08,D03,1,1,1
338,0.29,1644844514.671875,P08,D03,1,1,1
339,0.44,1644844514.6875,P08,D03,1,1,1
340,0.68,1644844514.703125,P08,D03,1,1,1
341,0.96,1644844514.71875,P08,D03,1,1,1
342,1.22,1644844514.734375,P08,D03,1,1,1
343,1.42,1644844514.75,P08,D03,1,1,1
344,1.54,1644844514.765625,P08,D03,1,1,1
345,1.59,1644844514.78125,P08,D03,1,1,1
346,1.59,1644844514.796875,P08,D03,1,1,1
347,1.58,1644844514.8125,P08,D03,1,1,1
348,1.58,1644844514.828125,P08,D03,1,1,1
349,1.58,1644844514.84375,P08,D03,1,1,1
350,1.53,1644844514.859375,P08,D03,1,1,1
351,1.4,1644844514.875,P08,D03,1,1,1
352,1.18,1644844514.890625,P08,D03,1,1,1
353,0.92,1644844514.90625,P08,D03,1,1,1
354,0.71,1644844514.921875,P08,D03,1,1,1
355,0.61,1644844514.9375,P08,D03,1,1,1
356,0.6,1644844514.953125,P08,D03,1,1,1
357,0.62,1644844514.96875,P08,D03,1,1,1
358,0.55,1644844514.984375,P08,D03,1,1,1
359,0.32,1644844515.0,P08,D03,1,1,1
360,-0.02,1644844515.015625,P08,D03,1,1,1
361,-0.39,1644844515.03125,P08,D03,1,1,1
362,-0.66,1644844515.046875,P08,D03,1,1,1
363,-0.76,1644844515.0625,P08,D03,1,1,1
364,-0.7,1644844515.078125,P08,D03,1,1,1
365,-0.56,1644844515.09375,P08,D03,1,1,1
366,-0.43,1644844515.109375,P08,D03,1,1,1
367,-0.4,1644844515.125,P08,D03,1,1,1
368,-0.46,1644844515.140625,P08,D03,1,1,1
369,-0.58,1644844515.15625,P08,D03,1,1,1
370,-0.69,1644844515.171875,P08,D03,1,1,1
371,-0.73,1644844515.1875,P08,D03,1,1,1
372,-0.67,1644844515.203125,P08,D03,1,1,1
373,-0.53,1644844515.21875,P08,D03,1,1,1
374,-0.34,1644844515.234375,P08,D03,1,1,1
375,-0.19,1644844515.25,P08,D03,1,1,1
376,-0.16,1644844515.265625,P08,D03,1,1,1
377,-0.29,1644844515.28125,P08,D03,1,1,1
378,-0.59,1644844515.296875,P08,D03,1,1,1
379,-0.97,1644844515.3125,P08,D03,1,1,1
380,-1.31,1644844515.328125,P08,D03,1,1,1
381,-1.48,1644844515.34375,P08,D03,1,1,1
382,-1.4,1644844515.359375,P08,D03,1,1,1
383,-1.08,1644844515.375,P08,D03,1,1,1
384,-0.66,1644844515.390625,P08,D03,1,1,1
385,-0.29,1644844515.40625,P08,D03,1,1,1
386,-0.15,1644844515.421875,P08,D03,1,1,1
387,-0.27,1644844515.4375,P08,D03,1,1,1
388,-0.57,1644844515.453125,P08,D03,1,1,1
389,-0.89,1644844515.46875,P08,D03,1,1,1
390,-1.1,1644844515.484375,P08,D03,1,1,1
391,-1.17,1644844515.5,P08,D03,1,1,1
392,-1.2,1644844515.515625,P08,D03,1,1,1
393,-1.35,1644844515.53125,P08,D03,1,1,1
394,-1.71,1644844515.546875,P08,D03,1,1,1
395,-2.24,1644844515.5625,P08,D03,1,1,1
396,-2.76,1644844515.578125,P08,D03,1,1,1
397,-3.09,1644844515.59375,P08,D03,1,1,1
398,-3.11,1644844515.609375,P08,D03,1,1,1
399,-2.85,1644844515.625,P08,D03,1,1,1
400,-2.43,1644844515.640625,P08,D03,1,1,1
401,-2.03,1644844515.65625,P08,D03,1,1,1
402,-1.74,1644844515.671875,P08,D03,1,1,1
403,-1.58,1644844515.6875,P08,D03,1,1,1
404,-1.5,1644844515.703125,P08,D03,1,1,1
405,-1.42,1644844515.71875,P08,D03,1,1,1
406,-1.26,1644844515.734375,P08,D03,1,1,1
407,-0.99,1644844515.75,P08,D03,1,1,1
408,-0.61,1644844515.765625,P08,D03,1,1,1
409,-0.16,1644844515.78125,P08,D03,1,1,1
410,0.28,1644844515.796875,P08,D03,1,1,1
411,0.65,1644844515.8125,P08,D03,1,1,1
412,0.91,1644844515.828125,P08,D03,1,1,1
413,1.09,1644844515.84375,P08,D03,1,1,1
414,1.23,1644844515.859375,P08,D03,1,1,1
415,1.35,1644844515.875,P08,D03,1,1,1
416,1.4,1644844515.890625,P08,D03,1,1,1
417,1.32,1644844515.90625,P08,D03,1,1,1
418,1.07,1644844515.921875,P08,D03,1,1,1
419,0.69,1644844515.9375,P08,D03,1,1,1
420,0.33,1644844515.953125,P08,D03,1,1,1
421,0.14,1644844515.96875,P08,D03,1,1,1
422,0.2,1644844515.984375,P08,D03,1,1,1
423,0.42,1644844516.0,P08,D03,1,1,1
424,0.64,1644844516.015625,P08,D03,1,1,1
425,0.7,1644844516.03125,P08,D03,1,1,1
426,0.53,1644844516.046875,P08,D03,1,1,1
427,0.23,1644844516.0625,P08,D03,1,1,1
428,-0.06,1644844516.078125,P08,D03,1,1,1
429,-0.25,1644844516.09375,P08,D03,1,1,1
430,-0.32,1644844516.109375,P08,D03,1,1,1
431,-0.36,1644844516.125,P08,D03,1,1,1
432,-0.46,1644844516.140625,P08,D03,1,1,1
433,-0.64,1644844516.15625,P08,D03,1,1,1
434,-0.81,1644844516.171875,P08,D03,1,1,1
435,-0.83,1644844516.1875,P08,D03,1,1,1
436,-0.58,1644844516.203125,P08,D03,1,1,1
437,-0.07,1644844516.21875,P08,D03,1,1,1
438,0.62,1644844516.234375,P08,D03,1,1,1
439,1.31,1644844516.25,P08,D03,1,1,1
440,1.82,1644844516.265625,P08,D03,1,1,1
441,2.08,1644844516.28125,P08,D03,1,1,1
442,2.09,1644844516.296875,P08,D03,1,1,1
443,1.92,1644844516.3125,P08,D03,1,1,1
444,1.68,1644844516.328125,P08,D03,1,1,1
445,1.46,1644844516.34375,P08,D03,1,1,1
446,1.29,1644844516.359375,P08,D03,1,1,1
447,1.18,1644844516.375,P08,D03,1,1,1
448,1.12,1644844516.390625,P08,D03,1,1,1
449,1.06,1644844516.40625,P08,D03,1,1,1
450,0.98,1644844516.421875,P08,D03,1,1,1
451,0.85,1644844516.4375,P08,D03,1,1,1
452,0.67,1644844516.453125,P08,D03,1,1,1
453,0.46,1644844516.46875,P08,D03,1,1,1
454,0.24,1644844516.484375,P08,D03,1,1,1
455,0.05,1644844516.5,P08,D03,1,1,1
456,-0.07,1644844516.515625,P08,D03,1,1,1
457,-0.09,1644844516.53125,P08,D03,1,1,1
458,-0.05,1644844516.546875,P08,D03,1,1,1
459,0.05,1644844516.5625,P08,D03,1,1,1
460,0.18,1644844516.578125,P08,D03,1,1,1
461,0.3,1644844516.59375,P08,D03,1,1,1
462,0.39,1644844516.609375,P08,D03,1,1,1
463,0.43,1644844516.625,P08,D03,1,1,1
464,0.41,1644844516.640625,P08,D03,1,1,1
465,0.36,1644844516.65625,P08,D03,1,1,1
466,0.32,1644844516.671875,P08,D03,1,1,1
467,0.34,1644844516.6875,P08,D03,1,1,1
468,0.4,1644844516.703125,P08,D03,1,1,1
469,0.47,1644844516.71875,P08,D03,1,1,1
470,0.5,1644844516.734375,P08,D03,1,1,1
471,0.49,1644844516.75,P08,D03,1,1,1
472,0.46,1644844516.765625,P08,D03,1,1,1
473,0.45,1644844516.78125,P08,D03,1,1,1
474,0.47,1644844516.796875,P08,D03,1,1,1
475,0.49,1644844516.8125,P08,D03,1,1,1
476,0.44,1644844516.828125,P08,D03,1,1,1
477,0.27,1644844516.84375,P08,D03,1,1,1
478,-0.01,1644844516.859375,P08,D03,1,1,1
479,-0.33,1644844516.875,P08,D03,1,1,1
480,-0.59,1644844516.890625,P08,D03,1,1,1
481,-0.7,1644844516.90625,P08,D03,1,1,1
482,-0.64,1644844516.921875,P08,D03,1,1,1
483,-0.48,1644844516.9375,P08,D03,1,1,1
484,-0.29,1644844516.953125,P08,D03,1,1,1
485,-0.14,1644844516.96875,P08,D03,1,1,1
486,-0.09,1644844516.984375,P08,D03,1,1,1
487,-0.16,1644844517.0,P08,D03,1,1,1
488,-0.35,1644844517.015625,P08,D03,1,1,1
489,-0.61,1644844517.03125,P08,D03,1,1,1
490,-0.87,1644844517.046875,P08,D03,1,1,1
491,-1.03,1644844517.0625,P08,D03,1,1,1
492,-1.02,1644844517.078125,P08,D03,1,1,1
493,-0.83,1644844517.09375,P08,D03,1,1,1
494,-0.5,1644844517.109375,P08,D03,1,1,1
495,-0.16,1644844517.125,P08,D03,1,1,1
496,0.08,1644844517.140625,P08,D03,1,1,1
497,0.18,1644844517.15625,P08,D03,1,1,1
498,0.16,1644844517.171875,P08,D03,1,1,1
499,0.08,1644844517.1875,P08,D03,1,1,1
500,0.0,1644844517.203125,P08,D03,1,1,1
501,-0.04,1644844517.21875,P08,D03,1,1,1
502,-0.07,1644844517.234375,P08,D03,1,1,1
503,-0.08,1644844517.25,P08,D03,1,1,1
504,-0.06,1644844517.265625,P08,D03,1,1,1
505,0.02,1644844517.28125,P08,D03,1,1,1
506,0.18,1644844517.296875,P08,D03,1,1,1
507,0.37,1644844517.3125,P08,D03,1,1,1
508,0.5,1644844517.328125,P08,D03,1,1,1
509,0.47,1644844517.34375,P08,D03,1,1,1
510,0.2,1644844517.359375,P08,D03,1,1,1
511,-0.25,1644844517.375,P08,D03,1,1,1
512,-0.74,1644844517.390625,P08,D03,1,1,1
513,-1.07,1644844517.40625,P08,D03,1,1,1
514,-1.13,1644844517.421875,P08,D03,1,1,1
515,-0.91,1644844517.4375,P08,D03,1,1,1
516,-0.56,1644844517.453125,P08,D03,1,1,1
517,-0.24,1644844517.46875,P08,D03,1,1,1
518,-0.11,1644844517.484375,P08,D03,1,1,1
519,-0.19,1644844517.5,P08,D03,1,1,1
520,-0.37,1644844517.515625,P08,D03,1,1,1
521,-0.5,1644844517.53125,P08,D03,1,1,1
522,-0.47,1644844517.546875,P08,D03,1,1,1
523,-0.26,1644844517.5625,P08,D03,1,1,1
524,0.02,1644844517.578125,P08,D03,1,1,1
525,0.22,1644844517.59375,P08,D03,1,1,1
526,0.28,1644844517.609375,P08,D03,1,1,1
527,0.17,1644844517.625,P08,D03,1,1,1
528,-0.0,1644844517.640625,P08,D03,1,1,1
529,-0.14,1644844517.65625,P08,D03,1,1,1
530,-0.16,1644844517.671875,P08,D03,1,1,1
531,-0.08,1644844517.6875,P08,D03,1,1,1
532,0.08,1644844517.703125,P08,D03,1,1,1
533,0.24,1644844517.71875,P08,D03,1,1,1
534,0.39,1644844517.734375,P08,D03,1,1,1
535,0.5,1644844517.75,P08,D03,1,1,1
536,0.61,1644844517.765625,P08,D03,1,1,1
537,0.7,1644844517.78125,P08,D03,1,1,1
538,0.79,1644844517.796875,P08,D03,1,1,1
539,0.85,1644844517.8125,P08,D03,1,1,1
540,0.85,1644844517.828125,P08,D03,1,1,1
541,0.76,1644844517.84375,P08,D03,1,1,1
542,0.57,1644844517.859375,P08,D03,1,1,1
543,0.3,1644844517.875,P08,D03,1,1,1
544,-0.0,1644844517.890625,P08,D03,1,1,1
545,-0.3,1644844517.90625,P08,D03,1,1,1
546,-0.54,1644844517.921875,P08,D03,1,1,1
547,-0.74,1644844517.9375,P08,D03,1,1,1
548,-0.91,1644844517.953125,P08,D03,1,1,1
549,-1.06,1644844517.96875,P08,D03,1,1,1
550,-1.23,1644844517.984375,P08,D03,1,1,1
551,-1.39,1644844518.0,P08,D03,1,1,1
552,-1.54,1644844518.015625,P08,D03,1,1,1
553,-1.62,1644844518.03125,P08,D03,1,1,1
554,-1.63,1644844518.046875,P08,D03,1,1,1
555,-1.58,1644844518.0625,P08,D03,1,1,1
556,-1.52,1644844518.078125,P08,D03,1,1,1
557,-1.48,1644844518.09375,P08,D03,1,1,1
558,-1.48,1644844518.109375,P08,D03,1,1,1
559,-1.5,1644844518.125,P08,D03,1,1,1
560,-1.44,1644844518.140625,P08,D03,1,1,1
561,-1.25,1644844518.15625,P08,D03,1,1,1
562,-0.89,1644844518.171875,P08,D03,1,1,1
563,-0.42,1644844518.1875,P08,D03,1,1,1
564,0.06,1644844518.203125,P08,D03,1,1,1
565,0.41,1644844518.21875,P08,D03,1,1,1
566,0.57,1644844518.234375,P08,D03,1,1,1
567,0.5,1644844518.25,P08,D03,1,1,1
568,0.27,1644844518.265625,P08,D03,1,1,1
569,-0.06,1644844518.28125,P08,D03,1,1,1
570,-0.4,1644844518.296875,P08,D03,1,1,1
571,-0.71,1644844518.3125,P08,D03,1,1,1
572,-0.97,1644844518.328125,P08,D03,1,1,1
573,-1.17,1644844518.34375,P08,D03,1,1,1
574,-1.33,1644844518.359375,P08,D03,1,1,1
575,-1.48,1644844518.375,P08,D03,1,1,1
576,-1.64,1644844518.390625,P08,D03,1,1,1
577,-1.82,1644844518.40625,P08,D03,1,1,1
578,-2.02,1644844518.421875,P08,D03,1,1,1
579,-2.23,1644844518.4375,P08,D03,1,1,1
580,-2.42,1644844518.453125,P08,D03,1,1,1
581,-2.56,1644844518.46875,P08,D03,1,1,1
582,-2.67,1644844518.484375,P08,D03,1,1,1
583,-2.73,1644844518.5,P08,D03,1,1,1
584,-2.77,1644844518.515625,P08,D03,1,1,1
585,-2.77,1644844518.53125,P08,D03,1,1,1
586,-2.76,1644844518.546875,P08,D03,1,1,1
587,-2.74,1644844518.5625,P08,D03,1,1,1
588,-2.68,1644844518.578125,P08,D03,1,1,1
589,-2.57,1644844518.59375,P08,D03,1,1,1
590,-2.35,1644844518.609375,P08,D03,1,1,1
591,-1.96,1644844518.625,P08,D03,1,1,1
592,-1.39,1644844518.640625,P08,D03,1,1,1
593,-0.64,1644844518.65625,P08,D03,1,1,1
594,0.22,1644844518.671875,P08,D03,1,1,1
595,1.15,1644844518.6875,P08,D03,1,1,1
596,2.09,1644844518.703125,P08,D03,1,1,1
597,3.03,1644844518.71875,P08,D03,1,1,1
598,3.98,1644844518.734375,P08,D03,1,1,1
599,4.91,1644844518.75,P08,D03,1,1,1
600,5.78,1644844518.765625,P08,D03,1,1,1
601,6.55,1644844518.78125,P08,D03,1,1,1
602,7.13,1644844518.796875,P08,D03,1,1,1
603,7.44,1644844518.8125,P08,D03,1,1,1
604,7.42,1644844518.828125,P08,D03,1,1,1
605,7.04,1644844518.84375,P08,D03,1,1,1
606,6.31,1644844518.859375,P08,D03,1,1,1
607,5.36,1644844518.875,P08,D03,1,1,1
608,4.36,1644844518.890625,P08,D03,1,1,1
609,3.5,1644844518.90625,P08,D03,1,1,1
610,2.91,1644844518.921875,P08,D03,1,1,1
611,2.6,1644844518.9375,P08,D03,1,1,1
612,2.47,1644844518.953125,P08,D03,1,1,1
613,2.36,1644844518.96875,P08,D03,1,1,1
614,2.17,1644844518.984375,P08,D03,1,1,1
615,1.87,1644844519.0,P08,D03,1,1,1
616,1.54,1644844519.015625,P08,D03,1,1,1
617,1.22,1644844519.03125,P08,D03,1,1,1
618,0.93,1644844519.046875,P08,D03,1,1,1
619,0.63,1644844519.0625,P08,D03,1,1,1
620,0.25,1644844519.078125,P08,D03,1,1,1
621,-0.19,1644844519.09375,P08,D03,1,1,1
622,-0.66,1644844519.109375,P08,D03,1,1,1
623,-1.03,1644844519.125,P08,D03,1,1,1
624,-1.24,1644844519.140625,P08,D03,1,1,1
625,-1.26,1644844519.15625,P08,D03,1,1,1
626,-1.1,1644844519.171875,P08,D03,1,1,1
627,-0.84,1644844519.1875,P08,D03,1,1,1
628,-0.59,1644844519.203125,P08,D03,1,1,1
629,-0.41,1644844519.21875,P08,D03,1,1,1
630,-0.36,1644844519.234375,P08,D03,1,1,1
631,-0.43,1644844519.25,P08,D03,1,1,1
632,-0.55,1644844519.265625,P08,D03,1,1,1
633,-0.64,1644844519.28125,P08,D03,1,1,1
634,-0.68,1644844519.296875,P08,D03,1,1,1
635,-0.65,1644844519.3125,P08,D03,1,1,1
636,-0.62,1644844519.328125,P08,D03,1,1,1
637,-0.63,1644844519.34375,P08,D03,1,1,1
638,-0.69,1644844519.359375,P08,D03,1,1,1
639,-0.78,1644844519.375,P08,D03,1,1,1
640,-0.81,1644844519.390625,P08,D03,1,1,1
641,-0.75,1644844519.40625,P08,D03,1,1,1
642,-0.58,1644844519.421875,P08,D03,1,1,1
643,-0.38,1644844519.4375,P08,D03,1,1,1
644,-0.21,1644844519.453125,P08,D03,1,1,1
645,-0.1,1644844519.46875,P08,D03,1,1,1
646,-0.06,1644844519.484375,P08,D03,1,1,1
647,-0.05,1644844519.5,P08,D03,1,1,1
648,0.0,1644844519.515625,P08,D03,1,1,1
649,0.14,1644844519.53125,P08,D03,1,1,1
650,0.39,1644844519.546875,P08,D03,1,1,1
651,0.73,1644844519.5625,P08,D03,1,1,1
652,1.06,1644844519.578125,P08,D03,1,1,1
653,1.27,1644844519.59375,P08,D03,1,1,1
654,1.25,1644844519.609375,P08,D03,1,1,1
655,0.98,1644844519.625,P08,D03,1,1,1
656,0.52,1644844519.640625,P08,D03,1,1,1
657,0.05,1644844519.65625,P08,D03,1,1,1
658,-0.24,1644844519.671875,P08,D03,1,1,1
659,-0.27,1644844519.6875,P08,D03,1,1,1
660,-0.06,1644844519.703125,P08,D03,1,1,1
661,0.26,1644844519.71875,P08,D03,1,1,1
662,0.56,1644844519.734375,P08,D03,1,1,1
663,0.74,1644844519.75,P08,D03,1,1,1
664,0.81,1644844519.765625,P08,D03,1,1,1
665,0.79,1644844519.78125,P08,D03,1,1,1
666,0.74,1644844519.796875,P08,D03,1,1,1
667,0.65,1644844519.8125,P08,D03,1,1,1
668,0.48,1644844519.828125,P08,D03,1,1,1
669,0.24,1644844519.84375,P08,D03,1,1,1
670,-0.05,1644844519.859375,P08,D03,1,1,1
671,-0.29,1644844519.875,P08,D03,1,1,1
672,-0.42,1644844519.890625,P08,D03,1,1,1
673,-0.41,1644844519.90625,P08,D03,1,1,1
674,-0.32,1644844519.921875,P08,D03,1,1,1
675,-0.23,1644844519.9375,P08,D03,1,1,1
676,-0.25,1644844519.953125,P08,D03,1,1,1
677,-0.41,1644844519.96875,P08,D03,1,1,1
678,-0.69,1644844519.984375,P08,D03,1,1,1
679,-1.0,1644844520.0,P08,D03,1,1,1
680,-1.25,1644844520.015625,P08,D03,1,1,1
681,-1.37,1644844520.03125,P08,D03,1,1,1
682,-1.33,1644844520.046875,P08,D03,1,1,1
683,-1.15,1644844520.0625,P08,D03,1,1,1
684,-0.91,1644844520.078125,P08,D03,1,1,1
685,-0.67,1644844520.09375,P08,D03,1,1,1
686,-0.5,1644844520.109375,P08,D03,1,1,1
687,-0.41,1644844520.125,P08,D03,1,1,1
688,-0.37,1644844520.140625,P08,D03,1,1,1
689,-0.35,1644844520.15625,P08,D03,1,1,1
690,-0.35,1644844520.171875,P08,D03,1,1,1
691,-0.37,1644844520.1875,P08,D03,1,1,1
692,-0.47,1644844520.203125,P08,D03,1,1,1
693,-0.63,1644844520.21875,P08,D03,1,1,1
694,-0.78,1644844520.234375,P08,D03,1,1,1
695,-0.82,1644844520.25,P08,D03,1,1,1
696,-0.66,1644844520.265625,P08,D03,1,1,1
697,-0.28,1644844520.28125,P08,D03,1,1,1
698,0.19,1644844520.296875,P08,D03,1,1,1
699,0.56,1644844520.3125,P08,D03,1,1,1
700,0.66,1644844520.328125,P08,D03,1,1,1
701,0.43,1644844520.34375,P08,D03,1,1,1
702,-0.02,1644844520.359375,P08,D03,1,1,1
703,-0.48,1644844520.375,P08,D03,1,1,1
704,-0.76,1644844520.390625,P08,D03,1,1,1
705,-0.74,1644844520.40625,P08,D03,1,1,1
706,-0.43,1644844520.421875,P08,D03,1,1,1
707,0.01,1644844520.4375,P08,D03,1,1,1
708,0.44,1644844520.453125,P08,D03,1,1,1
709,0.74,1644844520.46875,P08,D03,1,1,1
710,0.87,1644844520.484375,P08,D03,1,1,1
711,0.84,1644844520.5,P08,D03,1,1,1
712,0.71,1644844520.515625,P08,D03,1,1,1
713,0.5,1644844520.53125,P08,D03,1,1,1
714,0.26,1644844520.546875,P08,D03,1,1,1
715,0.04,1644844520.5625,P08,D03,1,1,1
716,-0.12,1644844520.578125,P08,D03,1,1,1
717,-0.19,1644844520.59375,P08,D03,1,1,1
718,-0.18,1644844520.609375,P08,D03,1,1,1
719,-0.13,1644844520.625,P08,D03,1,1,1
720,-0.09,1644844520.640625,P08,D03,1,1,1
721,-0.07,1644844520.65625,P08,D03,1,1,1
722,-0.05,1644844520.671875,P08,D03,1,1,1
723,-0.01,1644844520.6875,P08,D03,1,1,1
724,0.04,1644844520.703125,P08,D03,1,1,1
725,0.04,1644844520.71875,P08,D03,1,1,1
726,-0.06,1644844520.734375,P08,D03,1,1,1
727,-0.28,1644844520.75,P08,D03,1,1,1
728,-0.55,1644844520.765625,P08,D03,1,1,1
729,-0.75,1644844520.78125,P08,D03,1,1,1
730,-0.77,1644844520.796875,P08,D03,1,1,1
731,-0.58,1644844520.8125,P08,D03,1,1,1
732,-0.29,1644844520.828125,P08,D03,1,1,1
733,-0.06,1644844520.84375,P08,D03,1,1,1
734,0.01,1644844520.859375,P08,D03,1,1,1
735,-0.07,1644844520.875,P08,D03,1,1,1
736,-0.2,1644844520.890625,P08,D03,1,1,1
737,-0.21,1644844520.90625,P08,D03,1,1,1
738,-0.01,1644844520.921875,P08,D03,1,1,1
739,0.35,1644844520.9375,P08,D03,1,1,1
740,0.72,1644844520.953125,P08,D03,1,1,1
741,0.95,1644844520.96875,P08,D03,1,1,1
742,0.95,1644844520.984375,P08,D03,1,1,1
743,0.74,1644844521.0,P08,D03,1,1,1
744,0.43,1644844521.015625,P08,D03,1,1,1
745,0.12,1644844521.03125,P08,D03,1,1,1
746,-0.12,1644844521.046875,P08,D03,1,1,1
747,-0.29,1644844521.0625,P08,D03,1,1,1
748,-0.43,1644844521.078125,P08,D03,1,1,1
749,-0.52,1644844521.09375,P08,D03,1,1,1
750,-0.54,1644844521.109375,P08,D03,1,1,1
751,-0.43,1644844521.125,P08,D03,1,1,1
752,-0.22,1644844521.140625,P08,D03,1,1,1
753,0.02,1644844521.15625,P08,D03,1,1,1
754,0.17,1644844521.171875,P08,D03,1,1,1
755,0.16,1644844521.1875,P08,D03,1,1,1
756,0.01,1644844521.203125,P08,D03,1,1,1
757,-0.2,1644844521.21875,P08,D03,1,1,1
758,-0.34,1644844521.234375,P08,D03,1,1,1
759,-0.36,1644844521.25,P08,D03,1,1,1
760,-0.28,1644844521.265625,P08,D03,1,1,1
761,-0.19,1644844521.28125,P08,D03,1,1,1
762,-0.2,1644844521.296875,P08,D03,1,1,1
763,-0.36,1644844521.3125,P08,D03,1,1,1
764,-0.59,1644844521.328125,P08,D03,1,1,1
765,-0.73,1644844521.34375,P08,D03,1,1,1
766,-0.65,1644844521.359375,P08,D03,1,1,1
767,-0.29,1644844521.375,P08,D03,1,1,1
768,0.25,1644844521.390625,P08,D03,1,1,1
769,0.78,1644844521.40625,P08,D03,1,1,1
770,1.11,1644844521.421875,P08,D03,1,1,1
771,1.11,1644844521.4375,P08,D03,1,1,1
772,0.81,1644844521.453125,P08,D03,1,1,1
773,0.35,1644844521.46875,P08,D03,1,1,1
774,-0.08,1644844521.484375,P08,D03,1,1,1
775,-0.33,1644844521.5,P08,D03,1,1,1
776,-0.38,1644844521.515625,P08,D03,1,1,1
777,-0.29,1644844521.53125,P08,D03,1,1,1
778,-0.12,1644844521.546875,P08,D03,1,1,1
779,0.08,1644844521.5625,P08,D03,1,1,1
780,0.31,1644844521.578125,P08,D03,1,1,1
781,0.58,1644844521.59375,P08,D03,1,1,1
782,0.87,1644844521.609375,P08,D03,1,1,1
783,1.05,1644844521.625,P08,D03,1,1,1
784,1.03,1644844521.640625,P08,D03,1,1,1
785,0.76,1644844521.65625,P08,D03,1,1,1
786,0.31,1644844521.671875,P08,D03,1,1,1
787,-0.14,1644844521.6875,P08,D03,1,1,1
788,-0.39,1644844521.703125,P08,D03,1,1,1
789,-0.35,1644844521.71875,P08,D03,1,1,1
790,-0.06,1644844521.734375,P08,D03,1,1,1
791,0.31,1644844521.75,P08,D03,1,1,1
792,0.58,1644844521.765625,P08,D03,1,1,1
793,0.6,1644844521.78125,P08,D03,1,1,1
794,0.37,1644844521.796875,P08,D03,1,1,1
795,-0.02,1644844521.8125,P08,D03,1,1,1
796,-0.45,1644844521.828125,P08,D03,1,1,1
797,-0.78,1644844521.84375,P08,D03,1,1,1
798,-0.97,1644844521.859375,P08,D03,1,1,1
799,-0.99,1644844521.875,P08,D03,1,1,1
800,-0.89,1644844521.890625,P08,D03,1,1,1
801,-0.74,1644844521.90625,P08,D03,1,1,1
802,-0.63,1644844521.921875,P08,D03,1,1,1
803,-0.59,1644844521.9375,P08,D03,1,1,1
804,-0.64,1644844521.953125,P08,D03,1,1,1
805,-0.72,1644844521.96875,P08,D03,1,1,1
806,-0.74,1644844521.984375,P08,D03,1,1,1
807,-0.66,1644844522.0,P08,D03,1,1,1
808,-0.46,1644844522.015625,P08,D03,1,1,1
809,-0.2,1644844522.03125,P08,D03,1,1,1
810,0.02,1644844522.046875,P08,D03,1,1,1
811,0.14,1644844522.0625,P08,D03,1,1,1
812,0.17,1644844522.078125,P08,D03,1,1,1
813,0.19,1644844522.09375,P08,D03,1,1,1
814,0.3,1644844522.109375,P08,D03,1,1,1
815,0.52,1644844522.125,P08,D03,1,1,1
816,0.81,1644844522.140625,P08,D03,1,1,1
817,1.04,1644844522.15625,P08,D03,1,1,1
818,1.14,1644844522.171875,P08,D03,1,1,1
819,1.08,1644844522.1875,P08,D03,1,1,1
820,0.93,1644844522.203125,P08,D03,1,1,1
821,0.77,1644844522.21875,P08,D03,1,1,1
822,0.69,1644844522.234375,P08,D03,1,1,1
823,0.67,1644844522.25,P08,D03,1,1,1
824,0.67,1644844522.265625,P08,D03,1,1,1
825,0.6,1644844522.28125,P08,D03,1,1,1
826,0.4,1644844522.296875,P08,D03,1,1,1
827,0.09,1644844522.3125,P08,D03,1,1,1
828,-0.3,1644844522.328125,P08,D03,1,1,1
829,-0.68,1644844522.34375,P08,D03,1,1,1
830,-0.98,1644844522.359375,P08,D03,1,1,1
831,-1.15,1644844522.375,P08,D03,1,1,1
832,-1.18,1644844522.390625,P08,D03,1,1,1
833,-1.06,1644844522.40625,P08,D03,1,1,1
834,-0.85,1644844522.421875,P08,D03,1,1,1
835,-0.61,1644844522.4375,P08,D03,1,1,1
836,-0.4,1644844522.453125,P08,D03,1,1,1
837,-0.27,1644844522.46875,P08,D03,1,1,1
838,-0.21,1644844522.484375,P08,D03,1,1,1
839,-0.17,1644844522.5,P08,D03,1,1,1
840,-0.13,1644844522.515625,P08,D03,1,1,1
841,-0.07,1644844522.53125,P08,D03,1,1,1
842,0.01,1644844522.546875,P08,D03,1,1,1
843,0.07,1644844522.5625,P08,D03,1,1,1
844,0.09,1644844522.578125,P08,D03,1,1,1
845,0.11,1644844522.59375,P08,D03,1,1,1
846,0.19,1644844522.609375,P08,D03,1,1,1
847,0.35,1644844522.625,P08,D03,1,1,1
848,0.57,1644844522.640625,P08,D03,1,1,1
849,0.76,1644844522.65625,P08,D03,1,1,1
850,0.82,1644844522.671875,P08,D03,1,1,1
851,0.71,1644844522.6875,P08,D03,1,1,1
852,0.47,1644844522.703125,P08,D03,1,1,1
853,0.2,1644844522.71875,P08,D03,1,1,1
854,0.01,1644844522.734375,P08,D03,1,1,1
855,-0.05,1644844522.75,P08,D03,1,1,1
856,-0.01,1644844522.765625,P08,D03,1,1,1
857,0.04,1644844522.78125,P08,D03,1,1,1
858,0.03,1644844522.796875,P08,D03,1,1,1
859,-0.06,1644844522.8125,P08,D03,1,1,1
860,-0.19,1644844522.828125,P08,D03,1,1,1
861,-0.33,1644844522.84375,P08,D03,1,1,1
862,-0.45,1644844522.859375,P08,D03,1,1,1
863,-0.53,1644844522.875,P08,D03,1,1,1
864,-0.59,1644844522.890625,P08,D03,1,1,1
865,-0.63,1644844522.90625,P08,D03,1,1,1
866,-0.61,1644844522.921875,P08,D03,1,1,1
867,-0.53,1644844522.9375,P08,D03,1,1,1
868,-0.4,1644844522.953125,P08,D03,1,1,1
869,-0.24,1644844522.96875,P08,D03,1,1,1
870,-0.12,1644844522.984375,P08,D03,1,1,1
871,-0.08,1644844523.0,P08,D03,1,1,1
872,-0.14,1644844523.015625,P08,D03,1,1,1
873,-0.29,1644844523.03125,P08,D03,1,1,1
874,-0.47,1644844523.046875,P08,D03,1,1,1
875,-0.63,1644844523.0625,P08,D03,1,1,1
876,-0.69,1644844523.078125,P08,D03,1,1,1
877,-0.61,1644844523.09375,P08,D03,1,1,1
878,-0.36,1644844523.109375,P08,D03,1,1,1
879,0.02,1644844523.125,P08,D03,1,1,1
880,0.42,1644844523.140625,P08,D03,1,1,1
881,0.73,1644844523.15625,P08,D03,1,1,1
882,0.86,1644844523.171875,P08,D03,1,1,1
883,0.8,1644844523.1875,P08,D03,1,1,1
884,0.62,1644844523.203125,P08,D03,1,1,1
885,0.45,1644844523.21875,P08,D03,1,1,1
886,0.4,1644844523.234375,P08,D03,1,1,1
887,0.55,1644844523.25,P08,D03,1,1,1
888,0.86,1644844523.265625,P08,D03,1,1,1
889,1.26,1644844523.28125,P08,D03,1,1,1
890,1.62,1644844523.296875,P08,D03,1,1,1
891,1.83,1644844523.3125,P08,D03,1,1,1
892,1.82,1644844523.328125,P08,D03,1,1,1
893,1.61,1644844523.34375,P08,D03,1,1,1
894,1.25,1644844523.359375,P08,D03,1,1,1
895,0.84,1644844523.375,P08,D03,1,1,1
896,0.49,1644844523.390625,P08,D03,1,1,1
897,0.27,1644844523.40625,P08,D03,1,1,1
898,0.18,1644844523.421875,P08,D03,1,1,1
899,0.18,1644844523.4375,P08,D03,1,1,1
900,0.21,1644844523.453125,P08,D03,1,1,1
901,0.22,1644844523.46875,P08,D03,1,1,1
902,0.19,1644844523.484375,P08,D03,1,1,1
903,0.13,1644844523.5,P08,D03,1,1,1
904,0.07,1644844523.515625,P08,D03,1,1,1
905,-0.01,1644844523.53125,P08,D03,1,1,1
906,-0.09,1644844523.546875,P08,D03,1,1,1
907,-0.19,1644844523.5625,P08,D03,1,1,1
908,-0.28,1644844523.578125,P08,D03,1,1,1
909,-0.33,1644844523.59375,P08,D03,1,1,1
910,-0.34,1644844523.609375,P08,D03,1,1,1
911,-0.32,1644844523.625,P08,D03,1,1,1
912,-0.3,1644844523.640625,P08,D03,1,1,1
913,-0.32,1644844523.65625,P08,D03,1,1,1
914,-0.4,1644844523.671875,P08,D03,1,1,1
915,-0.53,1644844523.6875,P08,D03,1,1,1
916,-0.7,1644844523.703125,P08,D03,1,1,1
917,-0.86,1644844523.71875,P08,D03,1,1,1
918,-0.99,1644844523.734375,P08,D03,1,1,1
919,-1.05,1644844523.75,P08,D03,1,1,1
920,-0.99,1644844523.765625,P08,D03,1,1,1
921,-0.78,1644844523.78125,P08,D03,1,1,1
922,-0.43,1644844523.796875,P08,D03,1,1,1
923,-0.04,1644844523.8125,P08,D03,1,1,1
924,0.26,1644844523.828125,P08,D03,1,1,1
925,0.34,1644844523.84375,P08,D03,1,1,1
926,0.17,1644844523.859375,P08,D03,1,1,1
927,-0.21,1644844523.875,P08,D03,1,1,1
928,-0.67,1644844523.890625,P08,D03,1,1,1
929,-1.07,1644844523.90625,P08,D03,1,1,1
930,-1.3,1644844523.921875,P08,D03,1,1,1
931,-1.33,1644844523.9375,P08,D03,1,1,1
932,-1.18,1644844523.953125,P08,D03,1,1,1
933,-0.9,1644844523.96875,P08,D03,1,1,1
934,-0.59,1644844523.984375,P08,D03,1,1,1
935,-0.3,1644844524.0,P08,D03,1,1,1
936,-0.11,1644844524.015625,P08,D03,1,1,1
937,-0.01,1644844524.03125,P08,D03,1,1,1
938,0.0,1644844524.046875,P08,D03,1,1,1
939,-0.04,1644844524.0625,P08,D03,1,1,1
940,-0.09,1644844524.078125,P08,D03,1,1,1
941,-0.14,1644844524.09375,P08,D03,1,1,1
942,-0.18,1644844524.109375,P08,D03,1,1,1
943,-0.22,1644844524.125,P08,D03,1,1,1
944,-0.25,1644844524.140625,P08,D03,1,1,1
945,-0.26,1644844524.15625,P08,D03,1,1,1
946,-0.23,1644844524.171875,P08,D03,1,1,1
947,-0.14,1644844524.1875,P08,D03,1,1,1
948,-0.01,1644844524.203125,P08,D03,1,1,1
949,0.14,1644844524.21875,P08,D03,1,1,1
950,0.3,1644844524.234375,P08,D03,1,1,1
951,0.45,1644844524.25,P08,D03,1,1,1
952,0.63,1644844524.265625,P08,D03,1,1,1
953,0.82,1644844524.28125,P08,D03,1,1,1
954,1.0,1644844524.296875,P08,D03,1,1,1
955,1.12,1644844524.3125,P08,D03,1,1,1
956,1.12,1644844524.328125,P08,D03,1,1,1
957,0.98,1644844524.34375,P08,D03,1,1,1
958,0.71,1644844524.359375,P08,D03,1,1,1
959,0.39,1644844524.375,P08,D03,1,1,1
960,0.08,1644844524.390625,P08,D03,1,1,1
961,-0.15,1644844524.40625,P08,D03,1,1,1
962,-0.27,1644844524.421875,P08,D03,1,1,1
963,-0.28,1644844524.4375,P08,D03,1,1,1
964,-0.18,1644844524.453125,P08,D03,1,1,1
965,-0.01,1644844524.46875,P08,D03,1,1,1
966,0.18,1644844524.484375,P08,D03,1,1,1
967,0.35,1644844524.5,P08,D03,1,1,1
968,0.45,1644844524.515625,P08,D03,1,1,1
969,0.45,1644844524.53125,P08,D03,1,1,1
970,0.35,1644844524.546875,P08,D03,1,1,1
971,0.15,1644844524.5625,P08,D03,1,1,1
972,-0.11,1644844524.578125,P08,D03,1,1,1
973,-0.38,1644844524.59375,P08,D03,1,1,1
974,-0.59,1644844524.609375,P08,D03,1,1,1
975,-0.68,1644844524.625,P08,D03,1,1,1
976,-0.59,1644844524.640625,P08,D03,1,1,1
977,-0.34,1644844524.65625,P08,D03,1,1,1
978,-0.01,1644844524.671875,P08,D03,1,1,1
979,0.26,1644844524.6875,P08,D03,1,1,1
980,0.36,1644844524.703125,P08,D03,1,1,1
981,0.23,1644844524.71875,P08,D03,1,1,1
982,-0.06,1644844524.734375,P08,D03,1,1,1
983,-0.38,1644844524.75,P08,D03,1,1,1
984,-0.61,1644844524.765625,P08,D03,1,1,1
985,-0.67,1644844524.78125,P08,D03,1,1,1
986,-0.61,1644844524.796875,P08,D03,1,1,1
987,-0.52,1644844524.8125,P08,D03,1,1,1
988,-0.45,1644844524.828125,P08,D03,1,1,1
989,-0.41,1644844524.84375,P08,D03,1,1,1
990,-0.33,1644844524.859375,P08,D03,1,1,1
991,-0.17,1644844524.875,P08,D03,1,1,1
992,0.06,1644844524.890625,P08,D03,1,1,1
993,0.32,1644844524.90625,P08,D03,1,1,1
994,0.52,1644844524.921875,P08,D03,1,1,1
995,0.6,1644844524.9375,P08,D03,1,1,1
996,0.56,1644844524.953125,P08,D03,1,1,1
997,0.45,1644844524.96875,P08,D03,1,1,1
998,0.34,1644844524.984375,P08,D03,1,1,1
999,0.26,1644844525.0,P08,D03,1,1,1
1000,0.22,1644844525.015625,P08,D03,1,1,1
1001,0.18,1644844525.03125,P08,D03,1,1,1
1002,0.09,1644844525.046875,P08,D03,1,1,1
1003,-0.08,1644844525.0625,P08,D03,1,1,1
1004,-0.33,1644844525.078125,P08,D03,1,1,1
1005,-0.58,1644844525.09375,P08,D03,1,1,1
1006,-0.73,1644844525.109375,P08,D03,1,1,1
1007,-0.72,1644844525.125,P08,D03,1,1,1
1008,-0.53,1644844525.140625,P08,D03,1,1,1
1009,-0.23,1644844525.15625,P08,D03,1,1,1
1010,0.06,1644844525.171875,P08,D03,1,1,1
1011,0.25,1644844525.1875,P08,D03,1,1,1
1012,0.31,1644844525.203125,P08,D03,1,1,1
1013,0.24,1644844525.21875,P08,D03,1,1,1
1014,0.12,1644844525.234375,P08,D03,1,1,1
1015,-0.04,1644844525.25,P08,D03,1,1,1
1016,-0.23,1644844525.265625,P08,D03,1,1,1
1017,-0.44,1644844525.28125,P08,D03,1,1,1
1018,-0.65,1644844525.296875,P08,D03,1,1,1
1019,-0.78,1644844525.3125,P08,D03,1,1,1
1020,-0.78,1644844525.328125,P08,D03,1,1,1
1021,-0.59,1644844525.34375,P08,D03,1,1,1
1022,-0.27,1644844525.359375,P08,D03,1,1,1
1023,0.09,1644844525.375,P08,D03,1,1,1
1024,0.38,1644844525.390625,P08,D03,1,1,1
1025,0.54,1644844525.40625,P08,D03,1,1,1
1026,0.56,1644844525.421875,P08,D03,1,1,1
1027,0.47,1644844525.4375,P08,D03,1,1,1
1028,0.33,1644844525.453125,P08,D03,1,1,1
1029,0.19,1644844525.46875,P08,D03,1,1,1
1030,0.1,1644844525.484375,P08,D03,1,1,1
1031,0.07,1644844525.5,P08,D03,1,1,1
1032,0.07,1644844525.515625,P08,D03,1,1,1
1033,0.09,1644844525.53125,P08,D03,1,1,1
1034,0.1,1644844525.546875,P08,D03,1,1,1
1035,0.14,1644844525.5625,P08,D03,1,1,1
1036,0.24,1644844525.578125,P08,D03,1,1,1
1037,0.42,1644844525.59375,P08,D03,1,1,1
1038,0.66,1644844525.609375,P08,D03,1,1,1
1039,0.86,1644844525.625,P08,D03,1,1,1
1040,0.95,1644844525.640625,P08,D03,1,1,1
1041,0.86,1644844525.65625,P08,D03,1,1,1
1042,0.63,1644844525.671875,P08,D03,1,1,1
1043,0.34,1644844525.6875,P08,D03,1,1,1
1044,0.09,1644844525.703125,P08,D03,1,1,1
1045,-0.05,1644844525.71875,P08,D03,1,1,1
1046,-0.09,1644844525.734375,P08,D03,1,1,1
1047,-0.06,1644844525.75,P08,D03,1,1,1
1048,0.03,1644844525.765625,P08,D03,1,1,1
1049,0.19,1644844525.78125,P08,D03,1,1,1
1050,0.4,1644844525.796875,P08,D03,1,1,1
1051,0.61,1644844525.8125,P08,D03,1,1,1
1052,0.69,1644844525.828125,P08,D03,1,1,1
1053,0.52,1644844525.84375,P08,D03,1,1,1
1054,0.08,1644844525.859375,P08,D03,1,1,1
1055,-0.52,1644844525.875,P08,D03,1,1,1
1056,-1.07,1644844525.890625,P08,D03,1,1,1
1057,-1.39,1644844525.90625,P08,D03,1,1,1
1058,-1.37,1644844525.921875,P08,D03,1,1,1
1059,-1.08,1644844525.9375,P08,D03,1,1,1
1060,-0.68,1644844525.953125,P08,D03,1,1,1
1061,-0.32,1644844525.96875,P08,D03,1,1,1
1062,-0.08,1644844525.984375,P08,D03,1,1,1
1063,0.03,1644844526.0,P08,D03,1,1,1
1064,0.03,1644844526.015625,P08,D03,1,1,1
1065,-0.05,1644844526.03125,P08,D03,1,1,1
1066,-0.22,1644844526.046875,P08,D03,1,1,1
1067,-0.47,1644844526.0625,P08,D03,1,1,1
1068,-0.77,1644844526.078125,P08,D03,1,1,1
1069,-1.02,1644844526.09375,P08,D03,1,1,1
1070,-1.09,1644844526.109375,P08,D03,1,1,1
1071,-0.94,1644844526.125,P08,D03,1,1,1
1072,-0.61,1644844526.140625,P08,D03,1,1,1
1073,-0.22,1644844526.15625,P08,D03,1,1,1
1074,0.1,1644844526.171875,P08,D03,1,1,1
1075,0.25,1644844526.1875,P08,D03,1,1,1
1076,0.23,1644844526.203125,P08,D03,1,1,1
1077,0.11,1644844526.21875,P08,D03,1,1,1
1078,0.01,1644844526.234375,P08,D03,1,1,1
1079,-0.02,1644844526.25,P08,D03,1,1,1
1080,0.04,1644844526.265625,P08,D03,1,1,1
1081,0.18,1644844526.28125,P08,D03,1,1,1
1082,0.35,1644844526.296875,P08,D03,1,1,1
1083,0.55,1644844526.3125,P08,D03,1,1,1
1084,0.74,1644844526.328125,P08,D03,1,1,1
1085,0.92,1644844526.34375,P08,D03,1,1,1
1086,1.02,1644844526.359375,P08,D03,1,1,1
1087,0.99,1644844526.375,P08,D03,1,1,1
1088,0.8,1644844526.390625,P08,D03,1,1,1
1089,0.47,1644844526.40625,P08,D03,1,1,1
1090,0.06,1644844526.421875,P08,D03,1,1,1
1091,-0.34,1644844526.4375,P08,D03,1,1,1
1092,-0.63,1644844526.453125,P08,D03,1,1,1
1093,-0.78,1644844526.46875,P08,D03,1,1,1
1094,-0.77,1644844526.484375,P08,D03,1,1,1
1095,-0.64,1644844526.5,P08,D03,1,1,1
1096,-0.41,1644844526.515625,P08,D03,1,1,1
1097,-0.15,1644844526.53125,P08,D03,1,1,1
1098,0.09,1644844526.546875,P08,D03,1,1,1
1099,0.25,1644844526.5625,P08,D03,1,1,1
1100,0.28,1644844526.578125,P08,D03,1,1,1
1101,0.19,1644844526.59375,P08,D03,1,1,1
1102,0.05,1644844526.609375,P08,D03,1,1,1
1103,-0.05,1644844526.625,P08,D03,1,1,1
1104,-0.06,1644844526.640625,P08,D03,1,1,1
1105,0.05,1644844526.65625,P08,D03,1,1,1
1106,0.22,1644844526.671875,P08,D03,1,1,1
1107,0.35,1644844526.6875,P08,D03,1,1,1
1108,0.36,1644844526.703125,P08,D03,1,1,1
1109,0.23,1644844526.71875,P08,D03,1,1,1
1110,0.03,1644844526.734375,P08,D03,1,1,1
1111,-0.16,1644844526.75,P08,D03,1,1,1
1112,-0.25,1644844526.765625,P08,D03,1,1,1
1113,-0.24,1644844526.78125,P08,D03,1,1,1
1114,-0.15,1644844526.796875,P08,D03,1,1,1
1115,-0.03,1644844526.8125,P08,D03,1,1,1
1116,0.06,1644844526.828125,P08,D03,1,1,1
1117,0.09,1644844526.84375,P08,D03,1,1,1
1118,0.07,1644844526.859375,P08,D03,1,1,1
1119,0.01,1644844526.875,P08,D03,1,1,1
1120,-0.08,1644844526.890625,P08,D03,1,1,1
1121,-0.18,1644844526.90625,P08,D03,1,1,1
1122,-0.25,1644844526.921875,P08,D03,1,1,1
1123,-0.27,1644844526.9375,P08,D03,1,1,1
1124,-0.2,1644844526.953125,P08,D03,1,1,1
1125,-0.05,1644844526.96875,P08,D03,1,1,1
1126,0.15,1644844526.984375,P08,D03,1,1,1
1127,0.35,1644844527.0,P08,D03,1,1,1
1128,0.48,1644844527.015625,P08,D03,1,1,1
1129,0.51,1644844527.03125,P08,D03,1,1,1
1130,0.43,1644844527.046875,P08,D03,1,1,1
1131,0.29,1644844527.0625,P08,D03,1,1,1
1132,0.12,1644844527.078125,P08,D03,1,1,1
1133,-0.03,1644844527.09375,P08,D03,1,1,1
1134,-0.14,1644844527.109375,P08,D03,1,1,1
1135,-0.18,1644844527.125,P08,D03,1,1,1
1136,-0.14,1644844527.140625,P08,D03,1,1,1
1137,0.01,1644844527.15625,P08,D03,1,1,1
1138,0.27,1644844527.171875,P08,D03,1,1,1
1139,0.57,1644844527.1875,P08,D03,1,1,1
1140,0.84,1644844527.203125,P08,D03,1,1,1
1141,0.99,1644844527.21875,P08,D03,1,1,1
1142,0.94,1644844527.234375,P08,D03,1,1,1
1143,0.71,1644844527.25,P08,D03,1,1,1
1144,0.37,1644844527.265625,P08,D03,1,1,1
1145,0.03,1644844527.28125,P08,D03,1,1,1
1146,-0.21,1644844527.296875,P08,D03,1,1,1
1147,-0.27,1644844527.3125,P08,D03,1,1,1
1148,-0.16,1644844527.328125,P08,D03,1,1,1
1149,0.03,1644844527.34375,P08,D03,1,1,1
1150,0.22,1644844527.359375,P08,D03,1,1,1
1151,0.28,1644844527.375,P08,D03,1,1,1
1152,0.17,1644844527.390625,P08,D03,1,1,1
1153,-0.12,1644844527.40625,P08,D03,1,1,1
1154,-0.47,1644844527.421875,P08,D03,1,1,1
1155,-0.76,1644844527.4375,P08,D03,1,1,1
1156,-0.88,1644844527.453125,P08,D03,1,1,1
1157,-0.78,1644844527.46875,P08,D03,1,1,1
1158,-0.53,1644844527.484375,P08,D03,1,1,1
1159,-0.24,1644844527.5,P08,D03,1,1,1
1160,-0.04,1644844527.515625,P08,D03,1,1,1
1161,0.02,1644844527.53125,P08,D03,1,1,1
1162,-0.05,1644844527.546875,P08,D03,1,1,1
1163,-0.18,1644844527.5625,P08,D03,1,1,1
1164,-0.31,1644844527.578125,P08,D03,1,1,1
1165,-0.41,1644844527.59375,P08,D03,1,1,1
1166,-0.5,1644844527.609375,P08,D03,1,1,1
1167,-0.62,1644844527.625,P08,D03,1,1,1
1168,-0.73,1644844527.640625,P08,D03,1,1,1
1169,-0.8,1644844527.65625,P08,D03,1,1,1
1170,-0.77,1644844527.671875,P08,D03,1,1,1
1171,-0.63,1644844527.6875,P08,D03,1,1,1
1172,-0.43,1644844527.703125,P08,D03,1,1,1
1173,-0.25,1644844527.71875,P08,D03,1,1,1
1174,-0.17,1644844527.734375,P08,D03,1,1,1
1175,-0.25,1644844527.75,P08,D03,1,1,1
1176,-0.47,1644844527.765625,P08,D03,1,1,1
1177,-0.75,1644844527.78125,P08,D03,1,1,1
1178,-1.01,1644844527.796875,P08,D03,1,1,1
1179,-1.12,1644844527.8125,P08,D03,1,1,1
1180,-1.01,1644844527.828125,P08,D03,1,1,1
1181,-0.69,1644844527.84375,P08,D03,1,1,1
1182,-0.22,1644844527.859375,P08,D03,1,1,1
1183,0.29,1644844527.875,P08,D03,1,1,1
1184,0.72,1644844527.890625,P08,D03,1,1,1
1185,0.98,1644844527.90625,P08,D03,1,1,1
1186,1.06,1644844527.921875,P08,D03,1,1,1
1187,1.02,1644844527.9375,P08,D03,1,1,1
1188,0.91,1644844527.953125,P08,D03,1,1,1
1189,0.79,1644844527.96875,P08,D03,1,1,1
1190,0.64,1644844527.984375,P08,D03,1,1,1
1191,0.46,1644844528.0,P08,D03,1,1,1
1192,0.26,1644844528.015625,P08,D03,1,1,1
1193,0.09,1644844528.03125,P08,D03,1,1,1
1194,0.05,1644844528.046875,P08,D03,1,1,1
1195,0.17,1644844528.0625,P08,D03,1,1,1
1196,0.43,1644844528.078125,P08,D03,1,1,1
1197,0.74,1644844528.09375,P08,D03,1,1,1
1198,0.95,1644844528.109375,P08,D03,1,1,1
1199,1.01,1644844528.125,P08,D03,1,1,1
1200,0.92,1644844528.140625,P08,D03,1,1,1
1201,0.75,1644844528.15625,P08,D03,1,1,1
1202,0.6,1644844528.171875,P08,D03,1,1,1
1203,0.52,1644844528.1875,P08,D03,1,1,1
1204,0.51,1644844528.203125,P08,D03,1,1,1
1205,0.54,1644844528.21875,P08,D03,1,1,1
1206,0.56,1644844528.234375,P08,D03,1,1,1
1207,0.56,1644844528.25,P08,D03,1,1,1
1208,0.53,1644844528.265625,P08,D03,1,1,1
1209,0.44,1644844528.28125,P08,D03,1,1,1
1210,0.26,1644844528.296875,P08,D03,1,1,1
1211,-0.04,1644844528.3125,P08,D03,1,1,1
1212,-0.43,1644844528.328125,P08,D03,1,1,1
1213,-0.79,1644844528.34375,P08,D03,1,1,1
1214,-0.99,1644844528.359375,P08,D03,1,1,1
1215,-0.92,1644844528.375,P08,D03,1,1,1
1216,-0.62,1644844528.390625,P08,D03,1,1,1
1217,-0.21,1644844528.40625,P08,D03,1,1,1
1218,0.13,1644844528.421875,P08,D03,1,1,1
1219,0.27,1644844528.4375,P08,D03,1,1,1
1220,0.19,1644844528.453125,P08,D03,1,1,1
1221,0.0,1644844528.46875,P08,D03,1,1,1
1222,-0.13,1644844528.484375,P08,D03,1,1,1
1223,-0.07,1644844528.5,P08,D03,1,1,1
1224,0.17,1644844528.515625,P08,D03,1,1,1
1225,0.49,1644844528.53125,P08,D03,1,1,1
1226,0.72,1644844528.546875,P08,D03,1,1,1
1227,0.71,1644844528.5625,P08,D03,1,1,1
1228,0.44,1644844528.578125,P08,D03,1,1,1
1229,0.01,1644844528.59375,P08,D03,1,1,1
1230,-0.42,1644844528.609375,P08,D03,1,1,1
1231,-0.7,1644844528.625,P08,D03,1,1,1
1232,-0.78,1644844528.640625,P08,D03,1,1,1
1233,-0.71,1644844528.65625,P08,D03,1,1,1
1234,-0.63,1644844528.671875,P08,D03,1,1,1
1235,-0.65,1644844528.6875,P08,D03,1,1,1
1236,-0.82,1644844528.703125,P08,D03,1,1,1
1237,-1.05,1644844528.71875,P08,D03,1,1,1
1238,-1.21,1644844528.734375,P08,D03,1,1,1
1239,-1.2,1644844528.75,P08,D03,1,1,1
1240,-0.97,1644844528.765625,P08,D03,1,1,1
1241,-0.64,1644844528.78125,P08,D03,1,1,1
1242,-0.32,1644844528.796875,P08,D03,1,1,1
1243,-0.17,1644844528.8125,P08,D03,1,1,1
1244,-0.2,1644844528.828125,P08,D03,1,1,1
1245,-0.38,1644844528.84375,P08,D03,1,1,1
1246,-0.59,1644844528.859375,P08,D03,1,1,1
1247,-0.69,1644844528.875,P08,D03,1,1,1
1248,-0.62,1644844528.890625,P08,D03,1,1,1
1249,-0.39,1644844528.90625,P08,D03,1,1,1
1250,-0.07,1644844528.921875,P08,D03,1,1,1
1251,0.27,1644844528.9375,P08,D03,1,1,1
1252,0.56,1644844528.953125,P08,D03,1,1,1
1253,0.78,1644844528.96875,P08,D03,1,1,1
1254,0.89,1644844528.984375,P08,D03,1,1,1
1255,0.9,1644844529.0,P08,D03,1,1,1
1256,0.84,1644844529.015625,P08,D03,1,1,1
1257,0.76,1644844529.03125,P08,D03,1,1,1
1258,0.73,1644844529.046875,P08,D03,1,1,1
1259,0.79,1644844529.0625,P08,D03,1,1,1
1260,0.91,1644844529.078125,P08,D03,1,1,1
1261,1.01,1644844529.09375,P08,D03,1,1,1
1262,0.99,1644844529.109375,P08,D03,1,1,1
1263,0.8,1644844529.125,P08,D03,1,1,1
1264,0.45,1644844529.140625,P08,D03,1,1,1
1265,0.07,1644844529.15625,P08,D03,1,1,1
1266,-0.19,1644844529.171875,P08,D03,1,1,1
1267,-0.22,1644844529.1875,P08,D03,1,1,1
1268,-0.02,1644844529.203125,P08,D03,1,1,1
1269,0.29,1644844529.21875,P08,D03,1,1,1
1270,0.52,1644844529.234375,P08,D03,1,1,1
1271,0.52,1644844529.25,P08,D03,1,1,1
1272,0.26,1644844529.265625,P08,D03,1,1,1
1273,-0.18,1644844529.28125,P08,D03,1,1,1
1274,-0.62,1644844529.296875,P08,D03,1,1,1
1275,-0.91,1644844529.3125,P08,D03,1,1,1
1276,-0.98,1644844529.328125,P08,D03,1,1,1
1277,-0.87,1644844529.34375,P08,D03,1,1,1
1278,-0.67,1644844529.359375,P08,D03,1,1,1
1279,-0.45,1644844529.375,P08,D03,1,1,1
1280,-0.25,1644844529.390625,P08,D03,1,1,1
1281,-0.06,1644844529.40625,P08,D03,1,1,1
1282,0.14,1644844529.421875,P08,D03,1,1,1
1283,0.32,1644844529.4375,P08,D03,1,1,1
1284,0.44,1644844529.453125,P08,D03,1,1,1
1285,0.43,1644844529.46875,P08,D03,1,1,1
1286,0.27,1644844529.484375,P08,D03,1,1,1
1287,0.02,1644844529.5,P08,D03,1,1,1
1288,-0.23,1644844529.515625,P08,D03,1,1,1
1289,-0.39,1644844529.53125,P08,D03,1,1,1
1290,-0.39,1644844529.546875,P08,D03,1,1,1
1291,-0.26,1644844529.5625,P08,D03,1,1,1
1292,-0.04,1644844529.578125,P08,D03,1,1,1
1293,0.19,1644844529.59375,P08,D03,1,1,1
1294,0.37,1644844529.609375,P08,D03,1,1,1
1295,0.47,1644844529.625,P08,D03,1,1,1
1296,0.5,1644844529.640625,P08,D03,1,1,1
1297,0.48,1644844529.65625,P08,D03,1,1,1
1298,0.41,1644844529.671875,P08,D03,1,1,1
1299,0.28,1644844529.6875,P08,D03,1,1,1
1300,0.11,1644844529.703125,P08,D03,1,1,1
1301,-0.09,1644844529.71875,P08,D03,1,1,1
1302,-0.27,1644844529.734375,P08,D03,1,1,1
1303,-0.37,1644844529.75,P08,D03,1,1,1
1304,-0.38,1644844529.765625,P08,D03,1,1,1
1305,-0.32,1644844529.78125,P08,D03,1,1,1
1306,-0.22,1644844529.796875,P08,D03,1,1,1
1307,-0.13,1644844529.8125,P08,D03,1,1,1
1308,-0.05,1644844529.828125,P08,D03,1,1,1
1309,0.04,1644844529.84375,P08,D03,1,1,1
1310,0.18,1644844529.859375,P08,D03,1,1,1
1311,0.35,1644844529.875,P08,D03,1,1,1
1312,0.5,1644844529.890625,P08,D03,1,1,1
1313,0.56,1644844529.90625,P08,D03,1,1,1
1314,0.47,1644844529.921875,P08,D03,1,1,1
1315,0.23,1644844529.9375,P08,D03,1,1,1
1316,-0.08,1644844529.953125,P08,D03,1,1,1
1317,-0.36,1644844529.96875,P08,D03,1,1,1
1318,-0.53,1644844529.984375,P08,D03,1,1,1
1319,-0.58,1644844530.0,P08,D03,1,1,1
1320,-0.5,1644844530.015625,P08,D03,1,1,1
1321,-0.35,1644844530.03125,P08,D03,1,1,1
1322,-0.16,1644844530.046875,P08,D03,1,1,1
1323,0.06,1644844530.0625,P08,D03,1,1,1
1324,0.26,1644844530.078125,P08,D03,1,1,1
1325,0.37,1644844530.09375,P08,D03,1,1,1
1326,0.36,1644844530.109375,P08,D03,1,1,1
1327,0.2,1644844530.125,P08,D03,1,1,1
1328,-0.06,1644844530.140625,P08,D03,1,1,1
1329,-0.32,1644844530.15625,P08,D03,1,1,1
1330,-0.49,1644844530.171875,P08,D03,1,1,1
1331,-0.54,1644844530.1875,P08,D03,1,1,1
1332,-0.51,1644844530.203125,P08,D03,1,1,1
1333,-0.49,1644844530.21875,P08,D03,1,1,1
1334,-0.56,1644844530.234375,P08,D03,1,1,1
1335,-0.72,1644844530.25,P08,D03,1,1,1
1336,-0.89,1644844530.265625,P08,D03,1,1,1
1337,-0.92,1644844530.28125,P08,D03,1,1,1
1338,-0.72,1644844530.296875,P08,D03,1,1,1
1339,-0.27,1644844530.3125,P08,D03,1,1,1
1340,0.29,1644844530.328125,P08,D03,1,1,1
1341,0.79,1644844530.34375,P08,D03,1,1,1
1342,1.04,1644844530.359375,P08,D03,1,1,1
1343,0.99,1644844530.375,P08,D03,1,1,1
1344,0.69,1644844530.390625,P08,D03,1,1,1
1345,0.3,1644844530.40625,P08,D03,1,1,1
1346,-0.03,1644844530.421875,P08,D03,1,1,1
1347,-0.2,1644844530.4375,P08,D03,1,1,1
1348,-0.23,1644844530.453125,P08,D03,1,1,1
1349,-0.2,1644844530.46875,P08,D03,1,1,1
1350,-0.22,1644844530.484375,P08,D03,1,1,1
1351,-0.32,1644844530.5,P08,D03,1,1,1
1352,-0.45,1644844530.515625,P08,D03,1,1,1
1353,-0.56,1644844530.53125,P08,D03,1,1,1
1354,-0.57,1644844530.546875,P08,D03,1,1,1
1355,-0.49,1644844530.5625,P08,D03,1,1,1
1356,-0.37,1644844530.578125,P08,D03,1,1,1
1357,-0.29,1644844530.59375,P08,D03,1,1,1
1358,-0.25,1644844530.609375,P08,D03,1,1,1
1359,-0.23,1644844530.625,P08,D03,1,1,1
1360,-0.13,1644844530.640625,P08,D03,1,1,1
1361,0.09,1644844530.65625,P08,D03,1,1,1
1362,0.45,1644844530.671875,P08,D03,1,1,1
1363,0.89,1644844530.6875,P08,D03,1,1,1
1364,1.26,1644844530.703125,P08,D03,1,1,1
1365,1.47,1644844530.71875,P08,D03,1,1,1
1366,1.42,1644844530.734375,P08,D03,1,1,1
1367,1.12,1644844530.75,P08,D03,1,1,1
1368,0.66,1644844530.765625,P08,D03,1,1,1
1369,0.14,1644844530.78125,P08,D03,1,1,1
1370,-0.3,1644844530.796875,P08,D03,1,1,1
1371,-0.59,1644844530.8125,P08,D03,1,1,1
1372,-0.69,1644844530.828125,P08,D03,1,1,1
1373,-0.62,1644844530.84375,P08,D03,1,1,1
1374,-0.41,1644844530.859375,P08,D03,1,1,1
1375,-0.15,1644844530.875,P08,D03,1,1,1
1376,0.1,1644844530.890625,P08,D03,1,1,1
1377,0.23,1644844530.90625,P08,D03,1,1,1
1378,0.19,1644844530.921875,P08,D03,1,1,1
1379,-0.02,1644844530.9375,P08,D03,1,1,1
1380,-0.35,1644844530.953125,P08,D03,1,1,1
1381,-0.69,1644844530.96875,P08,D03,1,1,1
1382,-0.9,1644844530.984375,P08,D03,1,1,1
1383,-0.9,1644844531.0,P08,D03,1,1,1
1384,-0.69,1644844531.015625,P08,D03,1,1,1
1385,-0.33,1644844531.03125,P08,D03,1,1,1
1386,0.03,1644844531.046875,P08,D03,1,1,1
1387,0.28,1644844531.0625,P08,D03,1,1,1
1388,0.36,1644844531.078125,P08,D03,1,1,1
1389,0.3,1644844531.09375,P08,D03,1,1,1
1390,0.16,1644844531.109375,P08,D03,1,1,1
1391,0.05,1644844531.125,P08,D03,1,1,1
1392,0.0,1644844531.140625,P08,D03,1,1,1
1393,0.02,1644844531.15625,P08,D03,1,1,1
1394,0.04,1644844531.171875,P08,D03,1,1,1
1395,0.02,1644844531.1875,P08,D03,1,1,1
1396,-0.07,1644844531.203125,P08,D03,1,1,1
1397,-0.2,1644844531.21875,P08,D03,1,1,1
1398,-0.33,1644844531.234375,P08,D03,1,1,1
1399,-0.39,1644844531.25,P08,D03,1,1,1
1400,-0.37,1644844531.265625,P08,D03,1,1,1
1401,-0.25,1644844531.28125,P08,D03,1,1,1
1402,-0.05,1644844531.296875,P08,D03,1,1,1
1403,0.21,1644844531.3125,P08,D03,1,1,1
1404,0.49,1644844531.328125,P08,D03,1,1,1
1405,0.76,1644844531.34375,P08,D03,1,1,1
1406,0.97,1644844531.359375,P08,D03,1,1,1
1407,1.09,1644844531.375,P08,D03,1,1,1
1408,1.11,1644844531.390625,P08,D03,1,1,1
1409,1.03,1644844531.40625,P08,D03,1,1,1
1410,0.9,1644844531.421875,P08,D03,1,1,1
1411,0.72,1644844531.4375,P08,D03,1,1,1
1412,0.53,1644844531.453125,P08,D03,1,1,1
1413,0.32,1644844531.46875,P08,D03,1,1,1
1414,0.1,1644844531.484375,P08,D03,1,1,1
1415,-0.11,1644844531.5,P08,D03,1,1,1
1416,-0.3,1644844531.515625,P08,D03,1,1,1
1417,-0.45,1644844531.53125,P08,D03,1,1,1
1418,-0.53,1644844531.546875,P08,D03,1,1,1
1419,-0.56,1644844531.5625,P08,D03,1,1,1
1420,-0.55,1644844531.578125,P08,D03,1,1,1
1421,-0.52,1644844531.59375,P08,D03,1,1,1
1422,-0.46,1644844531.609375,P08,D03,1,1,1
1423,-0.39,1644844531.625,P08,D03,1,1,1
1424,-0.3,1644844531.640625,P08,D03,1,1,1
1425,-0.21,1644844531.65625,P08,D03,1,1,1
1426,-0.13,1644844531.671875,P08,D03,1,1,1
1427,-0.11,1644844531.6875,P08,D03,1,1,1
1428,-0.17,1644844531.703125,P08,D03,1,1,1
1429,-0.29,1644844531.71875,P08,D03,1,1,1
1430,-0.39,1644844531.734375,P08,D03,1,1,1
1431,-0.4,1644844531.75,P08,D03,1,1,1
1432,-0.26,1644844531.765625,P08,D03,1,1,1
1433,-0.01,1644844531.78125,P08,D03,1,1,1
1434,0.22,1644844531.796875,P08,D03,1,1,1
1435,0.34,1644844531.8125,P08,D03,1,1,1
1436,0.28,1644844531.828125,P08,D03,1,1,1
1437,0.11,1644844531.84375,P08,D03,1,1,1
1438,-0.04,1644844531.859375,P08,D03,1,1,1
1439,-0.06,1644844531.875,P08,D03,1,1,1
1440,0.06,1644844531.890625,P08,D03,1,1,1
1441,0.24,1644844531.90625,P08,D03,1,1,1
1442,0.35,1644844531.921875,P08,D03,1,1,1
1443,0.31,1644844531.9375,P08,D03,1,1,1
1444,0.09,1644844531.953125,P08,D03,1,1,1
1445,-0.22,1644844531.96875,P08,D03,1,1,1
1446,-0.53,1644844531.984375,P08,D03,1,1,1
1447,-0.74,1644844532.0,P08,D03,1,1,1
1448,-0.83,1644844532.015625,P08,D03,1,1,1
1449,-0.8,1644844532.03125,P08,D03,1,1,1
1450,-0.66,1644844532.046875,P08,D03,1,1,1
1451,-0.43,1644844532.0625,P08,D03,1,1,1
1452,-0.12,1644844532.078125,P08,D03,1,1,1
1453,0.23,1644844532.09375,P08,D03,1,1,1
1454,0.58,1644844532.109375,P08,D03,1,1,1
1455,0.86,1644844532.125,P08,D03,1,1,1
1456,0.99,1644844532.140625,P08,D03,1,1,1
1457,0.93,1644844532.15625,P08,D03,1,1,1
1458,0.66,1644844532.171875,P08,D03,1,1,1
1459,0.24,1644844532.1875,P08,D03,1,1,1
1460,-0.21,1644844532.203125,P08,D03,1,1,1
1461,-0.54,1644844532.21875,P08,D03,1,1,1
1462,-0.6,1644844532.234375,P08,D03,1,1,1
1463,-0.35,1644844532.25,P08,D03,1,1,1
1464,0.11,1644844532.265625,P08,D03,1,1,1
1465,0.61,1644844532.28125,P08,D03,1,1,1
1466,0.95,1644844532.296875,P08,D03,1,1,1
1467,1.0,1644844532.3125,P08,D03,1,1,1
1468,0.78,1644844532.328125,P08,D03,1,1,1
1469,0.4,1644844532.34375,P08,D03,1,1,1
1470,0.02,1644844532.359375,P08,D03,1,1,1
1471,-0.21,1644844532.375,P08,D03,1,1,1
1472,-0.27,1644844532.390625,P08,D03,1,1,1
1473,-0.22,1644844532.40625,P08,D03,1,1,1
1474,-0.16,1644844532.421875,P08,D03,1,1,1
1475,-0.18,1644844532.4375,P08,D03,1,1,1
1476,-0.28,1644844532.453125,P08,D03,1,1,1
1477,-0.41,1644844532.46875,P08,D03,1,1,1
1478,-0.5,1644844532.484375,P08,D03,1,1,1
1479,-0.48,1644844532.5,P08,D03,1,1,1
1480,-0.37,1644844532.515625,P08,D03,1,1,1
1481,-0.22,1644844532.53125,P08,D03,1,1,1
1482,-0.11,1644844532.546875,P08,D03,1,1,1
1483,-0.1,1644844532.5625,P08,D03,1,1,1
1484,-0.19,1644844532.578125,P08,D03,1,1,1
1485,-0.31,1644844532.59375,P08,D03,1,1,1
1486,-0.4,1644844532.609375,P08,D03,1,1,1
1487,-0.39,1644844532.625,P08,D03,1,1,1
1488,-0.28,1644844532.640625,P08,D03,1,1,1
1489,-0.13,1644844532.65625,P08,D03,1,1,1
1490,0.02,1644844532.671875,P08,D03,1,1,1
1491,0.1,1644844532.6875,P08,D03,1,1,1
1492,0.1,1644844532.703125,P08,D03,1,1,1
1493,0.04,1644844532.71875,P08,D03,1,1,1
1494,-0.02,1644844532.734375,P08,D03,1,1,1
1495,-0.06,1644844532.75,P08,D03,1,1,1
1496,-0.06,1644844532.765625,P08,D03,1,1,1
1497,-0.05,1644844532.78125,P08,D03,1,1,1
1498,-0.08,1644844532.796875,P08,D03,1,1,1
1499,-0.16,1644844532.8125,P08,D03,1,1,1
1500,-0.25,1644844532.828125,P08,D03,1,1,1
1501,-0.26,1644844532.84375,P08,D03,1,1,1
1502,-0.1,1644844532.859375,P08,D03,1,1,1
1503,0.26,1644844532.875,P08,D03,1,1,1
1504,0.74,1644844532.890625,P08,D03,1,1,1
1505,1.15,1644844532.90625,P08,D03,1,1,1
1506,1.33,1644844532.921875,P08,D03,1,1,1
1507,1.17,1644844532.9375,P08,D03,1,1,1
1508,0.72,1644844532.953125,P08,D03,1,1,1
1509,0.16,1644844532.96875,P08,D03,1,1,1
1510,-0.29,1644844532.984375,P08,D03,1,1,1
1511,-0.48,1644844533.0,P08,D03,1,1,1
1512,-0.4,1644844533.015625,P08,D03,1,1,1
1513,-0.15,1644844533.03125,P08,D03,1,1,1
1514,0.12,1644844533.046875,P08,D03,1,1,1
1515,0.29,1644844533.0625,P08,D03,1,1,1
1516,0.31,1644844533.078125,P08,D03,1,1,1
1517,0.26,1644844533.09375,P08,D03,1,1,1
1518,0.21,1644844533.109375,P08,D03,1,1,1
1519,0.22,1644844533.125,P08,D03,1,1,1
1520,0.26,1644844533.140625,P08,D03,1,1,1
1521,0.27,1644844533.15625,P08,D03,1,1,1
1522,0.17,1644844533.171875,P08,D03,1,1,1
1523,-0.07,1644844533.1875,P08,D03,1,1,1
1524,-0.36,1644844533.203125,P08,D03,1,1,1
1525,-0.59,1644844533.21875,P08,D03,1,1,1
1526,-0.65,1644844533.234375,P08,D03,1,1,1
1527,-0.51,1644844533.25,P08,D03,1,1,1
1528,-0.27,1644844533.265625,P08,D03,1,1,1
1529,-0.06,1644844533.28125,P08,D03,1,1,1
1530,0.03,1644844533.296875,P08,D03,1,1,1
1531,-0.0,1644844533.3125,P08,D03,1,1,1
1532,-0.09,1644844533.328125,P08,D03,1,1,1
1533,-0.14,1644844533.34375,P08,D03,1,1,1
1534,-0.11,1644844533.359375,P08,D03,1,1,1
1535,-0.05,1644844533.375,P08,D03,1,1,1
1536,-0.02,1644844533.390625,P08,D03,1,1,1
1537,-0.07,1644844533.40625,P08,D03,1,1,1
1538,-0.18,1644844533.421875,P08,D03,1,1,1
1539,-0.31,1644844533.4375,P08,D03,1,1,1
1540,-0.38,1644844533.453125,P08,D03,1,1,1
1541,-0.39,1644844533.46875,P08,D03,1,1,1
1542,-0.34,1644844533.484375,P08,D03,1,1,1
1543,-0.27,1644844533.5,P08,D03,1,1,1
1544,-0.18,1644844533.515625,P08,D03,1,1,1
1545,-0.06,1644844533.53125,P08,D03,1,1,1
1546,0.11,1644844533.546875,P08,D03,1,1,1
1547,0.31,1644844533.5625,P08,D03,1,1,1
1548,0.48,1644844533.578125,P08,D03,1,1,1
1549,0.57,1644844533.59375,P08,D03,1,1,1
1550,0.55,1644844533.609375,P08,D03,1,1,1
1551,0.43,1644844533.625,P08,D03,1,1,1
1552,0.27,1644844533.640625,P08,D03,1,1,1
1553,0.11,1644844533.65625,P08,D03,1,1,1
1554,-0.02,1644844533.671875,P08,D03,1,1,1
1555,-0.11,1644844533.6875,P08,D03,1,1,1
1556,-0.16,1644844533.703125,P08,D03,1,1,1
1557,-0.2,1644844533.71875,P08,D03,1,1,1
1558,-0.2,1644844533.734375,P08,D03,1,1,1
1559,-0.16,1644844533.75,P08,D03,1,1,1
1560,-0.07,1644844533.765625,P08,D03,1,1,1
1561,0.08,1644844533.78125,P08,D03,1,1,1
1562,0.28,1644844533.796875,P08,D03,1,1,1
1563,0.49,1644844533.8125,P08,D03,1,1,1
1564,0.68,1644844533.828125,P08,D03,1,1,1
1565,0.81,1644844533.84375,P08,D03,1,1,1
1566,0.85,1644844533.859375,P08,D03,1,1,1
1567,0.8,1644844533.875,P08,D03,1,1,1
1568,0.68,1644844533.890625,P08,D03,1,1,1
1569,0.5,1644844533.90625,P08,D03,1,1,1
1570,0.31,1644844533.921875,P08,D03,1,1,1
1571,0.12,1644844533.9375,P08,D03,1,1,1
1572,-0.08,1644844533.953125,P08,D03,1,1,1
1573,-0.28,1644844533.96875,P08,D03,1,1,1
1574,-0.47,1644844533.984375,P08,D03,1,1,1
1575,-0.64,1644844534.0,P08,D03,1,1,1
1576,-0.74,1644844534.015625,P08,D03,1,1,1
1577,-0.73,1644844534.03125,P08,D03,1,1,1
1578,-0.59,1644844534.046875,P08,D03,1,1,1
1579,-0.34,1644844534.0625,P08,D03,1,1,1
1580,-0.05,1644844534.078125,P08,D03,1,1,1
1581,0.16,1644844534.09375,P08,D03,1,1,1
1582,0.22,1644844534.109375,P08,D03,1,1,1
1583,0.16,1644844534.125,P08,D03,1,1,1
1584,0.04,1644844534.140625,P08,D03,1,1,1
1585,-0.01,1644844534.15625,P08,D03,1,1,1
1586,0.06,1644844534.171875,P08,D03,1,1,1
1587,0.19,1644844534.1875,P08,D03,1,1,1
1588,0.25,1644844534.203125,P08,D03,1,1,1
1589,0.13,1644844534.21875,P08,D03,1,1,1
1590,-0.22,1644844534.234375,P08,D03,1,1,1
1591,-0.69,1644844534.25,P08,D03,1,1,1
1592,-1.12,1644844534.265625,P08,D03,1,1,1
1593,-1.37,1644844534.28125,P08,D03,1,1,1
1594,-1.41,1644844534.296875,P08,D03,1,1,1
1595,-1.27,1644844534.3125,P08,D03,1,1,1
1596,-1.02,1644844534.328125,P08,D03,1,1,1
1597,-0.72,1644844534.34375,P08,D03,1,1,1
1598,-0.38,1644844534.359375,P08,D03,1,1,1
1599,-0.02,1644844534.375,P08,D03,1,1,1
1600,0.28,1644844534.390625,P08,D03,1,1,1
1601,0.43,1644844534.40625,P08,D03,1,1,1
1602,0.32,1644844534.421875,P08,D03,1,1,1
1603,-0.02,1644844534.4375,P08,D03,1,1,1
1604,-0.47,1644844534.453125,P08,D03,1,1,1
1605,-0.85,1644844534.46875,P08,D03,1,1,1
1606,-1.02,1644844534.484375,P08,D03,1,1,1
1607,-0.92,1644844534.5,P08,D03,1,1,1
1608,-0.66,1644844534.515625,P08,D03,1,1,1
1609,-0.37,1644844534.53125,P08,D03,1,1,1
1610,-0.18,1644844534.546875,P08,D03,1,1,1
1611,-0.14,1644844534.5625,P08,D03,1,1,1
1612,-0.17,1644844534.578125,P08,D03,1,1,1
1613,-0.21,1644844534.59375,P08,D03,1,1,1
1614,-0.15,1644844534.609375,P08,D03,1,1,1
1615,0.03,1644844534.625,P08,D03,1,1,1
1616,0.32,1644844534.640625,P08,D03,1,1,1
1617,0.66,1644844534.65625,P08,D03,1,1,1
1618,0.96,1644844534.671875,P08,D03,1,1,1
1619,1.15,1644844534.6875,P08,D03,1,1,1
1620,1.16,1644844534.703125,P08,D03,1,1,1
1621,0.99,1644844534.71875,P08,D03,1,1,1
1622,0.69,1644844534.734375,P08,D03,1,1,1
1623,0.36,1644844534.75,P08,D03,1,1,1
1624,0.12,1644844534.765625,P08,D03,1,1,1
1625,0.06,1644844534.78125,P08,D03,1,1,1
1626,0.17,1644844534.796875,P08,D03,1,1,1
1627,0.39,1644844534.8125,P08,D03,1,1,1
1628,0.59,1644844534.828125,P08,D03,1,1,1
1629,0.69,1644844534.84375,P08,D03,1,1,1
1630,0.65,1644844534.859375,P08,D03,1,1,1
1631,0.48,1644844534.875,P08,D03,1,1,1
1632,0.25,1644844534.890625,P08,D03,1,1,1
1633,0.03,1644844534.90625,P08,D03,1,1,1
1634,-0.15,1644844534.921875,P08,D03,1,1,1
1635,-0.26,1644844534.9375,P08,D03,1,1,1
1636,-0.3,1644844534.953125,P08,D03,1,1,1
1637,-0.25,1644844534.96875,P08,D03,1,1,1
1638,-0.13,1644844534.984375,P08,D03,1,1,1
1639,0.05,1644844535.0,P08,D03,1,1,1
1640,0.26,1644844535.015625,P08,D03,1,1,1
1641,0.42,1644844535.03125,P08,D03,1,1,1
1642,0.47,1644844535.046875,P08,D03,1,1,1
1643,0.4,1644844535.0625,P08,D03,1,1,1
1644,0.21,1644844535.078125,P08,D03,1,1,1
1645,-0.02,1644844535.09375,P08,D03,1,1,1
1646,-0.22,1644844535.109375,P08,D03,1,1,1
1647,-0.33,1644844535.125,P08,D03,1,1,1
1648,-0.34,1644844535.140625,P08,D03,1,1,1
1649,-0.3,1644844535.15625,P08,D03,1,1,1
1650,-0.26,1644844535.171875,P08,D03,1,1,1
1651,-0.24,1644844535.1875,P08,D03,1,1,1
1652,-0.25,1644844535.203125,P08,D03,1,1,1
1653,-0.25,1644844535.21875,P08,D03,1,1,1
1654,-0.22,1644844535.234375,P08,D03,1,1,1
1655,-0.17,1644844535.25,P08,D03,1,1,1
1656,-0.11,1644844535.265625,P08,D03,1,1,1
1657,-0.04,1644844535.28125,P08,D03,1,1,1
1658,0.01,1644844535.296875,P08,D03,1,1,1
1659,0.07,1644844535.3125,P08,D03,1,1,1
1660,0.13,1644844535.328125,P08,D03,1,1,1
1661,0.17,1644844535.34375,P08,D03,1,1,1
1662,0.16,1644844535.359375,P08,D03,1,1,1
1663,0.08,1644844535.375,P08,D03,1,1,1
1664,-0.03,1644844535.390625,P08,D03,1,1,1
1665,-0.12,1644844535.40625,P08,D03,1,1,1
1666,-0.11,1644844535.421875,P08,D03,1,1,1
1667,-0.0,1644844535.4375,P08,D03,1,1,1
1668,0.19,1644844535.453125,P08,D03,1,1,1
1669,0.4,1644844535.46875,P08,D03,1,1,1
1670,0.53,1644844535.484375,P08,D03,1,1,1
1671,0.56,1644844535.5,P08,D03,1,1,1
1672,0.48,1644844535.515625,P08,D03,1,1,1
1673,0.34,1644844535.53125,P08,D03,1,1,1
1674,0.24,1644844535.546875,P08,D03,1,1,1
1675,0.21,1644844535.5625,P08,D03,1,1,1
1676,0.27,1644844535.578125,P08,D03,1,1,1
1677,0.35,1644844535.59375,P08,D03,1,1,1
1678,0.36,1644844535.609375,P08,D03,1,1,1
1679,0.23,1644844535.625,P08,D03,1,1,1
1680,-0.03,1644844535.640625,P08,D03,1,1,1
1681,-0.36,1644844535.65625,P08,D03,1,1,1
1682,-0.59,1644844535.671875,P08,D03,1,1,1
1683,-0.64,1644844535.6875,P08,D03,1,1,1
1684,-0.49,1644844535.703125,P08,D03,1,1,1
1685,-0.24,1644844535.71875,P08,D03,1,1,1
1686,-0.02,1644844535.734375,P08,D03,1,1,1
1687,0.1,1644844535.75,P08,D03,1,1,1
1688,0.11,1644844535.765625,P08,D03,1,1,1
1689,0.11,1644844535.78125,P08,D03,1,1,1
1690,0.17,1644844535.796875,P08,D03,1,1,1
1691,0.3,1644844535.8125,P08,D03,1,1,1
1692,0.45,1644844535.828125,P08,D03,1,1,1
1693,0.54,1644844535.84375,P08,D03,1,1,1
1694,0.5,1644844535.859375,P08,D03,1,1,1
1695,0.34,1644844535.875,P08,D03,1,1,1
1696,0.11,1644844535.890625,P08,D03,1,1,1
1697,-0.09,1644844535.90625,P08,D03,1,1,1
1698,-0.19,1644844535.921875,P08,D03,1,1,1
1699,-0.16,1644844535.9375,P08,D03,1,1,1
1700,-0.04,1644844535.953125,P08,D03,1,1,1
1701,0.11,1644844535.96875,P08,D03,1,1,1
1702,0.19,1644844535.984375,P08,D03,1,1,1
1703,0.11,1644844536.0,P08,D03,1,1,1
1704,-0.12,1644844536.015625,P08,D03,1,1,1
1705,-0.46,1644844536.03125,P08,D03,1,1,1
1706,-0.79,1644844536.046875,P08,D03,1,1,1
1707,-1.0,1644844536.0625,P08,D03,1,1,1
1708,-1.03,1644844536.078125,P08,D03,1,1,1
1709,-0.92,1644844536.09375,P08,D03,1,1,1
1710,-0.73,1644844536.109375,P08,D03,1,1,1
1711,-0.51,1644844536.125,P08,D03,1,1,1
1712,-0.25,1644844536.140625,P08,D03,1,1,1
1713,0.11,1644844536.15625,P08,D03,1,1,1
1714,0.56,1644844536.171875,P08,D03,1,1,1
1715,1.04,1644844536.1875,P08,D03,1,1,1
1716,1.4,1644844536.203125,P08,D03,1,1,1
1717,1.48,1644844536.21875,P08,D03,1,1,1
1718,1.25,1644844536.234375,P08,D03,1,1,1
1719,0.77,1644844536.25,P08,D03,1,1,1
1720,0.24,1644844536.265625,P08,D03,1,1,1
1721,-0.15,1644844536.28125,P08,D03,1,1,1
1722,-0.32,1644844536.296875,P08,D03,1,1,1
1723,-0.29,1644844536.3125,P08,D03,1,1,1
1724,-0.17,1644844536.328125,P08,D03,1,1,1
1725,-0.08,1644844536.34375,P08,D03,1,1,1
1726,-0.06,1644844536.359375,P08,D03,1,1,1
1727,-0.1,1644844536.375,P08,D03,1,1,1
1728,-0.14,1644844536.390625,P08,D03,1,1,1
1729,-0.15,1644844536.40625,P08,D03,1,1,1
1730,-0.14,1644844536.421875,P08,D03,1,1,1
1731,-0.15,1644844536.4375,P08,D03,1,1,1
1732,-0.21,1644844536.453125,P08,D03,1,1,1
1733,-0.31,1644844536.46875,P08,D03,1,1,1
1734,-0.41,1644844536.484375,P08,D03,1,1,1
1735,-0.48,1644844536.5,P08,D03,1,1,1
1736,-0.45,1644844536.515625,P08,D03,1,1,1
1737,-0.32,1644844536.53125,P08,D03,1,1,1
1738,-0.09,1644844536.546875,P08,D03,1,1,1
1739,0.2,1644844536.5625,P08,D03,1,1,1
1740,0.5,1644844536.578125,P08,D03,1,1,1
1741,0.75,1644844536.59375,P08,D03,1,1,1
1742,0.92,1644844536.609375,P08,D03,1,1,1
1743,0.97,1644844536.625,P08,D03,1,1,1
1744,0.94,1644844536.640625,P08,D03,1,1,1
1745,0.83,1644844536.65625,P08,D03,1,1,1
1746,0.66,1644844536.671875,P08,D03,1,1,1
1747,0.44,1644844536.6875,P08,D03,1,1,1
1748,0.15,1644844536.703125,P08,D03,1,1,1
1749,-0.17,1644844536.71875,P08,D03,1,1,1
1750,-0.46,1644844536.734375,P08,D03,1,1,1
1751,-0.67,1644844536.75,P08,D03,1,1,1
1752,-0.74,1644844536.765625,P08,D03,1,1,1
1753,-0.67,1644844536.78125,P08,D03,1,1,1
1754,-0.52,1644844536.796875,P08,D03,1,1,1
1755,-0.36,1644844536.8125,P08,D03,1,1,1
1756,-0.26,1644844536.828125,P08,D03,1,1,1
1757,-0.22,1644844536.84375,P08,D03,1,1,1
1758,-0.24,1644844536.859375,P08,D03,1,1,1
1759,-0.3,1644844536.875,P08,D03,1,1,1
1760,-0.4,1644844536.890625,P08,D03,1,1,1
1761,-0.54,1644844536.90625,P08,D03,1,1,1
1762,-0.73,1644844536.921875,P08,D03,1,1,1
1763,-0.94,1644844536.9375,P08,D03,1,1,1
1764,-1.09,1644844536.953125,P08,D03,1,1,1
1765,-1.12,1644844536.96875,P08,D03,1,1,1
1766,-0.97,1644844536.984375,P08,D03,1,1,1
1767,-0.65,1644844537.0,P08,D03,1,1,1
1768,-0.23,1644844537.015625,P08,D03,1,1,1
1769,0.16,1644844537.03125,P08,D03,1,1,1
1770,0.46,1644844537.046875,P08,D03,1,1,1
1771,0.63,1644844537.0625,P08,D03,1,1,1
1772,0.72,1644844537.078125,P08,D03,1,1,1
1773,0.78,1644844537.09375,P08,D03,1,1,1
1774,0.83,1644844537.109375,P08,D03,1,1,1
1775,0.87,1644844537.125,P08,D03,1,1,1
1776,0.85,1644844537.140625,P08,D03,1,1,1
1777,0.72,1644844537.15625,P08,D03,1,1,1
1778,0.5,1644844537.171875,P08,D03,1,1,1
1779,0.25,1644844537.1875,P08,D03,1,1,1
1780,0.02,1644844537.203125,P08,D03,1,1,1
1781,-0.16,1644844537.21875,P08,D03,1,1,1
1782,-0.29,1644844537.234375,P08,D03,1,1,1
1783,-0.41,1644844537.25,P08,D03,1,1,1
1784,-0.54,1644844537.265625,P08,D03,1,1,1
1785,-0.65,1644844537.28125,P08,D03,1,1,1
1786,-0.69,1644844537.296875,P08,D03,1,1,1
1787,-0.65,1644844537.3125,P08,D03,1,1,1
1788,-0.53,1644844537.328125,P08,D03,1,1,1
1789,-0.37,1644844537.34375,P08,D03,1,1,1
1790,-0.23,1644844537.359375,P08,D03,1,1,1
1791,-0.12,1644844537.375,P08,D03,1,1,1
1792,-0.08,1644844537.390625,P08,D03,1,1,1
1793,-0.06,1644844537.40625,P08,D03,1,1,1
1794,-0.06,1644844537.421875,P08,D03,1,1,1
1795,-0.11,1644844537.4375,P08,D03,1,1,1
1796,-0.22,1644844537.453125,P08,D03,1,1,1
1797,-0.37,1644844537.46875,P08,D03,1,1,1
1798,-0.5,1644844537.484375,P08,D03,1,1,1
1799,-0.48,1644844537.5,P08,D03,1,1,1
1800,-0.22,1644844537.515625,P08,D03,1,1,1
1801,0.27,1644844537.53125,P08,D03,1,1,1
1802,0.87,1644844537.546875,P08,D03,1,1,1
1803,1.37,1644844537.5625,P08,D03,1,1,1
1804,1.58,1644844537.578125,P08,D03,1,1,1
1805,1.43,1644844537.59375,P08,D03,1,1,1
1806,1.0,1644844537.609375,P08,D03,1,1,1
1807,0.46,1644844537.625,P08,D03,1,1,1
1808,-0.01,1644844537.640625,P08,D03,1,1,1
1809,-0.3,1644844537.65625,P08,D03,1,1,1
1810,-0.41,1644844537.671875,P08,D03,1,1,1
1811,-0.39,1644844537.6875,P08,D03,1,1,1
1812,-0.32,1644844537.703125,P08,D03,1,1,1
1813,-0.23,1644844537.71875,P08,D03,1,1,1
1814,-0.15,1644844537.734375,P08,D03,1,1,1
1815,-0.07,1644844537.75,P08,D03,1,1,1
1816,-0.02,1644844537.765625,P08,D03,1,1,1
1817,-0.01,1644844537.78125,P08,D03,1,1,1
1818,-0.05,1644844537.796875,P08,D03,1,1,1
1819,-0.11,1644844537.8125,P08,D03,1,1,1
1820,-0.13,1644844537.828125,P08,D03,1,1,1
1821,-0.06,1644844537.84375,P08,D03,1,1,1
1822,0.09,1644844537.859375,P08,D03,1,1,1
1823,0.29,1644844537.875,P08,D03,1,1,1
1824,0.43,1644844537.890625,P08,D03,1,1,1
1825,0.43,1644844537.90625,P08,D03,1,1,1
1826,0.26,1644844537.921875,P08,D03,1,1,1
1827,-0.08,1644844537.9375,P08,D03,1,1,1
1828,-0.5,1644844537.953125,P08,D03,1,1,1
1829,-0.87,1644844537.96875,P08,D03,1,1,1
1830,-1.1,1644844537.984375,P08,D03,1,1,1
1831,-1.13,1644844538.0,P08,D03,1,1,1
1832,-0.99,1644844538.015625,P08,D03,1,1,1
1833,-0.75,1644844538.03125,P08,D03,1,1,1
1834,-0.5,1644844538.046875,P08,D03,1,1,1
1835,-0.28,1644844538.0625,P08,D03,1,1,1
1836,-0.12,1644844538.078125,P08,D03,1,1,1
1837,-0.04,1644844538.09375,P08,D03,1,1,1
1838,-0.04,1644844538.109375,P08,D03,1,1,1
1839,-0.12,1644844538.125,P08,D03,1,1,1
1840,-0.23,1644844538.140625,P08,D03,1,1,1
1841,-0.3,1644844538.15625,P08,D03,1,1,1
1842,-0.25,1644844538.171875,P08,D03,1,1,1
1843,-0.06,1644844538.1875,P08,D03,1,1,1
1844,0.22,1644844538.203125,P08,D03,1,1,1
1845,0.48,1644844538.21875,P08,D03,1,1,1
1846,0.58,1644844538.234375,P08,D03,1,1,1
1847,0.46,1644844538.25,P08,D03,1,1,1
1848,0.14,1644844538.265625,P08,D03,1,1,1
1849,-0.25,1644844538.28125,P08,D03,1,1,1
1850,-0.58,1644844538.296875,P08,D03,1,1,1
1851,-0.77,1644844538.3125,P08,D03,1,1,1
1852,-0.79,1644844538.328125,P08,D03,1,1,1
1853,-0.7,1644844538.34375,P08,D03,1,1,1
1854,-0.53,1644844538.359375,P08,D03,1,1,1
1855,-0.35,1644844538.375,P08,D03,1,1,1
1856,-0.17,1644844538.390625,P08,D03,1,1,1
1857,-0.01,1644844538.40625,P08,D03,1,1,1
1858,0.1,1644844538.421875,P08,D03,1,1,1
1859,0.15,1644844538.4375,P08,D03,1,1,1
1860,0.14,1644844538.453125,P08,D03,1,1,1
1861,0.11,1644844538.46875,P08,D03,1,1,1
1862,0.13,1644844538.484375,P08,D03,1,1,1
1863,0.26,1644844538.5,P08,D03,1,1,1
1864,0.54,1644844538.515625,P08,D03,1,1,1
1865,0.9,1644844538.53125,P08,D03,1,1,1
1866,1.23,1644844538.546875,P08,D03,1,1,1
1867,1.45,1644844538.5625,P08,D03,1,1,1
1868,1.47,1644844538.578125,P08,D03,1,1,1
1869,1.31,1644844538.59375,P08,D03,1,1,1
1870,1.04,1644844538.609375,P08,D03,1,1,1
1871,0.75,1644844538.625,P08,D03,1,1,1
1872,0.48,1644844538.640625,P08,D03,1,1,1
1873,0.25,1644844538.65625,P08,D03,1,1,1
1874,0.07,1644844538.671875,P08,D03,1,1,1
1875,-0.08,1644844538.6875,P08,D03,1,1,1
1876,-0.18,1644844538.703125,P08,D03,1,1,1
1877,-0.22,1644844538.71875,P08,D03,1,1,1
1878,-0.17,1644844538.734375,P08,D03,1,1,1
1879,-0.07,1644844538.75,P08,D03,1,1,1
1880,0.05,1644844538.765625,P08,D03,1,1,1
1881,0.15,1644844538.78125,P08,D03,1,1,1
1882,0.19,1644844538.796875,P08,D03,1,1,1
1883,0.19,1644844538.8125,P08,D03,1,1,1
1884,0.18,1644844538.828125,P08,D03,1,1,1
1885,0.21,1644844538.84375,P08,D03,1,1,1
1886,0.3,1644844538.859375,P08,D03,1,1,1
1887,0.46,1644844538.875,P08,D03,1,1,1
1888,0.63,1644844538.890625,P08,D03,1,1,1
1889,0.74,1644844538.90625,P08,D03,1,1,1
1890,0.69,1644844538.921875,P08,D03,1,1,1
1891,0.4,1644844538.9375,P08,D03,1,1,1
1892,-0.09,1644844538.953125,P08,D03,1,1,1
1893,-0.66,1644844538.96875,P08,D03,1,1,1
1894,-1.1,1644844538.984375,P08,D03,1,1,1
1895,-1.23,1644844539.0,P08,D03,1,1,1
1896,-0.95,1644844539.015625,P08,D03,1,1,1
1897,-0.34,1644844539.03125,P08,D03,1,1,1
1898,0.41,1644844539.046875,P08,D03,1,1,1
1899,1.06,1644844539.0625,P08,D03,1,1,1
1900,1.44,1644844539.078125,P08,D03,1,1,1
1901,1.51,1644844539.09375,P08,D03,1,1,1
1902,1.33,1644844539.109375,P08,D03,1,1,1
1903,1.07,1644844539.125,P08,D03,1,1,1
1904,0.83,1644844539.140625,P08,D03,1,1,1
1905,0.66,1644844539.15625,P08,D03,1,1,1
1906,0.52,1644844539.171875,P08,D03,1,1,1
1907,0.35,1644844539.1875,P08,D03,1,1,1
1908,0.12,1644844539.203125,P08,D03,1,1,1
1909,-0.11,1644844539.21875,P08,D03,1,1,1
1910,-0.28,1644844539.234375,P08,D03,1,1,1
1911,-0.32,1644844539.25,P08,D03,1,1,1
1912,-0.26,1644844539.265625,P08,D03,1,1,1
1913,-0.19,1644844539.28125,P08,D03,1,1,1
1914,-0.2,1644844539.296875,P08,D03,1,1,1
1915,-0.32,1644844539.3125,P08,D03,1,1,1
1916,-0.51,1644844539.328125,P08,D03,1,1,1
1917,-0.68,1644844539.34375,P08,D03,1,1,1
1918,-0.75,1644844539.359375,P08,D03,1,1,1
1919,-0.71,1644844539.375,P08,D03,1,1,1
1920,-0.63,1644844539.390625,P08,D03,1,1,1
1921,-0.6,1644844539.40625,P08,D03,1,1,1
1922,-0.65,1644844539.421875,P08,D03,1,1,1
1923,-0.76,1644844539.4375,P08,D03,1,1,1
1924,-0.87,1644844539.453125,P08,D03,1,1,1
1925,-0.91,1644844539.46875,P08,D03,1,1,1
1926,-0.8,1644844539.484375,P08,D03,1,1,1
1927,-0.54,1644844539.5,P08,D03,1,1,1
1928,-0.16,1644844539.515625,P08,D03,1,1,1
1929,0.26,1644844539.53125,P08,D03,1,1,1
1930,0.59,1644844539.546875,P08,D03,1,1,1
1931,0.74,1644844539.5625,P08,D03,1,1,1
1932,0.69,1644844539.578125,P08,D03,1,1,1
1933,0.45,1644844539.59375,P08,D03,1,1,1
1934,0.13,1644844539.609375,P08,D03,1,1,1
1935,-0.13,1644844539.625,P08,D03,1,1,1
1936,-0.23,1644844539.640625,P08,D03,1,1,1
1937,-0.15,1644844539.65625,P08,D03,1,1,1
1938,0.06,1644844539.671875,P08,D03,1,1,1
1939,0.3,1644844539.6875,P08,D03,1,1,1
1940,0.45,1644844539.703125,P08,D03,1,1,1
1941,0.48,1644844539.71875,P08,D03,1,1,1
1942,0.4,1644844539.734375,P08,D03,1,1,1
1943,0.31,1644844539.75,P08,D03,1,1,1
1944,0.28,1644844539.765625,P08,D03,1,1,1
1945,0.31,1644844539.78125,P08,D03,1,1,1
1946,0.38,1644844539.796875,P08,D03,1,1,1
1947,0.38,1644844539.8125,P08,D03,1,1,1
1948,0.27,1644844539.828125,P08,D03,1,1,1
1949,0.02,1644844539.84375,P08,D03,1,1,1
1950,-0.29,1644844539.859375,P08,D03,1,1,1
1951,-0.58,1644844539.875,P08,D03,1,1,1
1952,-0.79,1644844539.890625,P08,D03,1,1,1
1953,-0.91,1644844539.90625,P08,D03,1,1,1
1954,-0.96,1644844539.921875,P08,D03,1,1,1
1955,-0.99,1644844539.9375,P08,D03,1,1,1
1956,-0.97,1644844539.953125,P08,D03,1,1,1
1957,-0.87,1644844539.96875,P08,D03,1,1,1
1958,-0.7,1644844539.984375,P08,D03,1,1,1
1959,-0.51,1644844540.0,P08,D03,1,1,1
1960,-0.39,1644844540.015625,P08,D03,1,1,1
1961,-0.39,1644844540.03125,P08,D03,1,1,1
1962,-0.53,1644844540.046875,P08,D03,1,1,1
1963,-0.73,1644844540.0625,P08,D03,1,1,1
1964,-0.85,1644844540.078125,P08,D03,1,1,1
1965,-0.82,1644844540.09375,P08,D03,1,1,1
1966,-0.61,1644844540.109375,P08,D03,1,1,1
1967,-0.3,1644844540.125,P08,D03,1,1,1
1968,0.01,1644844540.140625,P08,D03,1,1,1
1969,0.21,1644844540.15625,P08,D03,1,1,1
1970,0.25,1644844540.171875,P08,D03,1,1,1
1971,0.16,1644844540.1875,P08,D03,1,1,1
1972,0.03,1644844540.203125,P08,D03,1,1,1
1973,-0.08,1644844540.21875,P08,D03,1,1,1
1974,-0.1,1644844540.234375,P08,D03,1,1,1
1975,-0.04,1644844540.25,P08,D03,1,1,1
1976,0.1,1644844540.265625,P08,D03,1,1,1
1977,0.27,1644844540.28125,P08,D03,1,1,1
1978,0.45,1644844540.296875,P08,D03,1,1,1
1979,0.63,1644844540.3125,P08,D03,1,1,1
1980,0.79,1644844540.328125,P08,D03,1,1,1
1981,0.92,1644844540.34375,P08,D03,1,1,1
1982,1.0,1644844540.359375,P08,D03,1,1,1
1983,0.96,1644844540.375,P08,D03,1,1,1
1984,0.8,1644844540.390625,P08,D03,1,1,1
1985,0.52,1644844540.40625,P08,D03,1,1,1
1986,0.21,1644844540.421875,P08,D03,1,1,1
1987,-0.03,1644844540.4375,P08,D03,1,1,1
1988,-0.14,1644844540.453125,P08,D03,1,1,1
1989,-0.08,1644844540.46875,P08,D03,1,1,1
1990,0.09,1644844540.484375,P08,D03,1,1,1
1991,0.26,1644844540.5,P08,D03,1,1,1
1992,0.37,1644844540.515625,P08,D03,1,1,1
1993,0.36,1644844540.53125,P08,D03,1,1,1
1994,0.28,1644844540.546875,P08,D03,1,1,1
1995,0.18,1644844540.5625,P08,D03,1,1,1
1996,0.12,1644844540.578125,P08,D03,1,1,1
1997,0.11,1644844540.59375,P08,D03,1,1,1
1998,0.13,1644844540.609375,P08,D03,1,1,1
1999,0.16,1644844540.625,P08,D03,1,1,1
2000,0.17,1644844540.640625,P08,D03,1,1,1
2001,0.17,1644844540.65625,P08,D03,1,1,1
2002,0.16,1644844540.671875,P08,D03,1,1,1
2003,0.15,1644844540.6875,P08,D03,1,1,1
2004,0.12,1644844540.703125,P08,D03,1,1,1
2005,0.05,1644844540.71875,P08,D03,1,1,1
2006,-0.08,1644844540.734375,P08,D03,1,1,1
2007,-0.25,1644844540.75,P08,D03,1,1,1
2008,-0.42,1644844540.765625,P08,D03,1,1,1
2009,-0.54,1644844540.78125,P08,D03,1,1,1
2010,-0.59,1644844540.796875,P08,D03,1,1,1
2011,-0.55,1644844540.8125,P08,D03,1,1,1
2012,-0.47,1644844540.828125,P08,D03,1,1,1
2013,-0.39,1644844540.84375,P08,D03,1,1,1
2014,-0.36,1644844540.859375,P08,D03,1,1,1
2015,-0.41,1644844540.875,P08,D03,1,1,1
2016,-0.51,1644844540.890625,P08,D03,1,1,1
2017,-0.6,1644844540.90625,P08,D03,1,1,1
2018,-0.63,1644844540.921875,P08,D03,1,1,1
2019,-0.52,1644844540.9375,P08,D03,1,1,1
2020,-0.27,1644844540.953125,P08,D03,1,1,1
2021,0.06,1644844540.96875,P08,D03,1,1,1
2022,0.39,1644844540.984375,P08,D03,1,1,1
2023,0.61,1644844541.0,P08,D03,1,1,1
2024,0.69,1644844541.015625,P08,D03,1,1,1
2025,0.63,1644844541.03125,P08,D03,1,1,1
2026,0.52,1644844541.046875,P08,D03,1,1,1
2027,0.42,1644844541.0625,P08,D03,1,1,1
2028,0.33,1644844541.078125,P08,D03,1,1,1
2029,0.22,1644844541.09375,P08,D03,1,1,1
2030,0.04,1644844541.109375,P08,D03,1,1,1
2031,-0.19,1644844541.125,P08,D03,1,1,1
2032,-0.39,1644844541.140625,P08,D03,1,1,1
2033,-0.46,1644844541.15625,P08,D03,1,1,1
2034,-0.33,1644844541.171875,P08,D03,1,1,1
2035,-0.09,1644844541.1875,P08,D03,1,1,1
2036,0.12,1644844541.203125,P08,D03,1,1,1
2037,0.16,1644844541.21875,P08,D03,1,1,1
2038,-0.05,1644844541.234375,P08,D03,1,1,1
2039,-0.4,1644844541.25,P08,D03,1,1,1
2040,-0.75,1644844541.265625,P08,D03,1,1,1
2041,-0.92,1644844541.28125,P08,D03,1,1,1
2042,-0.85,1644844541.296875,P08,D03,1,1,1
2043,-0.58,1644844541.3125,P08,D03,1,1,1
2044,-0.23,1644844541.328125,P08,D03,1,1,1
2045,0.09,1644844541.34375,P08,D03,1,1,1
2046,0.32,1644844541.359375,P08,D03,1,1,1
2047,0.48,1644844541.375,P08,D03,1,1,1
2048,0.59,1644844541.390625,P08,D03,1,1,1
2049,0.69,1644844541.40625,P08,D03,1,1,1
2050,0.75,1644844541.421875,P08,D03,1,1,1
2051,0.76,1644844541.4375,P08,D03,1,1,1
2052,0.68,1644844541.453125,P08,D03,1,1,1
2053,0.49,1644844541.46875,P08,D03,1,1,1
2054,0.22,1644844541.484375,P08,D03,1,1,1
2055,-0.11,1644844541.5,P08,D03,1,1,1
2056,-0.47,1644844541.515625,P08,D03,1,1,1
2057,-0.83,1644844541.53125,P08,D03,1,1,1
2058,-1.13,1644844541.546875,P08,D03,1,1,1
2059,-1.32,1644844541.5625,P08,D03,1,1,1
2060,-1.33,1644844541.578125,P08,D03,1,1,1
2061,-1.12,1644844541.59375,P08,D03,1,1,1
2062,-0.75,1644844541.609375,P08,D03,1,1,1
2063,-0.28,1644844541.625,P08,D03,1,1,1
2064,0.16,1644844541.640625,P08,D03,1,1,1
2065,0.5,1644844541.65625,P08,D03,1,1,1
2066,0.74,1644844541.671875,P08,D03,1,1,1
2067,0.92,1644844541.6875,P08,D03,1,1,1
2068,1.08,1644844541.703125,P08,D03,1,1,1
2069,1.21,1644844541.71875,P08,D03,1,1,1
2070,1.25,1644844541.734375,P08,D03,1,1,1
2071,1.11,1644844541.75,P08,D03,1,1,1
2072,0.79,1644844541.765625,P08,D03,1,1,1
2073,0.35,1644844541.78125,P08,D03,1,1,1
2074,-0.05,1644844541.796875,P08,D03,1,1,1
2075,-0.28,1644844541.8125,P08,D03,1,1,1
2076,-0.31,1644844541.828125,P08,D03,1,1,1
2077,-0.21,1644844541.84375,P08,D03,1,1,1
2078,-0.11,1644844541.859375,P08,D03,1,1,1
2079,-0.13,1644844541.875,P08,D03,1,1,1
2080,-0.26,1644844541.890625,P08,D03,1,1,1
2081,-0.39,1644844541.90625,P08,D03,1,1,1
2082,-0.39,1644844541.921875,P08,D03,1,1,1
2083,-0.18,1644844541.9375,P08,D03,1,1,1
2084,0.19,1644844541.953125,P08,D03,1,1,1
2085,0.61,1644844541.96875,P08,D03,1,1,1
2086,0.95,1644844541.984375,P08,D03,1,1,1
2087,1.14,1644844542.0,P08,D03,1,1,1
2088,1.17,1644844542.015625,P08,D03,1,1,1
2089,1.08,1644844542.03125,P08,D03,1,1,1
2090,0.9,1644844542.046875,P08,D03,1,1,1
2091,0.64,1644844542.0625,P08,D03,1,1,1
2092,0.26,1644844542.078125,P08,D03,1,1,1
2093,-0.2,1644844542.09375,P08,D03,1,1,1
2094,-0.68,1644844542.109375,P08,D03,1,1,1
2095,-1.11,1644844542.125,P08,D03,1,1,1
2096,-1.37,1644844542.140625,P08,D03,1,1,1
2097,-1.45,1644844542.15625,P08,D03,1,1,1
2098,-1.36,1644844542.171875,P08,D03,1,1,1
2099,-1.17,1644844542.1875,P08,D03,1,1,1
2100,-0.92,1644844542.203125,P08,D03,1,1,1
2101,-0.64,1644844542.21875,P08,D03,1,1,1
2102,-0.34,1644844542.234375,P08,D03,1,1,1
2103,-0.03,1644844542.25,P08,D03,1,1,1
2104,0.23,1644844542.265625,P08,D03,1,1,1
2105,0.39,1644844542.28125,P08,D03,1,1,1
2106,0.37,1644844542.296875,P08,D03,1,1,1
2107,0.21,1644844542.3125,P08,D03,1,1,1
2108,-0.0,1644844542.328125,P08,D03,1,1,1
2109,-0.14,1644844542.34375,P08,D03,1,1,1
2110,-0.09,1644844542.359375,P08,D03,1,1,1
2111,0.15,1644844542.375,P08,D03,1,1,1
2112,0.49,1644844542.390625,P08,D03,1,1,1
2113,0.78,1644844542.40625,P08,D03,1,1,1
2114,0.9,1644844542.421875,P08,D03,1,1,1
2115,0.82,1644844542.4375,P08,D03,1,1,1
2116,0.63,1644844542.453125,P08,D03,1,1,1
2117,0.45,1644844542.46875,P08,D03,1,1,1
2118,0.39,1644844542.484375,P08,D03,1,1,1
2119,0.45,1644844542.5,P08,D03,1,1,1
2120,0.58,1644844542.515625,P08,D03,1,1,1
2121,0.68,1644844542.53125,P08,D03,1,1,1
2122,0.69,1644844542.546875,P08,D03,1,1,1
2123,0.6,1644844542.5625,P08,D03,1,1,1
2124,0.47,1644844542.578125,P08,D03,1,1,1
2125,0.32,1644844542.59375,P08,D03,1,1,1
2126,0.17,1644844542.609375,P08,D03,1,1,1
2127,-0.01,1644844542.625,P08,D03,1,1,1
2128,-0.21,1644844542.640625,P08,D03,1,1,1
2129,-0.42,1644844542.65625,P08,D03,1,1,1
2130,-0.61,1644844542.671875,P08,D03,1,1,1
2131,-0.74,1644844542.6875,P08,D03,1,1,1
2132,-0.81,1644844542.703125,P08,D03,1,1,1
2133,-0.84,1644844542.71875,P08,D03,1,1,1
2134,-0.9,1644844542.734375,P08,D03,1,1,1
2135,-0.98,1644844542.75,P08,D03,1,1,1
2136,-1.07,1644844542.765625,P08,D03,1,1,1
2137,-1.1,1644844542.78125,P08,D03,1,1,1
2138,-1.01,1644844542.796875,P08,D03,1,1,1
2139,-0.77,1644844542.8125,P08,D03,1,1,1
2140,-0.43,1644844542.828125,P08,D03,1,1,1
2141,-0.08,1644844542.84375,P08,D03,1,1,1
2142,0.22,1644844542.859375,P08,D03,1,1,1
2143,0.41,1644844542.875,P08,D03,1,1,1
2144,0.48,1644844542.890625,P08,D03,1,1,1
2145,0.45,1644844542.90625,P08,D03,1,1,1
2146,0.36,1644844542.921875,P08,D03,1,1,1
2147,0.24,1644844542.9375,P08,D03,1,1,1
2148,0.11,1644844542.953125,P08,D03,1,1,1
2149,-0.03,1644844542.96875,P08,D03,1,1,1
2150,-0.18,1644844542.984375,P08,D03,1,1,1
2151,-0.33,1644844543.0,P08,D03,1,1,1
2152,-0.47,1644844543.015625,P08,D03,1,1,1
2153,-0.56,1644844543.03125,P08,D03,1,1,1
2154,-0.58,1644844543.046875,P08,D03,1,1,1
2155,-0.52,1644844543.0625,P08,D03,1,1,1
2156,-0.41,1644844543.078125,P08,D03,1,1,1
2157,-0.28,1644844543.09375,P08,D03,1,1,1
2158,-0.16,1644844543.109375,P08,D03,1,1,1
2159,-0.07,1644844543.125,P08,D03,1,1,1
2160,0.01,1644844543.140625,P08,D03,1,1,1
2161,0.13,1644844543.15625,P08,D03,1,1,1
2162,0.32,1644844543.171875,P08,D03,1,1,1
2163,0.54,1644844543.1875,P08,D03,1,1,1
2164,0.74,1644844543.203125,P08,D03,1,1,1
2165,0.82,1644844543.21875,P08,D03,1,1,1
2166,0.73,1644844543.234375,P08,D03,1,1,1
2167,0.49,1644844543.25,P08,D03,1,1,1
2168,0.19,1644844543.265625,P08,D03,1,1,1
2169,-0.03,1644844543.28125,P08,D03,1,1,1
2170,-0.08,1644844543.296875,P08,D03,1,1,1
2171,0.05,1644844543.3125,P08,D03,1,1,1
2172,0.27,1644844543.328125,P08,D03,1,1,1
2173,0.44,1644844543.34375,P08,D03,1,1,1
2174,0.48,1644844543.359375,P08,D03,1,1,1
2175,0.39,1644844543.375,P08,D03,1,1,1
2176,0.24,1644844543.390625,P08,D03,1,1,1
2177,0.15,1644844543.40625,P08,D03,1,1,1
2178,0.17,1644844543.421875,P08,D03,1,1,1
2179,0.28,1644844543.4375,P08,D03,1,1,1
2180,0.41,1644844543.453125,P08,D03,1,1,1
2181,0.44,1644844543.46875,P08,D03,1,1,1
2182,0.32,1644844543.484375,P08,D03,1,1,1
2183,0.04,1644844543.5,P08,D03,1,1,1
2184,-0.29,1644844543.515625,P08,D03,1,1,1
2185,-0.57,1644844543.53125,P08,D03,1,1,1
2186,-0.68,1644844543.546875,P08,D03,1,1,1
2187,-0.56,1644844543.5625,P08,D03,1,1,1
2188,-0.26,1644844543.578125,P08,D03,1,1,1
2189,0.13,1644844543.59375,P08,D03,1,1,1
2190,0.49,1644844543.609375,P08,D03,1,1,1
2191,0.71,1644844543.625,P08,D03,1,1,1
2192,0.78,1644844543.640625,P08,D03,1,1,1
2193,0.76,1644844543.65625,P08,D03,1,1,1
2194,0.74,1644844543.671875,P08,D03,1,1,1
2195,0.78,1644844543.6875,P08,D03,1,1,1
2196,0.87,1644844543.703125,P08,D03,1,1,1
2197,0.94,1644844543.71875,P08,D03,1,1,1
2198,0.94,1644844543.734375,P08,D03,1,1,1
2199,0.84,1644844543.75,P08,D03,1,1,1
2200,0.69,1644844543.765625,P08,D03,1,1,1
2201,0.54,1644844543.78125,P08,D03,1,1,1
2202,0.42,1644844543.796875,P08,D03,1,1,1
2203,0.29,1644844543.8125,P08,D03,1,1,1
2204,0.11,1644844543.828125,P08,D03,1,1,1
2205,-0.16,1644844543.84375,P08,D03,1,1,1
2206,-0.47,1644844543.859375,P08,D03,1,1,1
2207,-0.75,1644844543.875,P08,D03,1,1,1
2208,-0.9,1644844543.890625,P08,D03,1,1,1
2209,-0.9,1644844543.90625,P08,D03,1,1,1
2210,-0.75,1644844543.921875,P08,D03,1,1,1
2211,-0.54,1644844543.9375,P08,D03,1,1,1
2212,-0.33,1644844543.953125,P08,D03,1,1,1
2213,-0.18,1644844543.96875,P08,D03,1,1,1
2214,-0.09,1644844543.984375,P08,D03,1,1,1
2215,-0.1,1644844544.0,P08,D03,1,1,1
2216,-0.19,1644844544.015625,P08,D03,1,1,1
2217,-0.34,1644844544.03125,P08,D03,1,1,1
2218,-0.51,1644844544.046875,P08,D03,1,1,1
2219,-0.64,1644844544.0625,P08,D03,1,1,1
2220,-0.67,1644844544.078125,P08,D03,1,1,1
2221,-0.57,1644844544.09375,P08,D03,1,1,1
2222,-0.4,1644844544.109375,P08,D03,1,1,1
2223,-0.24,1644844544.125,P08,D03,1,1,1
2224,-0.15,1644844544.140625,P08,D03,1,1,1
2225,-0.15,1644844544.15625,P08,D03,1,1,1
2226,-0.2,1644844544.171875,P08,D03,1,1,1
2227,-0.26,1644844544.1875,P08,D03,1,1,1
2228,-0.33,1644844544.203125,P08,D03,1,1,1
2229,-0.43,1644844544.21875,P08,D03,1,1,1
2230,-0.59,1644844544.234375,P08,D03,1,1,1
2231,-0.79,1644844544.25,P08,D03,1,1,1
2232,-0.98,1644844544.265625,P08,D03,1,1,1
2233,-1.05,1644844544.28125,P08,D03,1,1,1
2234,-0.93,1644844544.296875,P08,D03,1,1,1
2235,-0.64,1644844544.3125,P08,D03,1,1,1
2236,-0.28,1644844544.328125,P08,D03,1,1,1
2237,0.05,1644844544.34375,P08,D03,1,1,1
2238,0.26,1644844544.359375,P08,D03,1,1,1
2239,0.33,1644844544.375,P08,D03,1,1,1
2240,0.31,1644844544.390625,P08,D03,1,1,1
2241,0.28,1644844544.40625,P08,D03,1,1,1
2242,0.29,1644844544.421875,P08,D03,1,1,1
2243,0.34,1644844544.4375,P08,D03,1,1,1
2244,0.45,1644844544.453125,P08,D03,1,1,1
2245,0.62,1644844544.46875,P08,D03,1,1,1
2246,0.83,1644844544.484375,P08,D03,1,1,1
2247,1.03,1644844544.5,P08,D03,1,1,1
2248,1.16,1644844544.515625,P08,D03,1,1,1
2249,1.13,1644844544.53125,P08,D03,1,1,1
2250,0.88,1644844544.546875,P08,D03,1,1,1
2251,0.47,1644844544.5625,P08,D03,1,1,1
2252,-0.01,1644844544.578125,P08,D03,1,1,1
2253,-0.41,1644844544.59375,P08,D03,1,1,1
2254,-0.63,1644844544.609375,P08,D03,1,1,1
2255,-0.65,1644844544.625,P08,D03,1,1,1
2256,-0.52,1644844544.640625,P08,D03,1,1,1
2257,-0.3,1644844544.65625,P08,D03,1,1,1
2258,-0.05,1644844544.671875,P08,D03,1,1,1
2259,0.19,1644844544.6875,P08,D03,1,1,1
2260,0.42,1644844544.703125,P08,D03,1,1,1
2261,0.61,1644844544.71875,P08,D03,1,1,1
2262,0.72,1644844544.734375,P08,D03,1,1,1
2263,0.68,1644844544.75,P08,D03,1,1,1
2264,0.5,1644844544.765625,P08,D03,1,1,1
2265,0.22,1644844544.78125,P08,D03,1,1,1
2266,-0.06,1644844544.796875,P08,D03,1,1,1
2267,-0.23,1644844544.8125,P08,D03,1,1,1
2268,-0.24,1644844544.828125,P08,D03,1,1,1
2269,-0.11,1644844544.84375,P08,D03,1,1,1
2270,0.04,1644844544.859375,P08,D03,1,1,1
2271,0.09,1644844544.875,P08,D03,1,1,1
2272,-0.05,1644844544.890625,P08,D03,1,1,1
2273,-0.34,1644844544.90625,P08,D03,1,1,1
2274,-0.68,1644844544.921875,P08,D03,1,1,1
2275,-0.91,1644844544.9375,P08,D03,1,1,1
2276,-0.93,1644844544.953125,P08,D03,1,1,1
2277,-0.73,1644844544.96875,P08,D03,1,1,1
2278,-0.42,1644844544.984375,P08,D03,1,1,1
2279,-0.1,1644844545.0,P08,D03,1,1,1
2280,0.12,1644844545.015625,P08,D03,1,1,1
2281,0.22,1644844545.03125,P08,D03,1,1,1
2282,0.25,1644844545.046875,P08,D03,1,1,1
2283,0.26,1644844545.0625,P08,D03,1,1,1
2284,0.24,1644844545.078125,P08,D03,1,1,1
2285,0.16,1644844545.09375,P08,D03,1,1,1
2286,-0.02,1644844545.109375,P08,D03,1,1,1
2287,-0.28,1644844545.125,P08,D03,1,1,1
2288,-0.56,1644844545.140625,P08,D03,1,1,1
2289,-0.76,1644844545.15625,P08,D03,1,1,1
2290,-0.82,1644844545.171875,P08,D03,1,1,1
2291,-0.73,1644844545.1875,P08,D03,1,1,1
2292,-0.55,1644844545.203125,P08,D03,1,1,1
2293,-0.4,1644844545.21875,P08,D03,1,1,1
2294,-0.36,1644844545.234375,P08,D03,1,1,1
2295,-0.49,1644844545.25,P08,D03,1,1,1
2296,-0.75,1644844545.265625,P08,D03,1,1,1
2297,-1.05,1644844545.28125,P08,D03,1,1,1
2298,-1.24,1644844545.296875,P08,D03,1,1,1
2299,-1.24,1644844545.3125,P08,D03,1,1,1
2300,-1.03,1644844545.328125,P08,D03,1,1,1
2301,-0.65,1644844545.34375,P08,D03,1,1,1
2302,-0.24,1644844545.359375,P08,D03,1,1,1
2303,0.1,1644844545.375,P08,D03,1,1,1
2304,0.31,1644844545.390625,P08,D03,1,1,1
2305,0.44,1644844545.40625,P08,D03,1,1,1
2306,0.53,1644844545.421875,P08,D03,1,1,1
2307,0.63,1644844545.4375,P08,D03,1,1,1
2308,0.7,1644844545.453125,P08,D03,1,1,1
2309,0.7,1644844545.46875,P08,D03,1,1,1
2310,0.64,1644844545.484375,P08,D03,1,1,1
2311,0.57,1644844545.5,P08,D03,1,1,1
2312,0.59,1644844545.515625,P08,D03,1,1,1
2313,0.78,1644844545.53125,P08,D03,1,1,1
2314,1.1,1644844545.546875,P08,D03,1,1,1
2315,1.42,1644844545.5625,P08,D03,1,1,1
2316,1.57,1644844545.578125,P08,D03,1,1,1
2317,1.47,1644844545.59375,P08,D03,1,1,1
2318,1.15,1644844545.609375,P08,D03,1,1,1
2319,0.76,1644844545.625,P08,D03,1,1,1
2320,0.42,1644844545.640625,P08,D03,1,1,1
2321,0.22,1644844545.65625,P08,D03,1,1,1
2322,0.09,1644844545.671875,P08,D03,1,1,1
2323,-0.04,1644844545.6875,P08,D03,1,1,1
2324,-0.22,1644844545.703125,P08,D03,1,1,1
2325,-0.44,1644844545.71875,P08,D03,1,1,1
2326,-0.61,1644844545.734375,P08,D03,1,1,1
2327,-0.7,1644844545.75,P08,D03,1,1,1
2328,-0.73,1644844545.765625,P08,D03,1,1,1
2329,-0.78,1644844545.78125,P08,D03,1,1,1
2330,-0.88,1644844545.796875,P08,D03,1,1,1
2331,-1.02,1644844545.8125,P08,D03,1,1,1
2332,-1.11,1644844545.828125,P08,D03,1,1,1
2333,-1.02,1644844545.84375,P08,D03,1,1,1
2334,-0.73,1644844545.859375,P08,D03,1,1,1
2335,-0.31,1644844545.875,P08,D03,1,1,1
2336,0.08,1644844545.890625,P08,D03,1,1,1
2337,0.28,1644844545.90625,P08,D03,1,1,1
2338,0.24,1644844545.921875,P08,D03,1,1,1
2339,0.0,1644844545.9375,P08,D03,1,1,1
2340,-0.26,1644844545.953125,P08,D03,1,1,1
2341,-0.39,1644844545.96875,P08,D03,1,1,1
2342,-0.28,1644844545.984375,P08,D03,1,1,1
2343,0.02,1644844546.0,P08,D03,1,1,1
2344,0.4,1644844546.015625,P08,D03,1,1,1
2345,0.73,1644844546.03125,P08,D03,1,1,1
2346,0.9,1644844546.046875,P08,D03,1,1,1
2347,0.92,1644844546.0625,P08,D03,1,1,1
2348,0.83,1644844546.078125,P08,D03,1,1,1
2349,0.7,1644844546.09375,P08,D03,1,1,1
2350,0.59,1644844546.109375,P08,D03,1,1,1
2351,0.52,1644844546.125,P08,D03,1,1,1
2352,0.48,1644844546.140625,P08,D03,1,1,1
2353,0.46,1644844546.15625,P08,D03,1,1,1
2354,0.47,1644844546.171875,P08,D03,1,1,1
2355,0.57,1644844546.1875,P08,D03,1,1,1
2356,0.76,1644844546.203125,P08,D03,1,1,1
2357,1.04,1644844546.21875,P08,D03,1,1,1
2358,1.3,1644844546.234375,P08,D03,1,1,1
2359,1.42,1644844546.25,P08,D03,1,1,1
2360,1.3,1644844546.265625,P08,D03,1,1,1
2361,0.89,1644844546.28125,P08,D03,1,1,1
2362,0.28,1644844546.296875,P08,D03,1,1,1
2363,-0.37,1644844546.3125,P08,D03,1,1,1
2364,-0.86,1644844546.328125,P08,D03,1,1,1
2365,-1.06,1644844546.34375,P08,D03,1,1,1
2366,-0.93,1644844546.359375,P08,D03,1,1,1
2367,-0.57,1644844546.375,P08,D03,1,1,1
2368,-0.13,1644844546.390625,P08,D03,1,1,1
2369,0.23,1644844546.40625,P08,D03,1,1,1
2370,0.44,1644844546.421875,P08,D03,1,1,1
2371,0.47,1644844546.4375,P08,D03,1,1,1
2372,0.42,1644844546.453125,P08,D03,1,1,1
2373,0.35,1644844546.46875,P08,D03,1,1,1
2374,0.34,1644844546.484375,P08,D03,1,1,1
2375,0.42,1644844546.5,P08,D03,1,1,1
2376,0.56,1644844546.515625,P08,D03,1,1,1
2377,0.7,1644844546.53125,P08,D03,1,1,1
2378,0.75,1644844546.546875,P08,D03,1,1,1
2379,0.66,1644844546.5625,P08,D03,1,1,1
2380,0.45,1644844546.578125,P08,D03,1,1,1
2381,0.19,1644844546.59375,P08,D03,1,1,1
2382,-0.03,1644844546.609375,P08,D03,1,1,1
2383,-0.12,1644844546.625,P08,D03,1,1,1
2384,-0.05,1644844546.640625,P08,D03,1,1,1
2385,0.13,1644844546.65625,P08,D03,1,1,1
2386,0.31,1644844546.671875,P08,D03,1,1,1
2387,0.38,1644844546.6875,P08,D03,1,1,1
2388,0.26,1644844546.703125,P08,D03,1,1,1
2389,-0.02,1644844546.71875,P08,D03,1,1,1
2390,-0.4,1644844546.734375,P08,D03,1,1,1
2391,-0.77,1644844546.75,P08,D03,1,1,1
2392,-1.08,1644844546.765625,P08,D03,1,1,1
2393,-1.31,1644844546.78125,P08,D03,1,1,1
2394,-1.49,1644844546.796875,P08,D03,1,1,1
2395,-1.65,1644844546.8125,P08,D03,1,1,1
2396,-1.78,1644844546.828125,P08,D03,1,1,1
2397,-1.81,1644844546.84375,P08,D03,1,1,1
2398,-1.67,1644844546.859375,P08,D03,1,1,1
2399,-1.33,1644844546.875,P08,D03,1,1,1
2400,-0.84,1644844546.890625,P08,D03,1,1,1
2401,-0.32,1644844546.90625,P08,D03,1,1,1
2402,0.08,1644844546.921875,P08,D03,1,1,1
2403,0.27,1644844546.9375,P08,D03,1,1,1
2404,0.25,1644844546.953125,P08,D03,1,1,1
2405,0.1,1644844546.96875,P08,D03,1,1,1
2406,-0.05,1644844546.984375,P08,D03,1,1,1
2407,-0.1,1644844547.0,P08,D03,1,1,1
2408,-0.01,1644844547.015625,P08,D03,1,1,1
2409,0.16,1644844547.03125,P08,D03,1,1,1
2410,0.27,1644844547.046875,P08,D03,1,1,1
2411,0.22,1644844547.0625,P08,D03,1,1,1
2412,-0.02,1644844547.078125,P08,D03,1,1,1
2413,-0.38,1644844547.09375,P08,D03,1,1,1
2414,-0.74,1644844547.109375,P08,D03,1,1,1
2415,-0.96,1644844547.125,P08,D03,1,1,1
2416,-0.99,1644844547.140625,P08,D03,1,1,1
2417,-0.86,1644844547.15625,P08,D03,1,1,1
2418,-0.69,1644844547.171875,P08,D03,1,1,1
2419,-0.57,1644844547.1875,P08,D03,1,1,1
2420,-0.54,1644844547.203125,P08,D03,1,1,1
2421,-0.57,1644844547.21875,P08,D03,1,1,1
2422,-0.63,1644844547.234375,P08,D03,1,1,1
2423,-0.66,1644844547.25,P08,D03,1,1,1
2424,-0.69,1644844547.265625,P08,D03,1,1,1
2425,-0.71,1644844547.28125,P08,D03,1,1,1
2426,-0.7,1644844547.296875,P08,D03,1,1,1
2427,-0.59,1644844547.3125,P08,D03,1,1,1
2428,-0.31,1644844547.328125,P08,D03,1,1,1
2429,0.12,1644844547.34375,P08,D03,1,1,1
2430,0.61,1644844547.359375,P08,D03,1,1,1
2431,0.98,1644844547.375,P08,D03,1,1,1
2432,1.1,1644844547.390625,P08,D03,1,1,1
2433,0.95,1644844547.40625,P08,D03,1,1,1
2434,0.66,1644844547.421875,P08,D03,1,1,1
2435,0.43,1644844547.4375,P08,D03,1,1,1
2436,0.4,1644844547.453125,P08,D03,1,1,1
2437,0.6,1644844547.46875,P08,D03,1,1,1
2438,0.94,1644844547.484375,P08,D03,1,1,1
2439,1.23,1644844547.5,P08,D03,1,1,1
2440,1.36,1644844547.515625,P08,D03,1,1,1
2441,1.3,1644844547.53125,P08,D03,1,1,1
2442,1.12,1644844547.546875,P08,D03,1,1,1
2443,0.9,1644844547.5625,P08,D03,1,1,1
2444,0.74,1644844547.578125,P08,D03,1,1,1
2445,0.65,1644844547.59375,P08,D03,1,1,1
2446,0.59,1644844547.609375,P08,D03,1,1,1
2447,0.55,1644844547.625,P08,D03,1,1,1
2448,0.51,1644844547.640625,P08,D03,1,1,1
2449,0.48,1644844547.65625,P08,D03,1,1,1
2450,0.51,1644844547.671875,P08,D03,1,1,1
2451,0.62,1644844547.6875,P08,D03,1,1,1
2452,0.78,1644844547.703125,P08,D03,1,1,1
2453,0.94,1644844547.71875,P08,D03,1,1,1
2454,1.0,1644844547.734375,P08,D03,1,1,1
2455,0.89,1644844547.75,P08,D03,1,1,1
2456,0.54,1644844547.765625,P08,D03,1,1,1
2457,-0.01,1644844547.78125,P08,D03,1,1,1
2458,-0.65,1644844547.796875,P08,D03,1,1,1
2459,-1.21,1644844547.8125,P08,D03,1,1,1
2460,-1.55,1644844547.828125,P08,D03,1,1,1
2461,-1.58,1644844547.84375,P08,D03,1,1,1
2462,-1.35,1644844547.859375,P08,D03,1,1,1
2463,-0.97,1644844547.875,P08,D03,1,1,1
2464,-0.58,1644844547.890625,P08,D03,1,1,1
2465,-0.28,1644844547.90625,P08,D03,1,1,1
2466,-0.09,1644844547.921875,P08,D03,1,1,1
2467,0.01,1644844547.9375,P08,D03,1,1,1
2468,0.05,1644844547.953125,P08,D03,1,1,1
2469,0.07,1644844547.96875,P08,D03,1,1,1
2470,0.06,1644844547.984375,P08,D03,1,1,1
2471,0.02,1644844548.0,P08,D03,1,1,1
2472,-0.04,1644844548.015625,P08,D03,1,1,1
2473,-0.1,1644844548.03125,P08,D03,1,1,1
2474,-0.11,1644844548.046875,P08,D03,1,1,1
2475,-0.09,1644844548.0625,P08,D03,1,1,1
2476,-0.06,1644844548.078125,P08,D03,1,1,1
2477,-0.08,1644844548.09375,P08,D03,1,1,1
2478,-0.21,1644844548.109375,P08,D03,1,1,1
2479,-0.41,1644844548.125,P08,D03,1,1,1
2480,-0.61,1644844548.140625,P08,D03,1,1,1
2481,-0.69,1644844548.15625,P08,D03,1,1,1
2482,-0.59,1644844548.171875,P08,D03,1,1,1
2483,-0.35,1644844548.1875,P08,D03,1,1,1
2484,-0.07,1644844548.203125,P08,D03,1,1,1
2485,0.1,1644844548.21875,P08,D03,1,1,1
2486,0.07,1644844548.234375,P08,D03,1,1,1
2487,-0.15,1644844548.25,P08,D03,1,1,1
2488,-0.46,1644844548.265625,P08,D03,1,1,1
2489,-0.72,1644844548.28125,P08,D03,1,1,1
2490,-0.83,1644844548.296875,P08,D03,1,1,1
2491,-0.78,1644844548.3125,P08,D03,1,1,1
2492,-0.61,1644844548.328125,P08,D03,1,1,1
2493,-0.39,1644844548.34375,P08,D03,1,1,1
2494,-0.16,1644844548.359375,P08,D03,1,1,1
2495,0.06,1644844548.375,P08,D03,1,1,1
2496,0.24,1644844548.390625,P08,D03,1,1,1
2497,0.33,1644844548.40625,P08,D03,1,1,1
2498,0.31,1644844548.421875,P08,D03,1,1,1
2499,0.19,1644844548.4375,P08,D03,1,1,1
2500,0.02,1644844548.453125,P08,D03,1,1,1
2501,-0.13,1644844548.46875,P08,D03,1,1,1
2502,-0.19,1644844548.484375,P08,D03,1,1,1
2503,-0.17,1644844548.5,P08,D03,1,1,1
2504,-0.11,1644844548.515625,P08,D03,1,1,1
2505,-0.06,1644844548.53125,P08,D03,1,1,1
2506,-0.03,1644844548.546875,P08,D03,1,1,1
2507,-0.01,1644844548.5625,P08,D03,1,1,1
2508,0.02,1644844548.578125,P08,D03,1,1,1
2509,0.07,1644844548.59375,P08,D03,1,1,1
2510,0.13,1644844548.609375,P08,D03,1,1,1
2511,0.17,1644844548.625,P08,D03,1,1,1
2512,0.18,1644844548.640625,P08,D03,1,1,1
2513,0.2,1644844548.65625,P08,D03,1,1,1
2514,0.23,1644844548.671875,P08,D03,1,1,1
2515,0.27,1644844548.6875,P08,D03,1,1,1
2516,0.27,1644844548.703125,P08,D03,1,1,1
2517,0.22,1644844548.71875,P08,D03,1,1,1
2518,0.09,1644844548.734375,P08,D03,1,1,1
2519,-0.08,1644844548.75,P08,D03,1,1,1
2520,-0.24,1644844548.765625,P08,D03,1,1,1
2521,-0.35,1644844548.78125,P08,D03,1,1,1
2522,-0.39,1644844548.796875,P08,D03,1,1,1
2523,-0.37,1644844548.8125,P08,D03,1,1,1
2524,-0.3,1644844548.828125,P08,D03,1,1,1
2525,-0.19,1644844548.84375,P08,D03,1,1,1
2526,-0.04,1644844548.859375,P08,D03,1,1,1
2527,0.14,1644844548.875,P08,D03,1,1,1
2528,0.34,1644844548.890625,P08,D03,1,1,1
2529,0.51,1644844548.90625,P08,D03,1,1,1
2530,0.62,1644844548.921875,P08,D03,1,1,1
2531,0.66,1644844548.9375,P08,D03,1,1,1
2532,0.63,1644844548.953125,P08,D03,1,1,1
2533,0.55,1644844548.96875,P08,D03,1,1,1
2534,0.48,1644844548.984375,P08,D03,1,1,1
2535,0.45,1644844549.0,P08,D03,1,1,1
2536,0.52,1644844549.015625,P08,D03,1,1,1
2537,0.71,1644844549.03125,P08,D03,1,1,1
2538,1.01,1644844549.046875,P08,D03,1,1,1
2539,1.33,1644844549.0625,P08,D03,1,1,1
2540,1.58,1644844549.078125,P08,D03,1,1,1
2541,1.65,1644844549.09375,P08,D03,1,1,1
2542,1.47,1644844549.109375,P08,D03,1,1,1
2543,1.09,1644844549.125,P08,D03,1,1,1
2544,0.61,1644844549.140625,P08,D03,1,1,1
2545,0.18,1644844549.15625,P08,D03,1,1,1
2546,-0.08,1644844549.171875,P08,D03,1,1,1
2547,-0.15,1644844549.1875,P08,D03,1,1,1
2548,-0.09,1644844549.203125,P08,D03,1,1,1
2549,-0.06,1644844549.21875,P08,D03,1,1,1
2550,-0.19,1644844549.234375,P08,D03,1,1,1
2551,-0.5,1644844549.25,P08,D03,1,1,1
2552,-0.89,1644844549.265625,P08,D03,1,1,1
2553,-1.2,1644844549.28125,P08,D03,1,1,1
2554,-1.28,1644844549.296875,P08,D03,1,1,1
2555,-1.11,1644844549.3125,P08,D03,1,1,1
2556,-0.81,1644844549.328125,P08,D03,1,1,1
2557,-0.56,1644844549.34375,P08,D03,1,1,1
2558,-0.51,1644844549.359375,P08,D03,1,1,1
2559,-0.67,1644844549.375,P08,D03,1,1,1
2560,-0.94,1644844549.390625,P08,D03,1,1,1
2561,-1.16,1644844549.40625,P08,D03,1,1,1
2562,-1.21,1644844549.421875,P08,D03,1,1,1
2563,-1.09,1644844549.4375,P08,D03,1,1,1
2564,-0.86,1644844549.453125,P08,D03,1,1,1
2565,-0.63,1644844549.46875,P08,D03,1,1,1
2566,-0.46,1644844549.484375,P08,D03,1,1,1
2567,-0.33,1644844549.5,P08,D03,1,1,1
2568,-0.21,1644844549.515625,P08,D03,1,1,1
2569,-0.04,1644844549.53125,P08,D03,1,1,1
2570,0.17,1644844549.546875,P08,D03,1,1,1
2571,0.36,1644844549.5625,P08,D03,1,1,1
2572,0.46,1644844549.578125,P08,D03,1,1,1
2573,0.42,1644844549.59375,P08,D03,1,1,1
2574,0.25,1644844549.609375,P08,D03,1,1,1
2575,0.04,1644844549.625,P08,D03,1,1,1
2576,-0.1,1644844549.640625,P08,D03,1,1,1
2577,-0.08,1644844549.65625,P08,D03,1,1,1
2578,0.1,1644844549.671875,P08,D03,1,1,1
2579,0.41,1644844549.6875,P08,D03,1,1,1
2580,0.72,1644844549.703125,P08,D03,1,1,1
2581,0.94,1644844549.71875,P08,D03,1,1,1
2582,1.02,1644844549.734375,P08,D03,1,1,1
2583,0.98,1644844549.75,P08,D03,1,1,1
2584,0.86,1644844549.765625,P08,D03,1,1,1
2585,0.71,1644844549.78125,P08,D03,1,1,1
2586,0.55,1644844549.796875,P08,D03,1,1,1
2587,0.37,1644844549.8125,P08,D03,1,1,1
2588,0.16,1644844549.828125,P08,D03,1,1,1
2589,-0.09,1644844549.84375,P08,D03,1,1,1
2590,-0.33,1644844549.859375,P08,D03,1,1,1
2591,-0.53,1644844549.875,P08,D03,1,1,1
2592,-0.62,1644844549.890625,P08,D03,1,1,1
2593,-0.6,1644844549.90625,P08,D03,1,1,1
2594,-0.5,1644844549.921875,P08,D03,1,1,1
2595,-0.37,1644844549.9375,P08,D03,1,1,1
2596,-0.26,1644844549.953125,P08,D03,1,1,1
2597,-0.22,1644844549.96875,P08,D03,1,1,1
2598,-0.2,1644844549.984375,P08,D03,1,1,1
2599,-0.16,1644844550.0,P08,D03,1,1,1
2600,-0.03,1644844550.015625,P08,D03,1,1,1
2601,0.19,1644844550.03125,P08,D03,1,1,1
2602,0.46,1644844550.046875,P08,D03,1,1,1
2603,0.7,1644844550.0625,P08,D03,1,1,1
2604,0.79,1644844550.078125,P08,D03,1,1,1
2605,0.7,1644844550.09375,P08,D03,1,1,1
2606,0.44,1644844550.109375,P08,D03,1,1,1
2607,0.09,1644844550.125,P08,D03,1,1,1
2608,-0.25,1644844550.140625,P08,D03,1,1,1
2609,-0.5,1644844550.15625,P08,D03,1,1,1
2610,-0.63,1644844550.171875,P08,D03,1,1,1
2611,-0.64,1644844550.1875,P08,D03,1,1,1
2612,-0.58,1644844550.203125,P08,D03,1,1,1
2613,-0.5,1644844550.21875,P08,D03,1,1,1
2614,-0.42,1644844550.234375,P08,D03,1,1,1
2615,-0.36,1644844550.25,P08,D03,1,1,1
2616,-0.27,1644844550.265625,P08,D03,1,1,1
2617,-0.14,1644844550.28125,P08,D03,1,1,1
2618,0.01,1644844550.296875,P08,D03,1,1,1
2619,0.16,1644844550.3125,P08,D03,1,1,1
2620,0.24,1644844550.328125,P08,D03,1,1,1
2621,0.22,1644844550.34375,P08,D03,1,1,1
2622,0.13,1644844550.359375,P08,D03,1,1,1
2623,0.01,1644844550.375,P08,D03,1,1,1
2624,-0.06,1644844550.390625,P08,D03,1,1,1
2625,-0.06,1644844550.40625,P08,D03,1,1,1
2626,-0.01,1644844550.421875,P08,D03,1,1,1
2627,0.05,1644844550.4375,P08,D03,1,1,1
2628,0.08,1644844550.453125,P08,D03,1,1,1
2629,0.09,1644844550.46875,P08,D03,1,1,1
2630,0.09,1644844550.484375,P08,D03,1,1,1
2631,0.15,1644844550.5,P08,D03,1,1,1
2632,0.25,1644844550.515625,P08,D03,1,1,1
2633,0.38,1644844550.53125,P08,D03,1,1,1
2634,0.5,1644844550.546875,P08,D03,1,1,1
2635,0.57,1644844550.5625,P08,D03,1,1,1
2636,0.58,1644844550.578125,P08,D03,1,1,1
2637,0.53,1644844550.59375,P08,D03,1,1,1
2638,0.42,1644844550.609375,P08,D03,1,1,1
2639,0.24,1644844550.625,P08,D03,1,1,1
2640,0.04,1644844550.640625,P08,D03,1,1,1
2641,-0.13,1644844550.65625,P08,D03,1,1,1
2642,-0.19,1644844550.671875,P08,D03,1,1,1
2643,-0.1,1644844550.6875,P08,D03,1,1,1
2644,0.17,1644844550.703125,P08,D03,1,1,1
2645,0.54,1644844550.71875,P08,D03,1,1,1
2646,0.88,1644844550.734375,P08,D03,1,1,1
2647,1.08,1644844550.75,P08,D03,1,1,1
2648,1.11,1644844550.765625,P08,D03,1,1,1
2649,0.99,1644844550.78125,P08,D03,1,1,1
2650,0.81,1644844550.796875,P08,D03,1,1,1
2651,0.65,1644844550.8125,P08,D03,1,1,1
2652,0.54,1644844550.828125,P08,D03,1,1,1
2653,0.41,1644844550.84375,P08,D03,1,1,1
2654,0.2,1644844550.859375,P08,D03,1,1,1
2655,-0.11,1644844550.875,P08,D03,1,1,1
2656,-0.47,1644844550.890625,P08,D03,1,1,1
2657,-0.77,1644844550.90625,P08,D03,1,1,1
2658,-0.93,1644844550.921875,P08,D03,1,1,1
2659,-0.92,1644844550.9375,P08,D03,1,1,1
2660,-0.8,1644844550.953125,P08,D03,1,1,1
2661,-0.67,1644844550.96875,P08,D03,1,1,1
2662,-0.6,1644844550.984375,P08,D03,1,1,1
2663,-0.62,1644844551.0,P08,D03,1,1,1
2664,-0.7,1644844551.015625,P08,D03,1,1,1
2665,-0.79,1644844551.03125,P08,D03,1,1,1
2666,-0.87,1644844551.046875,P08,D03,1,1,1
2667,-0.92,1644844551.0625,P08,D03,1,1,1
2668,-0.91,1644844551.078125,P08,D03,1,1,1
2669,-0.78,1644844551.09375,P08,D03,1,1,1
2670,-0.53,1644844551.109375,P08,D03,1,1,1
2671,-0.16,1644844551.125,P08,D03,1,1,1
2672,0.21,1644844551.140625,P08,D03,1,1,1
2673,0.48,1644844551.15625,P08,D03,1,1,1
2674,0.54,1644844551.171875,P08,D03,1,1,1
2675,0.38,1644844551.1875,P08,D03,1,1,1
2676,0.11,1644844551.203125,P08,D03,1,1,1
2677,-0.17,1644844551.21875,P08,D03,1,1,1
2678,-0.37,1644844551.234375,P08,D03,1,1,1
2679,-0.45,1644844551.25,P08,D03,1,1,1
2680,-0.44,1644844551.265625,P08,D03,1,1,1
2681,-0.36,1644844551.28125,P08,D03,1,1,1
2682,-0.23,1644844551.296875,P08,D03,1,1,1
2683,-0.07,1644844551.3125,P08,D03,1,1,1
2684,0.1,1644844551.328125,P08,D03,1,1,1
2685,0.23,1644844551.34375,P08,D03,1,1,1
2686,0.3,1644844551.359375,P08,D03,1,1,1
2687,0.29,1644844551.375,P08,D03,1,1,1
2688,0.22,1644844551.390625,P08,D03,1,1,1
2689,0.14,1644844551.40625,P08,D03,1,1,1
2690,0.06,1644844551.421875,P08,D03,1,1,1
2691,-0.02,1644844551.4375,P08,D03,1,1,1
2692,-0.15,1644844551.453125,P08,D03,1,1,1
2693,-0.32,1644844551.46875,P08,D03,1,1,1
2694,-0.51,1644844551.484375,P08,D03,1,1,1
2695,-0.64,1644844551.5,P08,D03,1,1,1
2696,-0.65,1644844551.515625,P08,D03,1,1,1
2697,-0.53,1644844551.53125,P08,D03,1,1,1
2698,-0.35,1644844551.546875,P08,D03,1,1,1
2699,-0.23,1644844551.5625,P08,D03,1,1,1
2700,-0.23,1644844551.578125,P08,D03,1,1,1
2701,-0.35,1644844551.59375,P08,D03,1,1,1
2702,-0.51,1644844551.609375,P08,D03,1,1,1
2703,-0.6,1644844551.625,P08,D03,1,1,1
2704,-0.52,1644844551.640625,P08,D03,1,1,1
2705,-0.28,1644844551.65625,P08,D03,1,1,1
2706,0.07,1644844551.671875,P08,D03,1,1,1
2707,0.41,1644844551.6875,P08,D03,1,1,1
2708,0.67,1644844551.703125,P08,D03,1,1,1
2709,0.82,1644844551.71875,P08,D03,1,1,1
2710,0.89,1644844551.734375,P08,D03,1,1,1
2711,0.91,1644844551.75,P08,D03,1,1,1
2712,0.9,1644844551.765625,P08,D03,1,1,1
2713,0.89,1644844551.78125,P08,D03,1,1,1
2714,0.86,1644844551.796875,P08,D03,1,1,1
2715,0.82,1644844551.8125,P08,D03,1,1,1
2716,0.78,1644844551.828125,P08,D03,1,1,1
2717,0.77,1644844551.84375,P08,D03,1,1,1
2718,0.78,1644844551.859375,P08,D03,1,1,1
2719,0.77,1644844551.875,P08,D03,1,1,1
2720,0.7,1644844551.890625,P08,D03,1,1,1
2721,0.54,1644844551.90625,P08,D03,1,1,1
2722,0.33,1644844551.921875,P08,D03,1,1,1
2723,0.11,1644844551.9375,P08,D03,1,1,1
2724,-0.06,1644844551.953125,P08,D03,1,1,1
2725,-0.15,1644844551.96875,P08,D03,1,1,1
2726,-0.18,1644844551.984375,P08,D03,1,1,1
2727,-0.22,1644844552.0,P08,D03,1,1,1
2728,-0.31,1644844552.015625,P08,D03,1,1,1
2729,-0.44,1644844552.03125,P08,D03,1,1,1
2730,-0.58,1644844552.046875,P08,D03,1,1,1
2731,-0.63,1644844552.0625,P08,D03,1,1,1
2732,-0.54,1644844552.078125,P08,D03,1,1,1
2733,-0.28,1644844552.09375,P08,D03,1,1,1
2734,0.09,1644844552.109375,P08,D03,1,1,1
2735,0.46,1644844552.125,P08,D03,1,1,1
2736,0.7,1644844552.140625,P08,D03,1,1,1
2737,0.72,1644844552.15625,P08,D03,1,1,1
2738,0.52,1644844552.171875,P08,D03,1,1,1
2739,0.17,1644844552.1875,P08,D03,1,1,1
2740,-0.2,1644844552.203125,P08,D03,1,1,1
2741,-0.46,1644844552.21875,P08,D03,1,1,1
2742,-0.56,1644844552.234375,P08,D03,1,1,1
2743,-0.55,1644844552.25,P08,D03,1,1,1
2744,-0.5,1644844552.265625,P08,D03,1,1,1
2745,-0.44,1644844552.28125,P08,D03,1,1,1
2746,-0.39,1644844552.296875,P08,D03,1,1,1
2747,-0.27,1644844552.3125,P08,D03,1,1,1
2748,-0.06,1644844552.328125,P08,D03,1,1,1
2749,0.21,1644844552.34375,P08,D03,1,1,1
2750,0.44,1644844552.359375,P08,D03,1,1,1
2751,0.52,1644844552.375,P08,D03,1,1,1
2752,0.4,1644844552.390625,P08,D03,1,1,1
2753,0.12,1644844552.40625,P08,D03,1,1,1
2754,-0.17,1644844552.421875,P08,D03,1,1,1
2755,-0.34,1644844552.4375,P08,D03,1,1,1
2756,-0.32,1644844552.453125,P08,D03,1,1,1
2757,-0.16,1644844552.46875,P08,D03,1,1,1
2758,0.01,1644844552.484375,P08,D03,1,1,1
2759,0.05,1644844552.5,P08,D03,1,1,1
2760,-0.08,1644844552.515625,P08,D03,1,1,1
2761,-0.34,1644844552.53125,P08,D03,1,1,1
2762,-0.61,1644844552.546875,P08,D03,1,1,1
2763,-0.77,1644844552.5625,P08,D03,1,1,1
2764,-0.77,1644844552.578125,P08,D03,1,1,1
2765,-0.61,1644844552.59375,P08,D03,1,1,1
2766,-0.33,1644844552.609375,P08,D03,1,1,1
2767,0.02,1644844552.625,P08,D03,1,1,1
2768,0.38,1644844552.640625,P08,D03,1,1,1
2769,0.72,1644844552.65625,P08,D03,1,1,1
2770,0.97,1644844552.671875,P08,D03,1,1,1
2771,1.05,1644844552.6875,P08,D03,1,1,1
2772,0.93,1644844552.703125,P08,D03,1,1,1
2773,0.61,1644844552.71875,P08,D03,1,1,1
2774,0.18,1644844552.734375,P08,D03,1,1,1
2775,-0.2,1644844552.75,P08,D03,1,1,1
2776,-0.42,1644844552.765625,P08,D03,1,1,1
2777,-0.4,1644844552.78125,P08,D03,1,1,1
2778,-0.17,1644844552.796875,P08,D03,1,1,1
2779,0.18,1644844552.8125,P08,D03,1,1,1
2780,0.53,1644844552.828125,P08,D03,1,1,1
2781,0.8,1644844552.84375,P08,D03,1,1,1
2782,0.91,1644844552.859375,P08,D03,1,1,1
2783,0.84,1644844552.875,P08,D03,1,1,1
2784,0.63,1644844552.890625,P08,D03,1,1,1
2785,0.36,1644844552.90625,P08,D03,1,1,1
2786,0.14,1644844552.921875,P08,D03,1,1,1
2787,0.01,1644844552.9375,P08,D03,1,1,1
2788,-0.01,1644844552.953125,P08,D03,1,1,1
2789,0.03,1644844552.96875,P08,D03,1,1,1
2790,0.06,1644844552.984375,P08,D03,1,1,1
2791,0.07,1644844553.0,P08,D03,1,1,1
2792,0.1,1644844553.015625,P08,D03,1,1,1
2793,0.21,1644844553.03125,P08,D03,1,1,1
2794,0.41,1644844553.046875,P08,D03,1,1,1
2795,0.64,1644844553.0625,P08,D03,1,1,1
2796,0.79,1644844553.078125,P08,D03,1,1,1
2797,0.73,1644844553.09375,P08,D03,1,1,1
2798,0.46,1644844553.109375,P08,D03,1,1,1
2799,0.04,1644844553.125,P08,D03,1,1,1
2800,-0.37,1644844553.140625,P08,D03,1,1,1
2801,-0.63,1644844553.15625,P08,D03,1,1,1
2802,-0.68,1644844553.171875,P08,D03,1,1,1
2803,-0.59,1644844553.1875,P08,D03,1,1,1
2804,-0.46,1644844553.203125,P08,D03,1,1,1
2805,-0.4,1644844553.21875,P08,D03,1,1,1
2806,-0.44,1644844553.234375,P08,D03,1,1,1
2807,-0.56,1644844553.25,P08,D03,1,1,1
2808,-0.74,1644844553.265625,P08,D03,1,1,1
2809,-0.91,1644844553.28125,P08,D03,1,1,1
2810,-1.03,1644844553.296875,P08,D03,1,1,1
2811,-1.07,1644844553.3125,P08,D03,1,1,1
2812,-1.03,1644844553.328125,P08,D03,1,1,1
2813,-0.93,1644844553.34375,P08,D03,1,1,1
2814,-0.79,1644844553.359375,P08,D03,1,1,1
2815,-0.65,1644844553.375,P08,D03,1,1,1
2816,-0.52,1644844553.390625,P08,D03,1,1,1
2817,-0.38,1644844553.40625,P08,D03,1,1,1
2818,-0.22,1644844553.421875,P08,D03,1,1,1
2819,-0.01,1644844553.4375,P08,D03,1,1,1
2820,0.2,1644844553.453125,P08,D03,1,1,1
2821,0.36,1644844553.46875,P08,D03,1,1,1
2822,0.42,1644844553.484375,P08,D03,1,1,1
2823,0.38,1644844553.5,P08,D03,1,1,1
2824,0.29,1644844553.515625,P08,D03,1,1,1
2825,0.26,1644844553.53125,P08,D03,1,1,1
2826,0.35,1644844553.546875,P08,D03,1,1,1
2827,0.58,1644844553.5625,P08,D03,1,1,1
2828,0.89,1644844553.578125,P08,D03,1,1,1
2829,1.15,1644844553.59375,P08,D03,1,1,1
2830,1.28,1644844553.609375,P08,D03,1,1,1
2831,1.24,1644844553.625,P08,D03,1,1,1
2832,1.07,1644844553.640625,P08,D03,1,1,1
2833,0.83,1644844553.65625,P08,D03,1,1,1
2834,0.58,1644844553.671875,P08,D03,1,1,1
2835,0.35,1644844553.6875,P08,D03,1,1,1
2836,0.12,1644844553.703125,P08,D03,1,1,1
2837,-0.14,1644844553.71875,P08,D03,1,1,1
2838,-0.46,1644844553.734375,P08,D03,1,1,1
2839,-0.82,1644844553.75,P08,D03,1,1,1
2840,-1.16,1644844553.765625,P08,D03,1,1,1
2841,-1.42,1644844553.78125,P08,D03,1,1,1
2842,-1.52,1644844553.796875,P08,D03,1,1,1
2843,-1.49,1644844553.8125,P08,D03,1,1,1
2844,-1.38,1644844553.828125,P08,D03,1,1,1
2845,-1.24,1644844553.84375,P08,D03,1,1,1
2846,-1.13,1644844553.859375,P08,D03,1,1,1
2847,-1.04,1644844553.875,P08,D03,1,1,1
2848,-0.94,1644844553.890625,P08,D03,1,1,1
2849,-0.78,1644844553.90625,P08,D03,1,1,1
2850,-0.56,1644844553.921875,P08,D03,1,1,1
2851,-0.28,1644844553.9375,P08,D03,1,1,1
2852,0.03,1644844553.953125,P08,D03,1,1,1
2853,0.35,1644844553.96875,P08,D03,1,1,1
2854,0.66,1644844553.984375,P08,D03,1,1,1
2855,0.96,1644844554.0,P08,D03,1,1,1
2856,1.24,1644844554.015625,P08,D03,1,1,1
2857,1.44,1644844554.03125,P08,D03,1,1,1
2858,1.52,1644844554.046875,P08,D03,1,1,1
2859,1.47,1644844554.0625,P08,D03,1,1,1
2860,1.26,1644844554.078125,P08,D03,1,1,1
2861,0.96,1644844554.09375,P08,D03,1,1,1
2862,0.6,1644844554.109375,P08,D03,1,1,1
2863,0.24,1644844554.125,P08,D03,1,1,1
2864,-0.08,1644844554.140625,P08,D03,1,1,1
2865,-0.33,1644844554.15625,P08,D03,1,1,1
2866,-0.48,1644844554.171875,P08,D03,1,1,1
2867,-0.56,1644844554.1875,P08,D03,1,1,1
2868,-0.58,1644844554.203125,P08,D03,1,1,1
2869,-0.57,1644844554.21875,P08,D03,1,1,1
2870,-0.57,1644844554.234375,P08,D03,1,1,1
2871,-0.59,1644844554.25,P08,D03,1,1,1
2872,-0.57,1644844554.265625,P08,D03,1,1,1
2873,-0.48,1644844554.28125,P08,D03,1,1,1
2874,-0.27,1644844554.296875,P08,D03,1,1,1
2875,0.04,1644844554.3125,P08,D03,1,1,1
2876,0.38,1644844554.328125,P08,D03,1,1,1
2877,0.65,1644844554.34375,P08,D03,1,1,1
2878,0.77,1644844554.359375,P08,D03,1,1,1
2879,0.71,1644844554.375,P08,D03,1,1,1
2880,0.54,1644844554.390625,P08,D03,1,1,1
2881,0.33,1644844554.40625,P08,D03,1,1,1
2882,0.16,1644844554.421875,P08,D03,1,1,1
2883,0.06,1644844554.4375,P08,D03,1,1,1
2884,0.04,1644844554.453125,P08,D03,1,1,1
2885,0.03,1644844554.46875,P08,D03,1,1,1
2886,0.02,1644844554.484375,P08,D03,1,1,1
2887,-0.02,1644844554.5,P08,D03,1,1,1
2888,-0.04,1644844554.515625,P08,D03,1,1,1
2889,-0.02,1644844554.53125,P08,D03,1,1,1
2890,0.06,1644844554.546875,P08,D03,1,1,1
2891,0.17,1644844554.5625,P08,D03,1,1,1
2892,0.29,1644844554.578125,P08,D03,1,1,1
2893,0.36,1644844554.59375,P08,D03,1,1,1
2894,0.39,1644844554.609375,P08,D03,1,1,1
2895,0.39,1644844554.625,P08,D03,1,1,1
2896,0.39,1644844554.640625,P08,D03,1,1,1
2897,0.39,1644844554.65625,P08,D03,1,1,1
2898,0.36,1644844554.671875,P08,D03,1,1,1
2899,0.28,1644844554.6875,P08,D03,1,1,1
2900,0.14,1644844554.703125,P08,D03,1,1,1
2901,-0.04,1644844554.71875,P08,D03,1,1,1
2902,-0.18,1644844554.734375,P08,D03,1,1,1
2903,-0.24,1644844554.75,P08,D03,1,1,1
2904,-0.2,1644844554.765625,P08,D03,1,1,1
2905,-0.09,1644844554.78125,P08,D03,1,1,1
2906,0.03,1644844554.796875,P08,D03,1,1,1
2907,0.06,1644844554.8125,P08,D03,1,1,1
2908,0.01,1644844554.828125,P08,D03,1,1,1
2909,-0.13,1644844554.84375,P08,D03,1,1,1
2910,-0.3,1644844554.859375,P08,D03,1,1,1
2911,-0.43,1644844554.875,P08,D03,1,1,1
2912,-0.47,1644844554.890625,P08,D03,1,1,1
2913,-0.4,1644844554.90625,P08,D03,1,1,1
2914,-0.21,1644844554.921875,P08,D03,1,1,1
2915,0.03,1644844554.9375,P08,D03,1,1,1
2916,0.26,1644844554.953125,P08,D03,1,1,1
2917,0.41,1644844554.96875,P08,D03,1,1,1
2918,0.46,1644844554.984375,P08,D03,1,1,1
