,data,timestamp,participant,document,val,arou,eng
0,-1.1,1644583231.859375,P02,D10,1,0,0
1,-1.04,1644583231.875,P02,D10,1,0,0
2,-0.84,1644583231.890625,P02,D10,1,0,0
3,-0.48,1644583231.90625,P02,D10,1,0,0
4,-0.01,1644583231.921875,P02,D10,1,0,0
5,0.44,1644583231.9375,P02,D10,1,0,0
6,0.74,1644583231.953125,P02,D10,1,0,0
7,0.84,1644583231.96875,P02,D10,1,0,0
8,0.73,1644583231.984375,P02,D10,1,0,0
9,0.51,1644583232.0,P02,D10,1,0,0
10,0.32,1644583232.015625,P02,D10,1,0,0
11,0.27,1644583232.03125,P02,D10,1,0,0
12,0.37,1644583232.046875,P02,D10,1,0,0
13,0.59,1644583232.0625,P02,D10,1,0,0
14,0.79,1644583232.078125,P02,D10,1,0,0
15,0.88,1644583232.09375,P02,D10,1,0,0
16,0.8,1644583232.109375,P02,D10,1,0,0
17,0.57,1644583232.125,P02,D10,1,0,0
18,0.31,1644583232.140625,P02,D10,1,0,0
19,0.14,1644583232.15625,P02,D10,1,0,0
20,0.11,1644583232.171875,P02,D10,1,0,0
21,0.21,1644583232.1875,P02,D10,1,0,0
22,0.34,1644583232.203125,P02,D10,1,0,0
23,0.39,1644583232.21875,P02,D10,1,0,0
24,0.31,1644583232.234375,P02,D10,1,0,0
25,0.12,1644583232.25,P02,D10,1,0,0
26,-0.08,1644583232.265625,P02,D10,1,0,0
27,-0.21,1644583232.28125,P02,D10,1,0,0
28,-0.22,1644583232.296875,P02,D10,1,0,0
29,-0.17,1644583232.3125,P02,D10,1,0,0
30,-0.13,1644583232.328125,P02,D10,1,0,0
31,-0.19,1644583232.34375,P02,D10,1,0,0
32,-0.35,1644583232.359375,P02,D10,1,0,0
33,-0.53,1644583232.375,P02,D10,1,0,0
34,-0.63,1644583232.390625,P02,D10,1,0,0
35,-0.6,1644583232.40625,P02,D10,1,0,0
36,-0.45,1644583232.421875,P02,D10,1,0,0
37,-0.25,1644583232.4375,P02,D10,1,0,0
38,-0.1,1644583232.453125,P02,D10,1,0,0
39,-0.03,1644583232.46875,P02,D10,1,0,0
40,-0.04,1644583232.484375,P02,D10,1,0,0
41,-0.11,1644583232.5,P02,D10,1,0,0
42,-0.22,1644583232.515625,P02,D10,1,0,0
43,-0.36,1644583232.53125,P02,D10,1,0,0
44,-0.52,1644583232.546875,P02,D10,1,0,0
45,-0.64,1644583232.5625,P02,D10,1,0,0
46,-0.67,1644583232.578125,P02,D10,1,0,0
47,-0.56,1644583232.59375,P02,D10,1,0,0
48,-0.31,1644583232.609375,P02,D10,1,0,0
49,0.01,1644583232.625,P02,D10,1,0,0
50,0.27,1644583232.640625,P02,D10,1,0,0
51,0.37,1644583232.65625,P02,D10,1,0,0
52,0.3,1644583232.671875,P02,D10,1,0,0
53,0.12,1644583232.6875,P02,D10,1,0,0
54,-0.05,1644583232.703125,P02,D10,1,0,0
55,-0.1,1644583232.71875,P02,D10,1,0,0
56,-0.0,1644583232.734375,P02,D10,1,0,0
57,0.2,1644583232.75,P02,D10,1,0,0
58,0.41,1644583232.765625,P02,D10,1,0,0
59,0.52,1644583232.78125,P02,D10,1,0,0
60,0.51,1644583232.796875,P02,D10,1,0,0
61,0.41,1644583232.8125,P02,D10,1,0,0
62,0.31,1644583232.828125,P02,D10,1,0,0
63,0.31,1644583232.84375,P02,D10,1,0,0
64,0.4,1644583232.859375,P02,D10,1,0,0
65,0.55,1644583232.875,P02,D10,1,0,0
66,0.66,1644583232.890625,P02,D10,1,0,0
67,0.65,1644583232.90625,P02,D10,1,0,0
68,0.53,1644583232.921875,P02,D10,1,0,0
69,0.36,1644583232.9375,P02,D10,1,0,0
70,0.23,1644583232.953125,P02,D10,1,0,0
71,0.18,1644583232.96875,P02,D10,1,0,0
72,0.2,1644583232.984375,P02,D10,1,0,0
73,0.23,1644583233.0,P02,D10,1,0,0
74,0.19,1644583233.015625,P02,D10,1,0,0
75,0.05,1644583233.03125,P02,D10,1,0,0
76,-0.16,1644583233.046875,P02,D10,1,0,0
77,-0.38,1644583233.0625,P02,D10,1,0,0
78,-0.57,1644583233.078125,P02,D10,1,0,0
79,-0.7,1644583233.09375,P02,D10,1,0,0
80,-0.77,1644583233.109375,P02,D10,1,0,0
81,-0.78,1644583233.125,P02,D10,1,0,0
82,-0.72,1644583233.140625,P02,D10,1,0,0
83,-0.6,1644583233.15625,P02,D10,1,0,0
84,-0.42,1644583233.171875,P02,D10,1,0,0
85,-0.24,1644583233.1875,P02,D10,1,0,0
86,-0.11,1644583233.203125,P02,D10,1,0,0
87,-0.08,1644583233.21875,P02,D10,1,0,0
88,-0.15,1644583233.234375,P02,D10,1,0,0
89,-0.26,1644583233.25,P02,D10,1,0,0
90,-0.35,1644583233.265625,P02,D10,1,0,0
91,-0.38,1644583233.28125,P02,D10,1,0,0
92,-0.33,1644583233.296875,P02,D10,1,0,0
93,-0.22,1644583233.3125,P02,D10,1,0,0
94,-0.09,1644583233.328125,P02,D10,1,0,0
95,0.01,1644583233.34375,P02,D10,1,0,0
96,0.04,1644583233.359375,P02,D10,1,0,0
97,-0.0,1644583233.375,P02,D10,1,0,0
98,-0.11,1644583233.390625,P02,D10,1,0,0
99,-0.22,1644583233.40625,P02,D10,1,0,0
100,-0.29,1644583233.421875,P02,D10,1,0,0
101,-0.28,1644583233.4375,P02,D10,1,0,0
102,-0.19,1644583233.453125,P02,D10,1,0,0
103,-0.07,1644583233.46875,P02,D10,1,0,0
104,0.0,1644583233.484375,P02,D10,1,0,0
105,0.0,1644583233.5,P02,D10,1,0,0
106,-0.02,1644583233.515625,P02,D10,1,0,0
107,0.02,1644583233.53125,P02,D10,1,0,0
108,0.21,1644583233.546875,P02,D10,1,0,0
109,0.53,1644583233.5625,P02,D10,1,0,0
110,0.87,1644583233.578125,P02,D10,1,0,0
111,1.07,1644583233.59375,P02,D10,1,0,0
112,1.01,1644583233.609375,P02,D10,1,0,0
113,0.71,1644583233.625,P02,D10,1,0,0
114,0.31,1644583233.640625,P02,D10,1,0,0
115,-0.01,1644583233.65625,P02,D10,1,0,0
116,-0.14,1644583233.671875,P02,D10,1,0,0
117,-0.09,1644583233.6875,P02,D10,1,0,0
118,0.02,1644583233.703125,P02,D10,1,0,0
119,0.09,1644583233.71875,P02,D10,1,0,0
120,0.11,1644583233.734375,P02,D10,1,0,0
121,0.13,1644583233.75,P02,D10,1,0,0
122,0.27,1644583233.765625,P02,D10,1,0,0
123,0.57,1644583233.78125,P02,D10,1,0,0
124,0.98,1644583233.796875,P02,D10,1,0,0
125,1.36,1644583233.8125,P02,D10,1,0,0
126,1.59,1644583233.828125,P02,D10,1,0,0
127,1.58,1644583233.84375,P02,D10,1,0,0
128,1.34,1644583233.859375,P02,D10,1,0,0
129,0.95,1644583233.875,P02,D10,1,0,0
130,0.53,1644583233.890625,P02,D10,1,0,0
131,0.15,1644583233.90625,P02,D10,1,0,0
132,-0.18,1644583233.921875,P02,D10,1,0,0
133,-0.44,1644583233.9375,P02,D10,1,0,0
134,-0.65,1644583233.953125,P02,D10,1,0,0
135,-0.8,1644583233.96875,P02,D10,1,0,0
136,-0.89,1644583233.984375,P02,D10,1,0,0
137,-0.92,1644583234.0,P02,D10,1,0,0
138,-0.9,1644583234.015625,P02,D10,1,0,0
139,-0.82,1644583234.03125,P02,D10,1,0,0
140,-0.72,1644583234.046875,P02,D10,1,0,0
141,-0.65,1644583234.0625,P02,D10,1,0,0
142,-0.64,1644583234.078125,P02,D10,1,0,0
143,-0.73,1644583234.09375,P02,D10,1,0,0
144,-0.88,1644583234.109375,P02,D10,1,0,0
145,-1.02,1644583234.125,P02,D10,1,0,0
146,-1.03,1644583234.140625,P02,D10,1,0,0
147,-0.82,1644583234.15625,P02,D10,1,0,0
148,-0.42,1644583234.171875,P02,D10,1,0,0
149,0.07,1644583234.1875,P02,D10,1,0,0
150,0.48,1644583234.203125,P02,D10,1,0,0
151,0.71,1644583234.21875,P02,D10,1,0,0
152,0.77,1644583234.234375,P02,D10,1,0,0
153,0.81,1644583234.25,P02,D10,1,0,0
154,0.96,1644583234.265625,P02,D10,1,0,0
155,1.29,1644583234.28125,P02,D10,1,0,0
156,1.7,1644583234.296875,P02,D10,1,0,0
157,1.98,1644583234.3125,P02,D10,1,0,0
158,1.97,1644583234.328125,P02,D10,1,0,0
159,1.6,1644583234.34375,P02,D10,1,0,0
160,0.95,1644583234.359375,P02,D10,1,0,0
161,0.2,1644583234.375,P02,D10,1,0,0
162,-0.47,1644583234.390625,P02,D10,1,0,0
163,-0.93,1644583234.40625,P02,D10,1,0,0
164,-1.15,1644583234.421875,P02,D10,1,0,0
165,-1.17,1644583234.4375,P02,D10,1,0,0
166,-1.04,1644583234.453125,P02,D10,1,0,0
167,-0.82,1644583234.46875,P02,D10,1,0,0
168,-0.56,1644583234.484375,P02,D10,1,0,0
169,-0.3,1644583234.5,P02,D10,1,0,0
170,-0.09,1644583234.515625,P02,D10,1,0,0
171,0.03,1644583234.53125,P02,D10,1,0,0
172,0.04,1644583234.546875,P02,D10,1,0,0
173,-0.05,1644583234.5625,P02,D10,1,0,0
174,-0.22,1644583234.578125,P02,D10,1,0,0
175,-0.44,1644583234.59375,P02,D10,1,0,0
176,-0.64,1644583234.609375,P02,D10,1,0,0
177,-0.73,1644583234.625,P02,D10,1,0,0
178,-0.69,1644583234.640625,P02,D10,1,0,0
179,-0.48,1644583234.65625,P02,D10,1,0,0
180,-0.16,1644583234.671875,P02,D10,1,0,0
181,0.18,1644583234.6875,P02,D10,1,0,0
182,0.45,1644583234.703125,P02,D10,1,0,0
183,0.57,1644583234.71875,P02,D10,1,0,0
184,0.54,1644583234.734375,P02,D10,1,0,0
185,0.38,1644583234.75,P02,D10,1,0,0
186,0.16,1644583234.765625,P02,D10,1,0,0
187,-0.02,1644583234.78125,P02,D10,1,0,0
188,-0.11,1644583234.796875,P02,D10,1,0,0
189,-0.06,1644583234.8125,P02,D10,1,0,0
190,0.07,1644583234.828125,P02,D10,1,0,0
191,0.2,1644583234.84375,P02,D10,1,0,0
192,0.22,1644583234.859375,P02,D10,1,0,0
193,0.11,1644583234.875,P02,D10,1,0,0
194,-0.1,1644583234.890625,P02,D10,1,0,0
195,-0.3,1644583234.90625,P02,D10,1,0,0
196,-0.38,1644583234.921875,P02,D10,1,0,0
197,-0.3,1644583234.9375,P02,D10,1,0,0
198,-0.11,1644583234.953125,P02,D10,1,0,0
199,0.12,1644583234.96875,P02,D10,1,0,0
200,0.3,1644583234.984375,P02,D10,1,0,0
201,0.44,1644583235.0,P02,D10,1,0,0
202,0.56,1644583235.015625,P02,D10,1,0,0
203,0.7,1644583235.03125,P02,D10,1,0,0
204,0.86,1644583235.046875,P02,D10,1,0,0
205,0.96,1644583235.0625,P02,D10,1,0,0
206,0.95,1644583235.078125,P02,D10,1,0,0
207,0.78,1644583235.09375,P02,D10,1,0,0
208,0.5,1644583235.109375,P02,D10,1,0,0
209,0.2,1644583235.125,P02,D10,1,0,0
210,-0.03,1644583235.140625,P02,D10,1,0,0
211,-0.13,1644583235.15625,P02,D10,1,0,0
212,-0.12,1644583235.171875,P02,D10,1,0,0
213,-0.04,1644583235.1875,P02,D10,1,0,0
214,0.04,1644583235.203125,P02,D10,1,0,0
215,0.1,1644583235.21875,P02,D10,1,0,0
216,0.1,1644583235.234375,P02,D10,1,0,0
217,0.04,1644583235.25,P02,D10,1,0,0
218,-0.06,1644583235.265625,P02,D10,1,0,0
219,-0.21,1644583235.28125,P02,D10,1,0,0
220,-0.37,1644583235.296875,P02,D10,1,0,0
221,-0.54,1644583235.3125,P02,D10,1,0,0
222,-0.72,1644583235.328125,P02,D10,1,0,0
223,-0.91,1644583235.34375,P02,D10,1,0,0
224,-1.12,1644583235.359375,P02,D10,1,0,0
225,-1.31,1644583235.375,P02,D10,1,0,0
226,-1.4,1644583235.390625,P02,D10,1,0,0
227,-1.34,1644583235.40625,P02,D10,1,0,0
228,-1.1,1644583235.421875,P02,D10,1,0,0
229,-0.74,1644583235.4375,P02,D10,1,0,0
230,-0.38,1644583235.453125,P02,D10,1,0,0
231,-0.14,1644583235.46875,P02,D10,1,0,0
232,-0.07,1644583235.484375,P02,D10,1,0,0
233,-0.13,1644583235.5,P02,D10,1,0,0
234,-0.25,1644583235.515625,P02,D10,1,0,0
235,-0.35,1644583235.53125,P02,D10,1,0,0
236,-0.39,1644583235.546875,P02,D10,1,0,0
237,-0.4,1644583235.5625,P02,D10,1,0,0
238,-0.45,1644583235.578125,P02,D10,1,0,0
239,-0.56,1644583235.59375,P02,D10,1,0,0
240,-0.69,1644583235.609375,P02,D10,1,0,0
241,-0.75,1644583235.625,P02,D10,1,0,0
242,-0.69,1644583235.640625,P02,D10,1,0,0
243,-0.48,1644583235.65625,P02,D10,1,0,0
244,-0.18,1644583235.671875,P02,D10,1,0,0
245,0.1,1644583235.6875,P02,D10,1,0,0
246,0.27,1644583235.703125,P02,D10,1,0,0
247,0.31,1644583235.71875,P02,D10,1,0,0
248,0.25,1644583235.734375,P02,D10,1,0,0
249,0.18,1644583235.75,P02,D10,1,0,0
250,0.21,1644583235.765625,P02,D10,1,0,0
251,0.36,1644583235.78125,P02,D10,1,0,0
252,0.6,1644583235.796875,P02,D10,1,0,0
253,0.86,1644583235.8125,P02,D10,1,0,0
254,1.06,1644583235.828125,P02,D10,1,0,0
255,1.15,1644583235.84375,P02,D10,1,0,0
256,1.13,1644583235.859375,P02,D10,1,0,0
257,1.04,1644583235.875,P02,D10,1,0,0
258,0.89,1644583235.890625,P02,D10,1,0,0
259,0.67,1644583235.90625,P02,D10,1,0,0
260,0.39,1644583235.921875,P02,D10,1,0,0
261,0.08,1644583235.9375,P02,D10,1,0,0
262,-0.16,1644583235.953125,P02,D10,1,0,0
263,-0.21,1644583235.96875,P02,D10,1,0,0
264,-0.03,1644583235.984375,P02,D10,1,0,0
265,0.35,1644583236.0,P02,D10,1,0,0
266,0.78,1644583236.015625,P02,D10,1,0,0
267,1.08,1644583236.03125,P02,D10,1,0,0
268,1.13,1644583236.046875,P02,D10,1,0,0
269,0.94,1644583236.0625,P02,D10,1,0,0
270,0.6,1644583236.078125,P02,D10,1,0,0
271,0.27,1644583236.09375,P02,D10,1,0,0
272,0.04,1644583236.109375,P02,D10,1,0,0
273,-0.06,1644583236.125,P02,D10,1,0,0
274,-0.11,1644583236.140625,P02,D10,1,0,0
275,-0.19,1644583236.15625,P02,D10,1,0,0
276,-0.34,1644583236.171875,P02,D10,1,0,0
277,-0.53,1644583236.1875,P02,D10,1,0,0
278,-0.7,1644583236.203125,P02,D10,1,0,0
279,-0.8,1644583236.21875,P02,D10,1,0,0
280,-0.81,1644583236.234375,P02,D10,1,0,0
281,-0.74,1644583236.25,P02,D10,1,0,0
282,-0.66,1644583236.265625,P02,D10,1,0,0
283,-0.61,1644583236.28125,P02,D10,1,0,0
284,-0.61,1644583236.296875,P02,D10,1,0,0
285,-0.66,1644583236.3125,P02,D10,1,0,0
286,-0.73,1644583236.328125,P02,D10,1,0,0
287,-0.78,1644583236.34375,P02,D10,1,0,0
288,-0.76,1644583236.359375,P02,D10,1,0,0
289,-0.63,1644583236.375,P02,D10,1,0,0
290,-0.37,1644583236.390625,P02,D10,1,0,0
291,-0.01,1644583236.40625,P02,D10,1,0,0
292,0.35,1644583236.421875,P02,D10,1,0,0
293,0.62,1644583236.4375,P02,D10,1,0,0
294,0.7,1644583236.453125,P02,D10,1,0,0
295,0.6,1644583236.46875,P02,D10,1,0,0
296,0.37,1644583236.484375,P02,D10,1,0,0
297,0.1,1644583236.5,P02,D10,1,0,0
298,-0.15,1644583236.515625,P02,D10,1,0,0
299,-0.39,1644583236.53125,P02,D10,1,0,0
300,-0.65,1644583236.546875,P02,D10,1,0,0
301,-0.93,1644583236.5625,P02,D10,1,0,0
302,-1.19,1644583236.578125,P02,D10,1,0,0
303,-1.36,1644583236.59375,P02,D10,1,0,0
304,-1.36,1644583236.609375,P02,D10,1,0,0
305,-1.18,1644583236.625,P02,D10,1,0,0
306,-0.89,1644583236.640625,P02,D10,1,0,0
307,-0.58,1644583236.65625,P02,D10,1,0,0
308,-0.3,1644583236.671875,P02,D10,1,0,0
309,-0.06,1644583236.6875,P02,D10,1,0,0
310,0.16,1644583236.703125,P02,D10,1,0,0
311,0.36,1644583236.71875,P02,D10,1,0,0
312,0.53,1644583236.734375,P02,D10,1,0,0
313,0.61,1644583236.75,P02,D10,1,0,0
314,0.6,1644583236.765625,P02,D10,1,0,0
315,0.53,1644583236.78125,P02,D10,1,0,0
316,0.5,1644583236.796875,P02,D10,1,0,0
317,0.57,1644583236.8125,P02,D10,1,0,0
318,0.73,1644583236.828125,P02,D10,1,0,0
319,0.89,1644583236.84375,P02,D10,1,0,0
320,0.94,1644583236.859375,P02,D10,1,0,0
321,0.82,1644583236.875,P02,D10,1,0,0
322,0.58,1644583236.890625,P02,D10,1,0,0
323,0.34,1644583236.90625,P02,D10,1,0,0
324,0.21,1644583236.921875,P02,D10,1,0,0
325,0.26,1644583236.9375,P02,D10,1,0,0
326,0.41,1644583236.953125,P02,D10,1,0,0
327,0.57,1644583236.96875,P02,D10,1,0,0
328,0.61,1644583236.984375,P02,D10,1,0,0
329,0.51,1644583237.0,P02,D10,1,0,0
330,0.31,1644583237.015625,P02,D10,1,0,0
331,0.13,1644583237.03125,P02,D10,1,0,0
332,0.05,1644583237.046875,P02,D10,1,0,0
333,0.11,1644583237.0625,P02,D10,1,0,0
334,0.27,1644583237.078125,P02,D10,1,0,0
335,0.47,1644583237.09375,P02,D10,1,0,0
336,0.64,1644583237.109375,P02,D10,1,0,0
337,0.73,1644583237.125,P02,D10,1,0,0
338,0.72,1644583237.140625,P02,D10,1,0,0
339,0.64,1644583237.15625,P02,D10,1,0,0
340,0.51,1644583237.171875,P02,D10,1,0,0
341,0.36,1644583237.1875,P02,D10,1,0,0
342,0.2,1644583237.203125,P02,D10,1,0,0
343,0.04,1644583237.21875,P02,D10,1,0,0
344,-0.13,1644583237.234375,P02,D10,1,0,0
345,-0.3,1644583237.25,P02,D10,1,0,0
346,-0.48,1644583237.265625,P02,D10,1,0,0
347,-0.65,1644583237.28125,P02,D10,1,0,0
348,-0.78,1644583237.296875,P02,D10,1,0,0
349,-0.84,1644583237.3125,P02,D10,1,0,0
350,-0.79,1644583237.328125,P02,D10,1,0,0
351,-0.65,1644583237.34375,P02,D10,1,0,0
352,-0.44,1644583237.359375,P02,D10,1,0,0
353,-0.25,1644583237.375,P02,D10,1,0,0
354,-0.11,1644583237.390625,P02,D10,1,0,0
355,-0.04,1644583237.40625,P02,D10,1,0,0
356,-0.04,1644583237.421875,P02,D10,1,0,0
357,-0.05,1644583237.4375,P02,D10,1,0,0
358,-0.05,1644583237.453125,P02,D10,1,0,0
359,-0.02,1644583237.46875,P02,D10,1,0,0
360,-0.02,1644583237.484375,P02,D10,1,0,0
361,-0.1,1644583237.5,P02,D10,1,0,0
362,-0.32,1644583237.515625,P02,D10,1,0,0
363,-0.64,1644583237.53125,P02,D10,1,0,0
364,-0.98,1644583237.546875,P02,D10,1,0,0
365,-1.22,1644583237.5625,P02,D10,1,0,0
366,-1.25,1644583237.578125,P02,D10,1,0,0
367,-1.06,1644583237.59375,P02,D10,1,0,0
368,-0.74,1644583237.609375,P02,D10,1,0,0
369,-0.4,1644583237.625,P02,D10,1,0,0
370,-0.16,1644583237.640625,P02,D10,1,0,0
371,-0.07,1644583237.65625,P02,D10,1,0,0
372,-0.08,1644583237.671875,P02,D10,1,0,0
373,-0.13,1644583237.6875,P02,D10,1,0,0
374,-0.16,1644583237.703125,P02,D10,1,0,0
375,-0.18,1644583237.71875,P02,D10,1,0,0
376,-0.2,1644583237.734375,P02,D10,1,0,0
377,-0.27,1644583237.75,P02,D10,1,0,0
378,-0.37,1644583237.765625,P02,D10,1,0,0
379,-0.46,1644583237.78125,P02,D10,1,0,0
380,-0.46,1644583237.796875,P02,D10,1,0,0
381,-0.33,1644583237.8125,P02,D10,1,0,0
382,-0.08,1644583237.828125,P02,D10,1,0,0
383,0.21,1644583237.84375,P02,D10,1,0,0
384,0.4,1644583237.859375,P02,D10,1,0,0
385,0.41,1644583237.875,P02,D10,1,0,0
386,0.17,1644583237.890625,P02,D10,1,0,0
387,-0.29,1644583237.90625,P02,D10,1,0,0
388,-0.84,1644583237.921875,P02,D10,1,0,0
389,-1.35,1644583237.9375,P02,D10,1,0,0
390,-1.72,1644583237.953125,P02,D10,1,0,0
391,-1.92,1644583237.96875,P02,D10,1,0,0
392,-2.02,1644583237.984375,P02,D10,1,0,0
393,-2.16,1644583238.0,P02,D10,1,0,0
394,-2.48,1644583238.015625,P02,D10,1,0,0
395,-3.09,1644583238.03125,P02,D10,1,0,0
396,-4.0,1644583238.046875,P02,D10,1,0,0
397,-5.13,1644583238.0625,P02,D10,1,0,0
398,-6.35,1644583238.078125,P02,D10,1,0,0
399,-7.55,1644583238.09375,P02,D10,1,0,0
400,-8.64,1644583238.109375,P02,D10,1,0,0
401,-9.59,1644583238.125,P02,D10,1,0,0
402,-10.4,1644583238.140625,P02,D10,1,0,0
403,-11.09,1644583238.15625,P02,D10,1,0,0
404,-11.68,1644583238.171875,P02,D10,1,0,0
405,-12.23,1644583238.1875,P02,D10,1,0,0
406,-12.74,1644583238.203125,P02,D10,1,0,0
407,-13.22,1644583238.21875,P02,D10,1,0,0
408,-13.61,1644583238.234375,P02,D10,1,0,0
409,-13.83,1644583238.25,P02,D10,1,0,0
410,-13.76,1644583238.265625,P02,D10,1,0,0
411,-13.35,1644583238.28125,P02,D10,1,0,0
412,-12.7,1644583238.296875,P02,D10,1,0,0
413,-12.01,1644583238.3125,P02,D10,1,0,0
414,-11.6,1644583238.328125,P02,D10,1,0,0
415,-11.65,1644583238.34375,P02,D10,1,0,0
416,-12.12,1644583238.359375,P02,D10,1,0,0
417,-12.67,1644583238.375,P02,D10,1,0,0
418,-12.8,1644583238.390625,P02,D10,1,0,0
419,-12.07,1644583238.40625,P02,D10,1,0,0
420,-10.24,1644583238.421875,P02,D10,1,0,0
421,-7.36,1644583238.4375,P02,D10,1,0,0
422,-3.68,1644583238.453125,P02,D10,1,0,0
423,0.58,1644583238.46875,P02,D10,1,0,0
424,5.23,1644583238.484375,P02,D10,1,0,0
425,10.11,1644583238.5,P02,D10,1,0,0
426,15.0,1644583238.515625,P02,D10,1,0,0
427,19.58,1644583238.53125,P02,D10,1,0,0
428,23.63,1644583238.546875,P02,D10,1,0,0
429,27.24,1644583238.5625,P02,D10,1,0,0
430,30.91,1644583238.578125,P02,D10,1,0,0
431,35.36,1644583238.59375,P02,D10,1,0,0
432,41.1,1644583238.609375,P02,D10,1,0,0
433,47.91,1644583238.625,P02,D10,1,0,0
434,54.71,1644583238.640625,P02,D10,1,0,0
435,59.86,1644583238.65625,P02,D10,1,0,0
436,61.83,1644583238.671875,P02,D10,1,0,0
437,60.0,1644583238.6875,P02,D10,1,0,0
438,54.87,1644583238.703125,P02,D10,1,0,0
439,47.93,1644583238.71875,P02,D10,1,0,0
440,41.02,1644583238.734375,P02,D10,1,0,0
441,35.61,1644583238.75,P02,D10,1,0,0
442,32.46,1644583238.765625,P02,D10,1,0,0
443,31.7,1644583238.78125,P02,D10,1,0,0
444,33.09,1644583238.796875,P02,D10,1,0,0
445,36.12,1644583238.8125,P02,D10,1,0,0
446,39.77,1644583238.828125,P02,D10,1,0,0
447,42.36,1644583238.84375,P02,D10,1,0,0
448,41.79,1644583238.859375,P02,D10,1,0,0
449,36.19,1644583238.875,P02,D10,1,0,0
450,25.04,1644583238.890625,P02,D10,1,0,0
451,9.69,1644583238.90625,P02,D10,1,0,0
452,-6.87,1644583238.921875,P02,D10,1,0,0
453,-21.1,1644583238.9375,P02,D10,1,0,0
454,-30.41,1644583238.953125,P02,D10,1,0,0
455,-34.13,1644583238.96875,P02,D10,1,0,0
456,-33.48,1644583238.984375,P02,D10,1,0,0
457,-30.67,1644583239.0,P02,D10,1,0,0
458,-27.69,1644583239.015625,P02,D10,1,0,0
459,-25.48,1644583239.03125,P02,D10,1,0,0
460,-23.9,1644583239.046875,P02,D10,1,0,0
461,-22.35,1644583239.0625,P02,D10,1,0,0
462,-20.46,1644583239.078125,P02,D10,1,0,0
463,-18.39,1644583239.09375,P02,D10,1,0,0
464,-16.69,1644583239.109375,P02,D10,1,0,0
465,-15.85,1644583239.125,P02,D10,1,0,0
466,-15.99,1644583239.140625,P02,D10,1,0,0
467,-16.78,1644583239.15625,P02,D10,1,0,0
468,-17.7,1644583239.171875,P02,D10,1,0,0
469,-18.2,1644583239.1875,P02,D10,1,0,0
470,-18.03,1644583239.203125,P02,D10,1,0,0
471,-17.28,1644583239.21875,P02,D10,1,0,0
472,-16.24,1644583239.234375,P02,D10,1,0,0
473,-15.27,1644583239.25,P02,D10,1,0,0
474,-14.64,1644583239.265625,P02,D10,1,0,0
475,-14.48,1644583239.28125,P02,D10,1,0,0
476,-14.74,1644583239.296875,P02,D10,1,0,0
477,-15.28,1644583239.3125,P02,D10,1,0,0
478,-15.92,1644583239.328125,P02,D10,1,0,0
479,-16.55,1644583239.34375,P02,D10,1,0,0
480,-17.08,1644583239.359375,P02,D10,1,0,0
481,-17.54,1644583239.375,P02,D10,1,0,0
482,-17.95,1644583239.390625,P02,D10,1,0,0
483,-18.33,1644583239.40625,P02,D10,1,0,0
484,-18.59,1644583239.421875,P02,D10,1,0,0
485,-18.53,1644583239.4375,P02,D10,1,0,0
486,-17.93,1644583239.453125,P02,D10,1,0,0
487,-16.6,1644583239.46875,P02,D10,1,0,0
488,-14.56,1644583239.484375,P02,D10,1,0,0
489,-12.03,1644583239.5,P02,D10,1,0,0
490,-9.43,1644583239.515625,P02,D10,1,0,0
491,-7.17,1644583239.53125,P02,D10,1,0,0
492,-5.54,1644583239.546875,P02,D10,1,0,0
493,-4.57,1644583239.5625,P02,D10,1,0,0
494,-4.06,1644583239.578125,P02,D10,1,0,0
495,-3.7,1644583239.59375,P02,D10,1,0,0
496,-3.2,1644583239.609375,P02,D10,1,0,0
497,-2.41,1644583239.625,P02,D10,1,0,0
498,-1.36,1644583239.640625,P02,D10,1,0,0
499,-0.16,1644583239.65625,P02,D10,1,0,0
500,1.04,1644583239.671875,P02,D10,1,0,0
501,2.14,1644583239.6875,P02,D10,1,0,0
502,3.13,1644583239.703125,P02,D10,1,0,0
503,4.02,1644583239.71875,P02,D10,1,0,0
504,4.83,1644583239.734375,P02,D10,1,0,0
505,5.57,1644583239.75,P02,D10,1,0,0
506,6.18,1644583239.765625,P02,D10,1,0,0
507,6.6,1644583239.78125,P02,D10,1,0,0
508,6.79,1644583239.796875,P02,D10,1,0,0
509,6.67,1644583239.8125,P02,D10,1,0,0
510,6.22,1644583239.828125,P02,D10,1,0,0
511,5.37,1644583239.84375,P02,D10,1,0,0
512,4.17,1644583239.859375,P02,D10,1,0,0
513,2.7,1644583239.875,P02,D10,1,0,0
514,1.17,1644583239.890625,P02,D10,1,0,0
515,-0.2,1644583239.90625,P02,D10,1,0,0
516,-1.25,1644583239.921875,P02,D10,1,0,0
517,-1.94,1644583239.9375,P02,D10,1,0,0
518,-2.36,1644583239.953125,P02,D10,1,0,0
519,-2.68,1644583239.96875,P02,D10,1,0,0
520,-3.01,1644583239.984375,P02,D10,1,0,0
521,-3.39,1644583240.0,P02,D10,1,0,0
522,-3.74,1644583240.015625,P02,D10,1,0,0
523,-4.0,1644583240.03125,P02,D10,1,0,0
524,-4.17,1644583240.046875,P02,D10,1,0,0
525,-4.3,1644583240.0625,P02,D10,1,0,0
526,-4.52,1644583240.078125,P02,D10,1,0,0
527,-4.88,1644583240.09375,P02,D10,1,0,0
528,-5.34,1644583240.109375,P02,D10,1,0,0
529,-5.8,1644583240.125,P02,D10,1,0,0
530,-6.17,1644583240.140625,P02,D10,1,0,0
531,-6.43,1644583240.15625,P02,D10,1,0,0
532,-6.65,1644583240.171875,P02,D10,1,0,0
533,-6.95,1644583240.1875,P02,D10,1,0,0
534,-7.39,1644583240.203125,P02,D10,1,0,0
535,-7.92,1644583240.21875,P02,D10,1,0,0
536,-8.4,1644583240.234375,P02,D10,1,0,0
537,-8.66,1644583240.25,P02,D10,1,0,0
538,-8.61,1644583240.265625,P02,D10,1,0,0
539,-8.23,1644583240.28125,P02,D10,1,0,0
540,-7.61,1644583240.296875,P02,D10,1,0,0
541,-6.85,1644583240.3125,P02,D10,1,0,0
542,-6.07,1644583240.328125,P02,D10,1,0,0
543,-5.31,1644583240.34375,P02,D10,1,0,0
544,-4.59,1644583240.359375,P02,D10,1,0,0
545,-3.87,1644583240.375,P02,D10,1,0,0
546,-3.12,1644583240.390625,P02,D10,1,0,0
547,-2.29,1644583240.40625,P02,D10,1,0,0
548,-1.39,1644583240.421875,P02,D10,1,0,0
549,-0.46,1644583240.4375,P02,D10,1,0,0
550,0.44,1644583240.453125,P02,D10,1,0,0
551,1.21,1644583240.46875,P02,D10,1,0,0
552,1.79,1644583240.484375,P02,D10,1,0,0
553,2.14,1644583240.5,P02,D10,1,0,0
554,2.26,1644583240.515625,P02,D10,1,0,0
555,2.18,1644583240.53125,P02,D10,1,0,0
556,1.97,1644583240.546875,P02,D10,1,0,0
557,1.67,1644583240.5625,P02,D10,1,0,0
558,1.31,1644583240.578125,P02,D10,1,0,0
559,0.94,1644583240.59375,P02,D10,1,0,0
560,0.57,1644583240.609375,P02,D10,1,0,0
561,0.27,1644583240.625,P02,D10,1,0,0
562,0.08,1644583240.640625,P02,D10,1,0,0
563,0.02,1644583240.65625,P02,D10,1,0,0
564,0.1,1644583240.671875,P02,D10,1,0,0
565,0.24,1644583240.6875,P02,D10,1,0,0
566,0.39,1644583240.703125,P02,D10,1,0,0
567,0.48,1644583240.71875,P02,D10,1,0,0
568,0.5,1644583240.734375,P02,D10,1,0,0
569,0.48,1644583240.75,P02,D10,1,0,0
570,0.5,1644583240.765625,P02,D10,1,0,0
571,0.66,1644583240.78125,P02,D10,1,0,0
572,1.01,1644583240.796875,P02,D10,1,0,0
573,1.58,1644583240.8125,P02,D10,1,0,0
574,2.36,1644583240.828125,P02,D10,1,0,0
575,3.34,1644583240.84375,P02,D10,1,0,0
576,4.51,1644583240.859375,P02,D10,1,0,0
577,5.88,1644583240.875,P02,D10,1,0,0
578,7.42,1644583240.890625,P02,D10,1,0,0
579,9.07,1644583240.90625,P02,D10,1,0,0
580,10.73,1644583240.921875,P02,D10,1,0,0
581,12.26,1644583240.9375,P02,D10,1,0,0
582,13.55,1644583240.953125,P02,D10,1,0,0
583,14.56,1644583240.96875,P02,D10,1,0,0
584,15.31,1644583240.984375,P02,D10,1,0,0
585,15.88,1644583241.0,P02,D10,1,0,0
586,16.31,1644583241.015625,P02,D10,1,0,0
587,16.6,1644583241.03125,P02,D10,1,0,0
588,16.66,1644583241.046875,P02,D10,1,0,0
589,16.4,1644583241.0625,P02,D10,1,0,0
590,15.76,1644583241.078125,P02,D10,1,0,0
591,14.82,1644583241.09375,P02,D10,1,0,0
592,13.74,1644583241.109375,P02,D10,1,0,0
593,12.68,1644583241.125,P02,D10,1,0,0
594,11.75,1644583241.140625,P02,D10,1,0,0
595,10.92,1644583241.15625,P02,D10,1,0,0
596,10.04,1644583241.171875,P02,D10,1,0,0
597,8.96,1644583241.1875,P02,D10,1,0,0
598,7.55,1644583241.203125,P02,D10,1,0,0
599,5.79,1644583241.21875,P02,D10,1,0,0
600,3.76,1644583241.234375,P02,D10,1,0,0
601,1.56,1644583241.25,P02,D10,1,0,0
602,-0.68,1644583241.265625,P02,D10,1,0,0
603,-2.83,1644583241.28125,P02,D10,1,0,0
604,-4.79,1644583241.296875,P02,D10,1,0,0
605,-6.49,1644583241.3125,P02,D10,1,0,0
606,-7.83,1644583241.328125,P02,D10,1,0,0
607,-8.8,1644583241.34375,P02,D10,1,0,0
608,-9.39,1644583241.359375,P02,D10,1,0,0
609,-9.65,1644583241.375,P02,D10,1,0,0
610,-9.65,1644583241.390625,P02,D10,1,0,0
611,-9.45,1644583241.40625,P02,D10,1,0,0
612,-9.12,1644583241.421875,P02,D10,1,0,0
613,-8.71,1644583241.4375,P02,D10,1,0,0
614,-8.27,1644583241.453125,P02,D10,1,0,0
615,-7.83,1644583241.46875,P02,D10,1,0,0
616,-7.4,1644583241.484375,P02,D10,1,0,0
617,-6.95,1644583241.5,P02,D10,1,0,0
618,-6.43,1644583241.515625,P02,D10,1,0,0
619,-5.78,1644583241.53125,P02,D10,1,0,0
620,-5.0,1644583241.546875,P02,D10,1,0,0
621,-4.15,1644583241.5625,P02,D10,1,0,0
622,-3.36,1644583241.578125,P02,D10,1,0,0
623,-2.77,1644583241.59375,P02,D10,1,0,0
624,-2.5,1644583241.609375,P02,D10,1,0,0
625,-2.5,1644583241.625,P02,D10,1,0,0
626,-2.67,1644583241.640625,P02,D10,1,0,0
627,-2.82,1644583241.65625,P02,D10,1,0,0
628,-2.83,1644583241.671875,P02,D10,1,0,0
629,-2.67,1644583241.6875,P02,D10,1,0,0
630,-2.4,1644583241.703125,P02,D10,1,0,0
631,-2.14,1644583241.71875,P02,D10,1,0,0
632,-1.95,1644583241.734375,P02,D10,1,0,0
633,-1.84,1644583241.75,P02,D10,1,0,0
634,-1.78,1644583241.765625,P02,D10,1,0,0
635,-1.68,1644583241.78125,P02,D10,1,0,0
636,-1.5,1644583241.796875,P02,D10,1,0,0
637,-1.22,1644583241.8125,P02,D10,1,0,0
638,-0.86,1644583241.828125,P02,D10,1,0,0
639,-0.4,1644583241.84375,P02,D10,1,0,0
640,0.12,1644583241.859375,P02,D10,1,0,0
641,0.65,1644583241.875,P02,D10,1,0,0
642,1.09,1644583241.890625,P02,D10,1,0,0
643,1.32,1644583241.90625,P02,D10,1,0,0
644,1.26,1644583241.921875,P02,D10,1,0,0
645,0.9,1644583241.9375,P02,D10,1,0,0
646,0.35,1644583241.953125,P02,D10,1,0,0
647,-0.21,1644583241.96875,P02,D10,1,0,0
648,-0.63,1644583241.984375,P02,D10,1,0,0
649,-0.81,1644583242.0,P02,D10,1,0,0
650,-0.76,1644583242.015625,P02,D10,1,0,0
651,-0.57,1644583242.03125,P02,D10,1,0,0
652,-0.31,1644583242.046875,P02,D10,1,0,0
653,-0.04,1644583242.0625,P02,D10,1,0,0
654,0.24,1644583242.078125,P02,D10,1,0,0
655,0.51,1644583242.09375,P02,D10,1,0,0
656,0.77,1644583242.109375,P02,D10,1,0,0
657,0.97,1644583242.125,P02,D10,1,0,0
658,1.08,1644583242.140625,P02,D10,1,0,0
659,1.1,1644583242.15625,P02,D10,1,0,0
660,1.08,1644583242.171875,P02,D10,1,0,0
661,1.07,1644583242.1875,P02,D10,1,0,0
662,1.09,1644583242.203125,P02,D10,1,0,0
663,1.12,1644583242.21875,P02,D10,1,0,0
664,1.11,1644583242.234375,P02,D10,1,0,0
665,1.01,1644583242.25,P02,D10,1,0,0
666,0.83,1644583242.265625,P02,D10,1,0,0
667,0.62,1644583242.28125,P02,D10,1,0,0
668,0.48,1644583242.296875,P02,D10,1,0,0
669,0.46,1644583242.3125,P02,D10,1,0,0
670,0.56,1644583242.328125,P02,D10,1,0,0
671,0.69,1644583242.34375,P02,D10,1,0,0
672,0.72,1644583242.359375,P02,D10,1,0,0
673,0.58,1644583242.375,P02,D10,1,0,0
674,0.31,1644583242.390625,P02,D10,1,0,0
675,0.02,1644583242.40625,P02,D10,1,0,0
676,-0.14,1644583242.421875,P02,D10,1,0,0
677,-0.06,1644583242.4375,P02,D10,1,0,0
678,0.25,1644583242.453125,P02,D10,1,0,0
679,0.67,1644583242.46875,P02,D10,1,0,0
680,1.03,1644583242.484375,P02,D10,1,0,0
681,1.19,1644583242.5,P02,D10,1,0,0
682,1.1,1644583242.515625,P02,D10,1,0,0
683,0.84,1644583242.53125,P02,D10,1,0,0
684,0.52,1644583242.546875,P02,D10,1,0,0
685,0.28,1644583242.5625,P02,D10,1,0,0
686,0.18,1644583242.578125,P02,D10,1,0,0
687,0.21,1644583242.59375,P02,D10,1,0,0
688,0.31,1644583242.609375,P02,D10,1,0,0
689,0.4,1644583242.625,P02,D10,1,0,0
690,0.44,1644583242.640625,P02,D10,1,0,0
691,0.4,1644583242.65625,P02,D10,1,0,0
692,0.27,1644583242.671875,P02,D10,1,0,0
693,0.07,1644583242.6875,P02,D10,1,0,0
694,-0.17,1644583242.703125,P02,D10,1,0,0
695,-0.4,1644583242.71875,P02,D10,1,0,0
696,-0.55,1644583242.734375,P02,D10,1,0,0
697,-0.57,1644583242.75,P02,D10,1,0,0
698,-0.45,1644583242.765625,P02,D10,1,0,0
699,-0.25,1644583242.78125,P02,D10,1,0,0
700,-0.03,1644583242.796875,P02,D10,1,0,0
701,0.13,1644583242.8125,P02,D10,1,0,0
702,0.17,1644583242.828125,P02,D10,1,0,0
703,0.14,1644583242.84375,P02,D10,1,0,0
704,0.07,1644583242.859375,P02,D10,1,0,0
705,0.04,1644583242.875,P02,D10,1,0,0
706,0.05,1644583242.890625,P02,D10,1,0,0
707,0.07,1644583242.90625,P02,D10,1,0,0
708,0.05,1644583242.921875,P02,D10,1,0,0
709,-0.01,1644583242.9375,P02,D10,1,0,0
710,-0.07,1644583242.953125,P02,D10,1,0,0
711,-0.09,1644583242.96875,P02,D10,1,0,0
712,-0.07,1644583242.984375,P02,D10,1,0,0
713,-0.04,1644583243.0,P02,D10,1,0,0
714,-0.05,1644583243.015625,P02,D10,1,0,0
715,-0.11,1644583243.03125,P02,D10,1,0,0
716,-0.21,1644583243.046875,P02,D10,1,0,0
717,-0.26,1644583243.0625,P02,D10,1,0,0
718,-0.21,1644583243.078125,P02,D10,1,0,0
719,-0.05,1644583243.09375,P02,D10,1,0,0
720,0.15,1644583243.109375,P02,D10,1,0,0
721,0.33,1644583243.125,P02,D10,1,0,0
722,0.44,1644583243.140625,P02,D10,1,0,0
723,0.48,1644583243.15625,P02,D10,1,0,0
724,0.52,1644583243.171875,P02,D10,1,0,0
725,0.58,1644583243.1875,P02,D10,1,0,0
726,0.68,1644583243.203125,P02,D10,1,0,0
727,0.77,1644583243.21875,P02,D10,1,0,0
728,0.79,1644583243.234375,P02,D10,1,0,0
729,0.68,1644583243.25,P02,D10,1,0,0
730,0.44,1644583243.265625,P02,D10,1,0,0
731,0.08,1644583243.28125,P02,D10,1,0,0
732,-0.31,1644583243.296875,P02,D10,1,0,0
733,-0.64,1644583243.3125,P02,D10,1,0,0
734,-0.84,1644583243.328125,P02,D10,1,0,0
735,-0.84,1644583243.34375,P02,D10,1,0,0
736,-0.69,1644583243.359375,P02,D10,1,0,0
737,-0.47,1644583243.375,P02,D10,1,0,0
738,-0.27,1644583243.390625,P02,D10,1,0,0
739,-0.14,1644583243.40625,P02,D10,1,0,0
740,-0.06,1644583243.421875,P02,D10,1,0,0
741,0.03,1644583243.4375,P02,D10,1,0,0
742,0.17,1644583243.453125,P02,D10,1,0,0
743,0.32,1644583243.46875,P02,D10,1,0,0
744,0.41,1644583243.484375,P02,D10,1,0,0
745,0.37,1644583243.5,P02,D10,1,0,0
746,0.2,1644583243.515625,P02,D10,1,0,0
747,-0.02,1644583243.53125,P02,D10,1,0,0
748,-0.18,1644583243.546875,P02,D10,1,0,0
749,-0.19,1644583243.5625,P02,D10,1,0,0
750,-0.08,1644583243.578125,P02,D10,1,0,0
751,0.07,1644583243.59375,P02,D10,1,0,0
752,0.15,1644583243.609375,P02,D10,1,0,0
753,0.11,1644583243.625,P02,D10,1,0,0
754,-0.01,1644583243.640625,P02,D10,1,0,0
755,-0.16,1644583243.65625,P02,D10,1,0,0
756,-0.27,1644583243.671875,P02,D10,1,0,0
757,-0.31,1644583243.6875,P02,D10,1,0,0
758,-0.3,1644583243.703125,P02,D10,1,0,0
759,-0.29,1644583243.71875,P02,D10,1,0,0
760,-0.29,1644583243.734375,P02,D10,1,0,0
761,-0.33,1644583243.75,P02,D10,1,0,0
762,-0.37,1644583243.765625,P02,D10,1,0,0
763,-0.39,1644583243.78125,P02,D10,1,0,0
764,-0.38,1644583243.796875,P02,D10,1,0,0
765,-0.31,1644583243.8125,P02,D10,1,0,0
766,-0.18,1644583243.828125,P02,D10,1,0,0
767,0.02,1644583243.84375,P02,D10,1,0,0
768,0.23,1644583243.859375,P02,D10,1,0,0
769,0.42,1644583243.875,P02,D10,1,0,0
770,0.51,1644583243.890625,P02,D10,1,0,0
771,0.47,1644583243.90625,P02,D10,1,0,0
772,0.34,1644583243.921875,P02,D10,1,0,0
773,0.18,1644583243.9375,P02,D10,1,0,0
774,0.08,1644583243.953125,P02,D10,1,0,0
775,0.08,1644583243.96875,P02,D10,1,0,0
776,0.18,1644583243.984375,P02,D10,1,0,0
777,0.33,1644583244.0,P02,D10,1,0,0
778,0.47,1644583244.015625,P02,D10,1,0,0
779,0.56,1644583244.03125,P02,D10,1,0,0
780,0.58,1644583244.046875,P02,D10,1,0,0
781,0.55,1644583244.0625,P02,D10,1,0,0
782,0.49,1644583244.078125,P02,D10,1,0,0
783,0.42,1644583244.09375,P02,D10,1,0,0
784,0.35,1644583244.109375,P02,D10,1,0,0
785,0.27,1644583244.125,P02,D10,1,0,0
786,0.19,1644583244.140625,P02,D10,1,0,0
787,0.11,1644583244.15625,P02,D10,1,0,0
788,0.05,1644583244.171875,P02,D10,1,0,0
789,0.02,1644583244.1875,P02,D10,1,0,0
790,-0.01,1644583244.203125,P02,D10,1,0,0
791,-0.06,1644583244.21875,P02,D10,1,0,0
792,-0.15,1644583244.234375,P02,D10,1,0,0
793,-0.27,1644583244.25,P02,D10,1,0,0
794,-0.38,1644583244.265625,P02,D10,1,0,0
795,-0.46,1644583244.28125,P02,D10,1,0,0
796,-0.47,1644583244.296875,P02,D10,1,0,0
797,-0.42,1644583244.3125,P02,D10,1,0,0
798,-0.33,1644583244.328125,P02,D10,1,0,0
799,-0.23,1644583244.34375,P02,D10,1,0,0
800,-0.13,1644583244.359375,P02,D10,1,0,0
801,-0.02,1644583244.375,P02,D10,1,0,0
802,0.09,1644583244.390625,P02,D10,1,0,0
803,0.16,1644583244.40625,P02,D10,1,0,0
804,0.17,1644583244.421875,P02,D10,1,0,0
805,0.05,1644583244.4375,P02,D10,1,0,0
806,-0.18,1644583244.453125,P02,D10,1,0,0
807,-0.49,1644583244.46875,P02,D10,1,0,0
808,-0.77,1644583244.484375,P02,D10,1,0,0
809,-0.93,1644583244.5,P02,D10,1,0,0
810,-0.93,1644583244.515625,P02,D10,1,0,0
811,-0.76,1644583244.53125,P02,D10,1,0,0
812,-0.48,1644583244.546875,P02,D10,1,0,0
813,-0.16,1644583244.5625,P02,D10,1,0,0
814,0.14,1644583244.578125,P02,D10,1,0,0
815,0.39,1644583244.59375,P02,D10,1,0,0
816,0.58,1644583244.609375,P02,D10,1,0,0
817,0.7,1644583244.625,P02,D10,1,0,0
818,0.73,1644583244.640625,P02,D10,1,0,0
819,0.69,1644583244.65625,P02,D10,1,0,0
820,0.59,1644583244.671875,P02,D10,1,0,0
821,0.44,1644583244.6875,P02,D10,1,0,0
822,0.28,1644583244.703125,P02,D10,1,0,0
823,0.1,1644583244.71875,P02,D10,1,0,0
824,-0.09,1644583244.734375,P02,D10,1,0,0
825,-0.27,1644583244.75,P02,D10,1,0,0
826,-0.41,1644583244.765625,P02,D10,1,0,0
827,-0.47,1644583244.78125,P02,D10,1,0,0
828,-0.46,1644583244.796875,P02,D10,1,0,0
829,-0.36,1644583244.8125,P02,D10,1,0,0
830,-0.2,1644583244.828125,P02,D10,1,0,0
831,-0.02,1644583244.84375,P02,D10,1,0,0
832,0.15,1644583244.859375,P02,D10,1,0,0
833,0.24,1644583244.875,P02,D10,1,0,0
834,0.24,1644583244.890625,P02,D10,1,0,0
835,0.15,1644583244.90625,P02,D10,1,0,0
836,-0.01,1644583244.921875,P02,D10,1,0,0
837,-0.17,1644583244.9375,P02,D10,1,0,0
838,-0.26,1644583244.953125,P02,D10,1,0,0
839,-0.26,1644583244.96875,P02,D10,1,0,0
840,-0.15,1644583244.984375,P02,D10,1,0,0
841,-0.0,1644583245.0,P02,D10,1,0,0
842,0.13,1644583245.015625,P02,D10,1,0,0
843,0.19,1644583245.03125,P02,D10,1,0,0
844,0.13,1644583245.046875,P02,D10,1,0,0
845,0.02,1644583245.0625,P02,D10,1,0,0
846,-0.09,1644583245.078125,P02,D10,1,0,0
847,-0.09,1644583245.09375,P02,D10,1,0,0
848,0.06,1644583245.109375,P02,D10,1,0,0
849,0.33,1644583245.125,P02,D10,1,0,0
850,0.61,1644583245.140625,P02,D10,1,0,0
851,0.78,1644583245.15625,P02,D10,1,0,0
852,0.76,1644583245.171875,P02,D10,1,0,0
853,0.57,1644583245.1875,P02,D10,1,0,0
854,0.3,1644583245.203125,P02,D10,1,0,0
855,0.1,1644583245.21875,P02,D10,1,0,0
856,0.05,1644583245.234375,P02,D10,1,0,0
857,0.16,1644583245.25,P02,D10,1,0,0
858,0.3,1644583245.265625,P02,D10,1,0,0
859,0.38,1644583245.28125,P02,D10,1,0,0
860,0.32,1644583245.296875,P02,D10,1,0,0
861,0.16,1644583245.3125,P02,D10,1,0,0
862,-0.03,1644583245.328125,P02,D10,1,0,0
863,-0.17,1644583245.34375,P02,D10,1,0,0
864,-0.28,1644583245.359375,P02,D10,1,0,0
865,-0.41,1644583245.375,P02,D10,1,0,0
866,-0.62,1644583245.390625,P02,D10,1,0,0
867,-0.95,1644583245.40625,P02,D10,1,0,0
868,-1.33,1644583245.421875,P02,D10,1,0,0
869,-1.67,1644583245.4375,P02,D10,1,0,0
870,-1.88,1644583245.453125,P02,D10,1,0,0
871,-1.92,1644583245.46875,P02,D10,1,0,0
872,-1.85,1644583245.484375,P02,D10,1,0,0
873,-1.75,1644583245.5,P02,D10,1,0,0
874,-1.76,1644583245.515625,P02,D10,1,0,0
875,-1.91,1644583245.53125,P02,D10,1,0,0
876,-2.22,1644583245.546875,P02,D10,1,0,0
877,-2.59,1644583245.5625,P02,D10,1,0,0
878,-2.93,1644583245.578125,P02,D10,1,0,0
879,-3.12,1644583245.59375,P02,D10,1,0,0
880,-3.06,1644583245.609375,P02,D10,1,0,0
881,-2.7,1644583245.625,P02,D10,1,0,0
882,-2.05,1644583245.640625,P02,D10,1,0,0
883,-1.16,1644583245.65625,P02,D10,1,0,0
884,-0.15,1644583245.671875,P02,D10,1,0,0
885,0.9,1644583245.6875,P02,D10,1,0,0
886,1.94,1644583245.703125,P02,D10,1,0,0
887,2.95,1644583245.71875,P02,D10,1,0,0
888,3.96,1644583245.734375,P02,D10,1,0,0
889,4.98,1644583245.75,P02,D10,1,0,0
890,5.96,1644583245.765625,P02,D10,1,0,0
891,6.78,1644583245.78125,P02,D10,1,0,0
892,7.35,1644583245.796875,P02,D10,1,0,0
893,7.65,1644583245.8125,P02,D10,1,0,0
894,7.72,1644583245.828125,P02,D10,1,0,0
895,7.69,1644583245.84375,P02,D10,1,0,0
896,7.63,1644583245.859375,P02,D10,1,0,0
897,7.56,1644583245.875,P02,D10,1,0,0
898,7.42,1644583245.890625,P02,D10,1,0,0
899,7.15,1644583245.90625,P02,D10,1,0,0
900,6.72,1644583245.921875,P02,D10,1,0,0
901,6.17,1644583245.9375,P02,D10,1,0,0
902,5.59,1644583245.953125,P02,D10,1,0,0
903,5.02,1644583245.96875,P02,D10,1,0,0
904,4.46,1644583245.984375,P02,D10,1,0,0
905,3.84,1644583246.0,P02,D10,1,0,0
906,3.1,1644583246.015625,P02,D10,1,0,0
907,2.2,1644583246.03125,P02,D10,1,0,0
908,1.18,1644583246.046875,P02,D10,1,0,0
909,0.14,1644583246.0625,P02,D10,1,0,0
910,-0.82,1644583246.078125,P02,D10,1,0,0
911,-1.62,1644583246.09375,P02,D10,1,0,0
912,-2.21,1644583246.109375,P02,D10,1,0,0
913,-2.62,1644583246.125,P02,D10,1,0,0
914,-2.9,1644583246.140625,P02,D10,1,0,0
915,-3.11,1644583246.15625,P02,D10,1,0,0
916,-3.28,1644583246.171875,P02,D10,1,0,0
917,-3.47,1644583246.1875,P02,D10,1,0,0
918,-3.65,1644583246.203125,P02,D10,1,0,0
919,-3.82,1644583246.21875,P02,D10,1,0,0
920,-3.99,1644583246.234375,P02,D10,1,0,0
921,-4.18,1644583246.25,P02,D10,1,0,0
922,-4.36,1644583246.265625,P02,D10,1,0,0
923,-4.51,1644583246.28125,P02,D10,1,0,0
924,-4.55,1644583246.296875,P02,D10,1,0,0
925,-4.42,1644583246.3125,P02,D10,1,0,0
926,-4.13,1644583246.328125,P02,D10,1,0,0
927,-3.76,1644583246.34375,P02,D10,1,0,0
928,-3.45,1644583246.359375,P02,D10,1,0,0
929,-3.3,1644583246.375,P02,D10,1,0,0
930,-3.32,1644583246.390625,P02,D10,1,0,0
931,-3.42,1644583246.40625,P02,D10,1,0,0
932,-3.42,1644583246.421875,P02,D10,1,0,0
933,-3.22,1644583246.4375,P02,D10,1,0,0
934,-2.77,1644583246.453125,P02,D10,1,0,0
935,-2.17,1644583246.46875,P02,D10,1,0,0
936,-1.54,1644583246.484375,P02,D10,1,0,0
937,-1.04,1644583246.5,P02,D10,1,0,0
938,-0.78,1644583246.515625,P02,D10,1,0,0
939,-0.76,1644583246.53125,P02,D10,1,0,0
940,-0.94,1644583246.546875,P02,D10,1,0,0
941,-1.22,1644583246.5625,P02,D10,1,0,0
942,-1.49,1644583246.578125,P02,D10,1,0,0
943,-1.65,1644583246.59375,P02,D10,1,0,0
944,-1.63,1644583246.609375,P02,D10,1,0,0
945,-1.43,1644583246.625,P02,D10,1,0,0
946,-1.09,1644583246.640625,P02,D10,1,0,0
947,-0.71,1644583246.65625,P02,D10,1,0,0
948,-0.38,1644583246.671875,P02,D10,1,0,0
949,-0.14,1644583246.6875,P02,D10,1,0,0
950,-0.01,1644583246.703125,P02,D10,1,0,0
951,0.05,1644583246.71875,P02,D10,1,0,0
952,0.09,1644583246.734375,P02,D10,1,0,0
953,0.14,1644583246.75,P02,D10,1,0,0
954,0.21,1644583246.765625,P02,D10,1,0,0
955,0.27,1644583246.78125,P02,D10,1,0,0
956,0.29,1644583246.796875,P02,D10,1,0,0
957,0.23,1644583246.8125,P02,D10,1,0,0
958,0.1,1644583246.828125,P02,D10,1,0,0
959,-0.06,1644583246.84375,P02,D10,1,0,0
960,-0.21,1644583246.859375,P02,D10,1,0,0
961,-0.29,1644583246.875,P02,D10,1,0,0
962,-0.29,1644583246.890625,P02,D10,1,0,0
963,-0.26,1644583246.90625,P02,D10,1,0,0
964,-0.25,1644583246.921875,P02,D10,1,0,0
965,-0.29,1644583246.9375,P02,D10,1,0,0
966,-0.41,1644583246.953125,P02,D10,1,0,0
967,-0.55,1644583246.96875,P02,D10,1,0,0
968,-0.67,1644583246.984375,P02,D10,1,0,0
969,-0.75,1644583247.0,P02,D10,1,0,0
970,-0.81,1644583247.015625,P02,D10,1,0,0
971,-0.89,1644583247.03125,P02,D10,1,0,0
972,-1.01,1644583247.046875,P02,D10,1,0,0
973,-1.12,1644583247.0625,P02,D10,1,0,0
974,-1.15,1644583247.078125,P02,D10,1,0,0
975,-1.05,1644583247.09375,P02,D10,1,0,0
976,-0.81,1644583247.109375,P02,D10,1,0,0
977,-0.52,1644583247.125,P02,D10,1,0,0
978,-0.29,1644583247.140625,P02,D10,1,0,0
979,-0.18,1644583247.15625,P02,D10,1,0,0
980,-0.19,1644583247.171875,P02,D10,1,0,0
981,-0.23,1644583247.1875,P02,D10,1,0,0
982,-0.22,1644583247.203125,P02,D10,1,0,0
983,-0.11,1644583247.21875,P02,D10,1,0,0
984,0.08,1644583247.234375,P02,D10,1,0,0
985,0.31,1644583247.25,P02,D10,1,0,0
986,0.49,1644583247.265625,P02,D10,1,0,0
987,0.6,1644583247.28125,P02,D10,1,0,0
988,0.62,1644583247.296875,P02,D10,1,0,0
989,0.59,1644583247.3125,P02,D10,1,0,0
990,0.56,1644583247.328125,P02,D10,1,0,0
991,0.52,1644583247.34375,P02,D10,1,0,0
992,0.47,1644583247.359375,P02,D10,1,0,0
993,0.37,1644583247.375,P02,D10,1,0,0
994,0.19,1644583247.390625,P02,D10,1,0,0
995,-0.07,1644583247.40625,P02,D10,1,0,0
996,-0.36,1644583247.421875,P02,D10,1,0,0
997,-0.59,1644583247.4375,P02,D10,1,0,0
998,-0.7,1644583247.453125,P02,D10,1,0,0
999,-0.64,1644583247.46875,P02,D10,1,0,0
1000,-0.45,1644583247.484375,P02,D10,1,0,0
1001,-0.23,1644583247.5,P02,D10,1,0,0
1002,-0.07,1644583247.515625,P02,D10,1,0,0
1003,-0.02,1644583247.53125,P02,D10,1,0,0
1004,-0.07,1644583247.546875,P02,D10,1,0,0
1005,-0.17,1644583247.5625,P02,D10,1,0,0
1006,-0.28,1644583247.578125,P02,D10,1,0,0
1007,-0.38,1644583247.59375,P02,D10,1,0,0
1008,-0.51,1644583247.609375,P02,D10,1,0,0
1009,-0.64,1644583247.625,P02,D10,1,0,0
1010,-0.76,1644583247.640625,P02,D10,1,0,0
1011,-0.76,1644583247.65625,P02,D10,1,0,0
1012,-0.59,1644583247.671875,P02,D10,1,0,0
1013,-0.27,1644583247.6875,P02,D10,1,0,0
1014,0.09,1644583247.703125,P02,D10,1,0,0
1015,0.31,1644583247.71875,P02,D10,1,0,0
1016,0.24,1644583247.734375,P02,D10,1,0,0
1017,-0.12,1644583247.75,P02,D10,1,0,0
1018,-0.63,1644583247.765625,P02,D10,1,0,0
1019,-1.05,1644583247.78125,P02,D10,1,0,0
1020,-1.16,1644583247.796875,P02,D10,1,0,0
1021,-0.87,1644583247.8125,P02,D10,1,0,0
1022,-0.27,1644583247.828125,P02,D10,1,0,0
1023,0.44,1644583247.84375,P02,D10,1,0,0
1024,1.02,1644583247.859375,P02,D10,1,0,0
1025,1.36,1644583247.875,P02,D10,1,0,0
1026,1.48,1644583247.890625,P02,D10,1,0,0
1027,1.5,1644583247.90625,P02,D10,1,0,0
1028,1.51,1644583247.921875,P02,D10,1,0,0
1029,1.57,1644583247.9375,P02,D10,1,0,0
1030,1.62,1644583247.953125,P02,D10,1,0,0
1031,1.57,1644583247.96875,P02,D10,1,0,0
1032,1.36,1644583247.984375,P02,D10,1,0,0
1033,1.06,1644583248.0,P02,D10,1,0,0
1034,0.76,1644583248.015625,P02,D10,1,0,0
1035,0.61,1644583248.03125,P02,D10,1,0,0
1036,0.66,1644583248.046875,P02,D10,1,0,0
1037,0.88,1644583248.0625,P02,D10,1,0,0
1038,1.16,1644583248.078125,P02,D10,1,0,0
1039,1.38,1644583248.09375,P02,D10,1,0,0
1040,1.49,1644583248.109375,P02,D10,1,0,0
1041,1.48,1644583248.125,P02,D10,1,0,0
1042,1.43,1644583248.140625,P02,D10,1,0,0
1043,1.42,1644583248.15625,P02,D10,1,0,0
1044,1.47,1644583248.171875,P02,D10,1,0,0
1045,1.55,1644583248.1875,P02,D10,1,0,0
1046,1.56,1644583248.203125,P02,D10,1,0,0
1047,1.44,1644583248.21875,P02,D10,1,0,0
1048,1.18,1644583248.234375,P02,D10,1,0,0
1049,0.86,1644583248.25,P02,D10,1,0,0
1050,0.6,1644583248.265625,P02,D10,1,0,0
1051,0.49,1644583248.28125,P02,D10,1,0,0
1052,0.54,1644583248.296875,P02,D10,1,0,0
1053,0.67,1644583248.3125,P02,D10,1,0,0
1054,0.79,1644583248.328125,P02,D10,1,0,0
1055,0.82,1644583248.34375,P02,D10,1,0,0
1056,0.76,1644583248.359375,P02,D10,1,0,0
1057,0.68,1644583248.375,P02,D10,1,0,0
1058,0.63,1644583248.390625,P02,D10,1,0,0
1059,0.61,1644583248.40625,P02,D10,1,0,0
1060,0.6,1644583248.421875,P02,D10,1,0,0
1061,0.56,1644583248.4375,P02,D10,1,0,0
1062,0.49,1644583248.453125,P02,D10,1,0,0
1063,0.42,1644583248.46875,P02,D10,1,0,0
1064,0.35,1644583248.484375,P02,D10,1,0,0
1065,0.27,1644583248.5,P02,D10,1,0,0
1066,0.1,1644583248.515625,P02,D10,1,0,0
1067,-0.2,1644583248.53125,P02,D10,1,0,0
1068,-0.62,1644583248.546875,P02,D10,1,0,0
1069,-1.08,1644583248.5625,P02,D10,1,0,0
1070,-1.43,1644583248.578125,P02,D10,1,0,0
1071,-1.6,1644583248.59375,P02,D10,1,0,0
1072,-1.6,1644583248.609375,P02,D10,1,0,0
1073,-1.56,1644583248.625,P02,D10,1,0,0
1074,-1.58,1644583248.640625,P02,D10,1,0,0
1075,-1.72,1644583248.65625,P02,D10,1,0,0
1076,-1.9,1644583248.671875,P02,D10,1,0,0
1077,-2.0,1644583248.6875,P02,D10,1,0,0
1078,-1.92,1644583248.703125,P02,D10,1,0,0
1079,-1.64,1644583248.71875,P02,D10,1,0,0
1080,-1.26,1644583248.734375,P02,D10,1,0,0
1081,-0.93,1644583248.75,P02,D10,1,0,0
1082,-0.78,1644583248.765625,P02,D10,1,0,0
1083,-0.82,1644583248.78125,P02,D10,1,0,0
1084,-0.99,1644583248.796875,P02,D10,1,0,0
1085,-1.15,1644583248.8125,P02,D10,1,0,0
1086,-1.16,1644583248.828125,P02,D10,1,0,0
1087,-0.98,1644583248.84375,P02,D10,1,0,0
1088,-0.65,1644583248.859375,P02,D10,1,0,0
1089,-0.27,1644583248.875,P02,D10,1,0,0
1090,0.0,1644583248.890625,P02,D10,1,0,0
1091,0.1,1644583248.90625,P02,D10,1,0,0
1092,0.04,1644583248.921875,P02,D10,1,0,0
1093,-0.1,1644583248.9375,P02,D10,1,0,0
1094,-0.18,1644583248.953125,P02,D10,1,0,0
1095,-0.15,1644583248.96875,P02,D10,1,0,0
1096,-0.02,1644583248.984375,P02,D10,1,0,0
1097,0.16,1644583249.0,P02,D10,1,0,0
1098,0.3,1644583249.015625,P02,D10,1,0,0
1099,0.35,1644583249.03125,P02,D10,1,0,0
1100,0.35,1644583249.046875,P02,D10,1,0,0
1101,0.34,1644583249.0625,P02,D10,1,0,0
1102,0.34,1644583249.078125,P02,D10,1,0,0
1103,0.34,1644583249.09375,P02,D10,1,0,0
1104,0.31,1644583249.109375,P02,D10,1,0,0
1105,0.21,1644583249.125,P02,D10,1,0,0
1106,0.06,1644583249.140625,P02,D10,1,0,0
1107,-0.09,1644583249.15625,P02,D10,1,0,0
1108,-0.22,1644583249.171875,P02,D10,1,0,0
1109,-0.33,1644583249.1875,P02,D10,1,0,0
1110,-0.46,1644583249.203125,P02,D10,1,0,0
1111,-0.61,1644583249.21875,P02,D10,1,0,0
1112,-0.75,1644583249.234375,P02,D10,1,0,0
1113,-0.85,1644583249.25,P02,D10,1,0,0
1114,-0.87,1644583249.265625,P02,D10,1,0,0
1115,-0.83,1644583249.28125,P02,D10,1,0,0
1116,-0.78,1644583249.296875,P02,D10,1,0,0
1117,-0.78,1644583249.3125,P02,D10,1,0,0
1118,-0.85,1644583249.328125,P02,D10,1,0,0
1119,-0.96,1644583249.34375,P02,D10,1,0,0
1120,-1.04,1644583249.359375,P02,D10,1,0,0
1121,-1.07,1644583249.375,P02,D10,1,0,0
1122,-1.06,1644583249.390625,P02,D10,1,0,0
1123,-1.08,1644583249.40625,P02,D10,1,0,0
1124,-1.2,1644583249.421875,P02,D10,1,0,0
1125,-1.42,1644583249.4375,P02,D10,1,0,0
1126,-1.68,1644583249.453125,P02,D10,1,0,0
1127,-1.87,1644583249.46875,P02,D10,1,0,0
1128,-1.93,1644583249.484375,P02,D10,1,0,0
1129,-1.85,1644583249.5,P02,D10,1,0,0
1130,-1.65,1644583249.515625,P02,D10,1,0,0
1131,-1.38,1644583249.53125,P02,D10,1,0,0
1132,-1.03,1644583249.546875,P02,D10,1,0,0
1133,-0.55,1644583249.5625,P02,D10,1,0,0
1134,0.09,1644583249.578125,P02,D10,1,0,0
1135,0.87,1644583249.59375,P02,D10,1,0,0
1136,1.68,1644583249.609375,P02,D10,1,0,0
1137,2.37,1644583249.625,P02,D10,1,0,0
1138,2.83,1644583249.640625,P02,D10,1,0,0
1139,3.05,1644583249.65625,P02,D10,1,0,0
1140,3.11,1644583249.671875,P02,D10,1,0,0
1141,3.15,1644583249.6875,P02,D10,1,0,0
1142,3.27,1644583249.703125,P02,D10,1,0,0
1143,3.49,1644583249.71875,P02,D10,1,0,0
1144,3.73,1644583249.734375,P02,D10,1,0,0
1145,3.87,1644583249.75,P02,D10,1,0,0
1146,3.83,1644583249.765625,P02,D10,1,0,0
1147,3.59,1644583249.78125,P02,D10,1,0,0
1148,3.16,1644583249.796875,P02,D10,1,0,0
1149,2.6,1644583249.8125,P02,D10,1,0,0
1150,1.97,1644583249.828125,P02,D10,1,0,0
1151,1.36,1644583249.84375,P02,D10,1,0,0
1152,0.85,1644583249.859375,P02,D10,1,0,0
1153,0.52,1644583249.875,P02,D10,1,0,0
1154,0.36,1644583249.890625,P02,D10,1,0,0
1155,0.3,1644583249.90625,P02,D10,1,0,0
1156,0.2,1644583249.921875,P02,D10,1,0,0
1157,-0.03,1644583249.9375,P02,D10,1,0,0
1158,-0.41,1644583249.953125,P02,D10,1,0,0
1159,-0.86,1644583249.96875,P02,D10,1,0,0
1160,-1.22,1644583249.984375,P02,D10,1,0,0
1161,-1.39,1644583250.0,P02,D10,1,0,0
1162,-1.35,1644583250.015625,P02,D10,1,0,0
1163,-1.19,1644583250.03125,P02,D10,1,0,0
1164,-1.03,1644583250.046875,P02,D10,1,0,0
1165,-0.93,1644583250.0625,P02,D10,1,0,0
1166,-0.89,1644583250.078125,P02,D10,1,0,0
1167,-0.9,1644583250.09375,P02,D10,1,0,0
1168,-0.9,1644583250.109375,P02,D10,1,0,0
1169,-0.9,1644583250.125,P02,D10,1,0,0
1170,-0.89,1644583250.140625,P02,D10,1,0,0
1171,-0.86,1644583250.15625,P02,D10,1,0,0
1172,-0.82,1644583250.171875,P02,D10,1,0,0
1173,-0.77,1644583250.1875,P02,D10,1,0,0
1174,-0.73,1644583250.203125,P02,D10,1,0,0
1175,-0.69,1644583250.21875,P02,D10,1,0,0
1176,-0.64,1644583250.234375,P02,D10,1,0,0
1177,-0.54,1644583250.25,P02,D10,1,0,0
1178,-0.36,1644583250.265625,P02,D10,1,0,0
1179,-0.12,1644583250.28125,P02,D10,1,0,0
1180,0.11,1644583250.296875,P02,D10,1,0,0
1181,0.21,1644583250.3125,P02,D10,1,0,0
1182,0.12,1644583250.328125,P02,D10,1,0,0
1183,-0.14,1644583250.34375,P02,D10,1,0,0
1184,-0.43,1644583250.359375,P02,D10,1,0,0
1185,-0.61,1644583250.375,P02,D10,1,0,0
1186,-0.59,1644583250.390625,P02,D10,1,0,0
1187,-0.38,1644583250.40625,P02,D10,1,0,0
1188,-0.1,1644583250.421875,P02,D10,1,0,0
1189,0.15,1644583250.4375,P02,D10,1,0,0
1190,0.28,1644583250.453125,P02,D10,1,0,0
1191,0.31,1644583250.46875,P02,D10,1,0,0
1192,0.29,1644583250.484375,P02,D10,1,0,0
1193,0.27,1644583250.5,P02,D10,1,0,0
1194,0.27,1644583250.515625,P02,D10,1,0,0
1195,0.25,1644583250.53125,P02,D10,1,0,0
1196,0.18,1644583250.546875,P02,D10,1,0,0
1197,0.02,1644583250.5625,P02,D10,1,0,0
1198,-0.22,1644583250.578125,P02,D10,1,0,0
1199,-0.48,1644583250.59375,P02,D10,1,0,0
1200,-0.68,1644583250.609375,P02,D10,1,0,0
1201,-0.74,1644583250.625,P02,D10,1,0,0
1202,-0.62,1644583250.640625,P02,D10,1,0,0
1203,-0.35,1644583250.65625,P02,D10,1,0,0
1204,-0.03,1644583250.671875,P02,D10,1,0,0
1205,0.2,1644583250.6875,P02,D10,1,0,0
1206,0.26,1644583250.703125,P02,D10,1,0,0
1207,0.15,1644583250.71875,P02,D10,1,0,0
1208,-0.03,1644583250.734375,P02,D10,1,0,0
1209,-0.13,1644583250.75,P02,D10,1,0,0
1210,-0.07,1644583250.765625,P02,D10,1,0,0
1211,0.14,1644583250.78125,P02,D10,1,0,0
1212,0.41,1644583250.796875,P02,D10,1,0,0
1213,0.56,1644583250.8125,P02,D10,1,0,0
1214,0.5,1644583250.828125,P02,D10,1,0,0
1215,0.21,1644583250.84375,P02,D10,1,0,0
1216,-0.2,1644583250.859375,P02,D10,1,0,0
1217,-0.6,1644583250.875,P02,D10,1,0,0
1218,-0.86,1644583250.890625,P02,D10,1,0,0
1219,-0.95,1644583250.90625,P02,D10,1,0,0
1220,-0.89,1644583250.921875,P02,D10,1,0,0
1221,-0.75,1644583250.9375,P02,D10,1,0,0
1222,-0.57,1644583250.953125,P02,D10,1,0,0
1223,-0.35,1644583250.96875,P02,D10,1,0,0
1224,-0.06,1644583250.984375,P02,D10,1,0,0
1225,0.28,1644583251.0,P02,D10,1,0,0
1226,0.62,1644583251.015625,P02,D10,1,0,0
1227,0.82,1644583251.03125,P02,D10,1,0,0
1228,0.78,1644583251.046875,P02,D10,1,0,0
1229,0.44,1644583251.0625,P02,D10,1,0,0
1230,-0.1,1644583251.078125,P02,D10,1,0,0
1231,-0.62,1644583251.09375,P02,D10,1,0,0
1232,-0.93,1644583251.109375,P02,D10,1,0,0
1233,-0.88,1644583251.125,P02,D10,1,0,0
1234,-0.53,1644583251.140625,P02,D10,1,0,0
1235,-0.06,1644583251.15625,P02,D10,1,0,0
1236,0.3,1644583251.171875,P02,D10,1,0,0
1237,0.39,1644583251.1875,P02,D10,1,0,0
1238,0.2,1644583251.203125,P02,D10,1,0,0
1239,-0.12,1644583251.21875,P02,D10,1,0,0
1240,-0.4,1644583251.234375,P02,D10,1,0,0
1241,-0.51,1644583251.25,P02,D10,1,0,0
1242,-0.43,1644583251.265625,P02,D10,1,0,0
1243,-0.26,1644583251.28125,P02,D10,1,0,0
1244,-0.14,1644583251.296875,P02,D10,1,0,0
1245,-0.16,1644583251.3125,P02,D10,1,0,0
1246,-0.32,1644583251.328125,P02,D10,1,0,0
1247,-0.55,1644583251.34375,P02,D10,1,0,0
1248,-0.75,1644583251.359375,P02,D10,1,0,0
1249,-0.86,1644583251.375,P02,D10,1,0,0
1250,-0.84,1644583251.390625,P02,D10,1,0,0
1251,-0.72,1644583251.40625,P02,D10,1,0,0
1252,-0.58,1644583251.421875,P02,D10,1,0,0
1253,-0.48,1644583251.4375,P02,D10,1,0,0
1254,-0.45,1644583251.453125,P02,D10,1,0,0
1255,-0.5,1644583251.46875,P02,D10,1,0,0
1256,-0.58,1644583251.484375,P02,D10,1,0,0
1257,-0.64,1644583251.5,P02,D10,1,0,0
1258,-0.64,1644583251.515625,P02,D10,1,0,0
1259,-0.59,1644583251.53125,P02,D10,1,0,0
1260,-0.53,1644583251.546875,P02,D10,1,0,0
1261,-0.47,1644583251.5625,P02,D10,1,0,0
1262,-0.45,1644583251.578125,P02,D10,1,0,0
1263,-0.42,1644583251.59375,P02,D10,1,0,0
1264,-0.36,1644583251.609375,P02,D10,1,0,0
1265,-0.26,1644583251.625,P02,D10,1,0,0
1266,-0.17,1644583251.640625,P02,D10,1,0,0
1267,-0.14,1644583251.65625,P02,D10,1,0,0
1268,-0.21,1644583251.671875,P02,D10,1,0,0
1269,-0.42,1644583251.6875,P02,D10,1,0,0
1270,-0.7,1644583251.703125,P02,D10,1,0,0
1271,-0.97,1644583251.71875,P02,D10,1,0,0
1272,-1.13,1644583251.734375,P02,D10,1,0,0
1273,-1.12,1644583251.75,P02,D10,1,0,0
1274,-0.93,1644583251.765625,P02,D10,1,0,0
1275,-0.63,1644583251.78125,P02,D10,1,0,0
1276,-0.34,1644583251.796875,P02,D10,1,0,0
1277,-0.19,1644583251.8125,P02,D10,1,0,0
1278,-0.27,1644583251.828125,P02,D10,1,0,0
1279,-0.57,1644583251.84375,P02,D10,1,0,0
1280,-0.99,1644583251.859375,P02,D10,1,0,0
1281,-1.39,1644583251.875,P02,D10,1,0,0
1282,-1.62,1644583251.890625,P02,D10,1,0,0
1283,-1.6,1644583251.90625,P02,D10,1,0,0
1284,-1.36,1644583251.921875,P02,D10,1,0,0
1285,-1.0,1644583251.9375,P02,D10,1,0,0
1286,-0.67,1644583251.953125,P02,D10,1,0,0
1287,-0.45,1644583251.96875,P02,D10,1,0,0
1288,-0.39,1644583251.984375,P02,D10,1,0,0
1289,-0.47,1644583252.0,P02,D10,1,0,0
1290,-0.66,1644583252.015625,P02,D10,1,0,0
1291,-0.89,1644583252.03125,P02,D10,1,0,0
1292,-1.08,1644583252.046875,P02,D10,1,0,0
1293,-1.16,1644583252.0625,P02,D10,1,0,0
1294,-1.07,1644583252.078125,P02,D10,1,0,0
1295,-0.81,1644583252.09375,P02,D10,1,0,0
1296,-0.43,1644583252.109375,P02,D10,1,0,0
1297,0.01,1644583252.125,P02,D10,1,0,0
1298,0.44,1644583252.140625,P02,D10,1,0,0
1299,0.85,1644583252.15625,P02,D10,1,0,0
1300,1.28,1644583252.171875,P02,D10,1,0,0
1301,1.78,1644583252.1875,P02,D10,1,0,0
1302,2.39,1644583252.203125,P02,D10,1,0,0
1303,3.08,1644583252.21875,P02,D10,1,0,0
1304,3.74,1644583252.234375,P02,D10,1,0,0
1305,4.26,1644583252.25,P02,D10,1,0,0
1306,4.53,1644583252.265625,P02,D10,1,0,0
1307,4.51,1644583252.28125,P02,D10,1,0,0
1308,4.19,1644583252.296875,P02,D10,1,0,0
1309,3.66,1644583252.3125,P02,D10,1,0,0
1310,2.98,1644583252.328125,P02,D10,1,0,0
1311,2.23,1644583252.34375,P02,D10,1,0,0
1312,1.46,1644583252.359375,P02,D10,1,0,0
1313,0.73,1644583252.375,P02,D10,1,0,0
1314,0.12,1644583252.390625,P02,D10,1,0,0
1315,-0.34,1644583252.40625,P02,D10,1,0,0
1316,-0.6,1644583252.421875,P02,D10,1,0,0
1317,-0.68,1644583252.4375,P02,D10,1,0,0
1318,-0.65,1644583252.453125,P02,D10,1,0,0
1319,-0.6,1644583252.46875,P02,D10,1,0,0
1320,-0.57,1644583252.484375,P02,D10,1,0,0
1321,-0.6,1644583252.5,P02,D10,1,0,0
1322,-0.64,1644583252.515625,P02,D10,1,0,0
1323,-0.65,1644583252.53125,P02,D10,1,0,0
1324,-0.6,1644583252.546875,P02,D10,1,0,0
1325,-0.46,1644583252.5625,P02,D10,1,0,0
1326,-0.23,1644583252.578125,P02,D10,1,0,0
1327,0.09,1644583252.59375,P02,D10,1,0,0
1328,0.5,1644583252.609375,P02,D10,1,0,0
1329,0.96,1644583252.625,P02,D10,1,0,0
1330,1.39,1644583252.640625,P02,D10,1,0,0
1331,1.7,1644583252.65625,P02,D10,1,0,0
1332,1.8,1644583252.671875,P02,D10,1,0,0
1333,1.67,1644583252.6875,P02,D10,1,0,0
1334,1.39,1644583252.703125,P02,D10,1,0,0
1335,1.05,1644583252.71875,P02,D10,1,0,0
1336,0.73,1644583252.734375,P02,D10,1,0,0
1337,0.5,1644583252.75,P02,D10,1,0,0
1338,0.33,1644583252.765625,P02,D10,1,0,0
1339,0.2,1644583252.78125,P02,D10,1,0,0
1340,0.06,1644583252.796875,P02,D10,1,0,0
1341,-0.1,1644583252.8125,P02,D10,1,0,0
1342,-0.29,1644583252.828125,P02,D10,1,0,0
1343,-0.5,1644583252.84375,P02,D10,1,0,0
1344,-0.68,1644583252.859375,P02,D10,1,0,0
1345,-0.81,1644583252.875,P02,D10,1,0,0
1346,-0.84,1644583252.890625,P02,D10,1,0,0
1347,-0.78,1644583252.90625,P02,D10,1,0,0
1348,-0.69,1644583252.921875,P02,D10,1,0,0
1349,-0.65,1644583252.9375,P02,D10,1,0,0
1350,-0.71,1644583252.953125,P02,D10,1,0,0
1351,-0.85,1644583252.96875,P02,D10,1,0,0
1352,-1.02,1644583252.984375,P02,D10,1,0,0
1353,-1.09,1644583253.0,P02,D10,1,0,0
1354,-0.99,1644583253.015625,P02,D10,1,0,0
1355,-0.73,1644583253.03125,P02,D10,1,0,0
1356,-0.37,1644583253.046875,P02,D10,1,0,0
1357,-0.03,1644583253.0625,P02,D10,1,0,0
1358,0.23,1644583253.078125,P02,D10,1,0,0
1359,0.39,1644583253.09375,P02,D10,1,0,0
1360,0.49,1644583253.109375,P02,D10,1,0,0
1361,0.56,1644583253.125,P02,D10,1,0,0
1362,0.61,1644583253.140625,P02,D10,1,0,0
1363,0.64,1644583253.15625,P02,D10,1,0,0
1364,0.64,1644583253.171875,P02,D10,1,0,0
1365,0.6,1644583253.1875,P02,D10,1,0,0
1366,0.54,1644583253.203125,P02,D10,1,0,0
1367,0.51,1644583253.21875,P02,D10,1,0,0
1368,0.5,1644583253.234375,P02,D10,1,0,0
1369,0.51,1644583253.25,P02,D10,1,0,0
1370,0.52,1644583253.265625,P02,D10,1,0,0
1371,0.49,1644583253.28125,P02,D10,1,0,0
1372,0.41,1644583253.296875,P02,D10,1,0,0
1373,0.3,1644583253.3125,P02,D10,1,0,0
1374,0.22,1644583253.328125,P02,D10,1,0,0
1375,0.23,1644583253.34375,P02,D10,1,0,0
1376,0.37,1644583253.359375,P02,D10,1,0,0
1377,0.64,1644583253.375,P02,D10,1,0,0
1378,0.99,1644583253.390625,P02,D10,1,0,0
1379,1.32,1644583253.40625,P02,D10,1,0,0
1380,1.56,1644583253.421875,P02,D10,1,0,0
1381,1.64,1644583253.4375,P02,D10,1,0,0
1382,1.56,1644583253.453125,P02,D10,1,0,0
1383,1.34,1644583253.46875,P02,D10,1,0,0
1384,1.04,1644583253.484375,P02,D10,1,0,0
1385,0.69,1644583253.5,P02,D10,1,0,0
1386,0.35,1644583253.515625,P02,D10,1,0,0
1387,0.04,1644583253.53125,P02,D10,1,0,0
1388,-0.21,1644583253.546875,P02,D10,1,0,0
1389,-0.37,1644583253.5625,P02,D10,1,0,0
1390,-0.43,1644583253.578125,P02,D10,1,0,0
1391,-0.42,1644583253.59375,P02,D10,1,0,0
1392,-0.35,1644583253.609375,P02,D10,1,0,0
1393,-0.28,1644583253.625,P02,D10,1,0,0
1394,-0.24,1644583253.640625,P02,D10,1,0,0
1395,-0.28,1644583253.65625,P02,D10,1,0,0
1396,-0.42,1644583253.671875,P02,D10,1,0,0
1397,-0.66,1644583253.6875,P02,D10,1,0,0
1398,-0.97,1644583253.703125,P02,D10,1,0,0
1399,-1.29,1644583253.71875,P02,D10,1,0,0
1400,-1.49,1644583253.734375,P02,D10,1,0,0
1401,-1.47,1644583253.75,P02,D10,1,0,0
1402,-1.22,1644583253.765625,P02,D10,1,0,0
1403,-0.8,1644583253.78125,P02,D10,1,0,0
1404,-0.39,1644583253.796875,P02,D10,1,0,0
1405,-0.16,1644583253.8125,P02,D10,1,0,0
1406,-0.18,1644583253.828125,P02,D10,1,0,0
1407,-0.4,1644583253.84375,P02,D10,1,0,0
1408,-0.66,1644583253.859375,P02,D10,1,0,0
1409,-0.76,1644583253.875,P02,D10,1,0,0
1410,-0.59,1644583253.890625,P02,D10,1,0,0
1411,-0.17,1644583253.90625,P02,D10,1,0,0
1412,0.34,1644583253.921875,P02,D10,1,0,0
1413,0.75,1644583253.9375,P02,D10,1,0,0
1414,0.89,1644583253.953125,P02,D10,1,0,0
1415,0.74,1644583253.96875,P02,D10,1,0,0
1416,0.38,1644583253.984375,P02,D10,1,0,0
1417,-0.03,1644583254.0,P02,D10,1,0,0
1418,-0.33,1644583254.015625,P02,D10,1,0,0
1419,-0.45,1644583254.03125,P02,D10,1,0,0
1420,-0.41,1644583254.046875,P02,D10,1,0,0
1421,-0.25,1644583254.0625,P02,D10,1,0,0
1422,-0.04,1644583254.078125,P02,D10,1,0,0
1423,0.2,1644583254.09375,P02,D10,1,0,0
1424,0.43,1644583254.109375,P02,D10,1,0,0
1425,0.65,1644583254.125,P02,D10,1,0,0
1426,0.78,1644583254.140625,P02,D10,1,0,0
1427,0.78,1644583254.15625,P02,D10,1,0,0
1428,0.62,1644583254.171875,P02,D10,1,0,0
1429,0.32,1644583254.1875,P02,D10,1,0,0
1430,-0.03,1644583254.203125,P02,D10,1,0,0
1431,-0.33,1644583254.21875,P02,D10,1,0,0
1432,-0.53,1644583254.234375,P02,D10,1,0,0
1433,-0.61,1644583254.25,P02,D10,1,0,0
1434,-0.6,1644583254.265625,P02,D10,1,0,0
1435,-0.54,1644583254.28125,P02,D10,1,0,0
1436,-0.46,1644583254.296875,P02,D10,1,0,0
1437,-0.35,1644583254.3125,P02,D10,1,0,0
1438,-0.25,1644583254.328125,P02,D10,1,0,0
1439,-0.19,1644583254.34375,P02,D10,1,0,0
1440,-0.21,1644583254.359375,P02,D10,1,0,0
1441,-0.3,1644583254.375,P02,D10,1,0,0
1442,-0.43,1644583254.390625,P02,D10,1,0,0
1443,-0.52,1644583254.40625,P02,D10,1,0,0
1444,-0.49,1644583254.421875,P02,D10,1,0,0
1445,-0.3,1644583254.4375,P02,D10,1,0,0
1446,-0.01,1644583254.453125,P02,D10,1,0,0
1447,0.28,1644583254.46875,P02,D10,1,0,0
1448,0.45,1644583254.484375,P02,D10,1,0,0
1449,0.45,1644583254.5,P02,D10,1,0,0
1450,0.32,1644583254.515625,P02,D10,1,0,0
1451,0.13,1644583254.53125,P02,D10,1,0,0
1452,-0.03,1644583254.546875,P02,D10,1,0,0
1453,-0.12,1644583254.5625,P02,D10,1,0,0
1454,-0.15,1644583254.578125,P02,D10,1,0,0
1455,-0.18,1644583254.59375,P02,D10,1,0,0
1456,-0.24,1644583254.609375,P02,D10,1,0,0
1457,-0.28,1644583254.625,P02,D10,1,0,0
1458,-0.26,1644583254.640625,P02,D10,1,0,0
1459,-0.12,1644583254.65625,P02,D10,1,0,0
1460,0.1,1644583254.671875,P02,D10,1,0,0
1461,0.32,1644583254.6875,P02,D10,1,0,0
1462,0.44,1644583254.703125,P02,D10,1,0,0
1463,0.4,1644583254.71875,P02,D10,1,0,0
1464,0.27,1644583254.734375,P02,D10,1,0,0
1465,0.17,1644583254.75,P02,D10,1,0,0
1466,0.2,1644583254.765625,P02,D10,1,0,0
1467,0.4,1644583254.78125,P02,D10,1,0,0
1468,0.68,1644583254.796875,P02,D10,1,0,0
1469,0.89,1644583254.8125,P02,D10,1,0,0
1470,0.91,1644583254.828125,P02,D10,1,0,0
1471,0.7,1644583254.84375,P02,D10,1,0,0
1472,0.33,1644583254.859375,P02,D10,1,0,0
1473,-0.1,1644583254.875,P02,D10,1,0,0
1474,-0.48,1644583254.890625,P02,D10,1,0,0
1475,-0.74,1644583254.90625,P02,D10,1,0,0
1476,-0.86,1644583254.921875,P02,D10,1,0,0
1477,-0.83,1644583254.9375,P02,D10,1,0,0
1478,-0.66,1644583254.953125,P02,D10,1,0,0
1479,-0.37,1644583254.96875,P02,D10,1,0,0
1480,-0.02,1644583254.984375,P02,D10,1,0,0
1481,0.32,1644583255.0,P02,D10,1,0,0
1482,0.59,1644583255.015625,P02,D10,1,0,0
1483,0.71,1644583255.03125,P02,D10,1,0,0
1484,0.65,1644583255.046875,P02,D10,1,0,0
1485,0.43,1644583255.0625,P02,D10,1,0,0
1486,0.11,1644583255.078125,P02,D10,1,0,0
1487,-0.22,1644583255.09375,P02,D10,1,0,0
1488,-0.47,1644583255.109375,P02,D10,1,0,0
1489,-0.57,1644583255.125,P02,D10,1,0,0
1490,-0.52,1644583255.140625,P02,D10,1,0,0
1491,-0.36,1644583255.15625,P02,D10,1,0,0
1492,-0.17,1644583255.171875,P02,D10,1,0,0
1493,-0.02,1644583255.1875,P02,D10,1,0,0
1494,0.04,1644583255.203125,P02,D10,1,0,0
1495,0.05,1644583255.21875,P02,D10,1,0,0
1496,0.02,1644583255.234375,P02,D10,1,0,0
1497,-0.02,1644583255.25,P02,D10,1,0,0
1498,-0.07,1644583255.265625,P02,D10,1,0,0
1499,-0.17,1644583255.28125,P02,D10,1,0,0
1500,-0.33,1644583255.296875,P02,D10,1,0,0
1501,-0.53,1644583255.3125,P02,D10,1,0,0
1502,-0.68,1644583255.328125,P02,D10,1,0,0
1503,-0.73,1644583255.34375,P02,D10,1,0,0
1504,-0.67,1644583255.359375,P02,D10,1,0,0
1505,-0.53,1644583255.375,P02,D10,1,0,0
1506,-0.41,1644583255.390625,P02,D10,1,0,0
1507,-0.36,1644583255.40625,P02,D10,1,0,0
1508,-0.36,1644583255.421875,P02,D10,1,0,0
1509,-0.36,1644583255.4375,P02,D10,1,0,0
1510,-0.27,1644583255.453125,P02,D10,1,0,0
1511,-0.05,1644583255.46875,P02,D10,1,0,0
1512,0.26,1644583255.484375,P02,D10,1,0,0
1513,0.56,1644583255.5,P02,D10,1,0,0
1514,0.76,1644583255.515625,P02,D10,1,0,0
1515,0.78,1644583255.53125,P02,D10,1,0,0
1516,0.63,1644583255.546875,P02,D10,1,0,0
1517,0.35,1644583255.5625,P02,D10,1,0,0
1518,0.04,1644583255.578125,P02,D10,1,0,0
1519,-0.24,1644583255.59375,P02,D10,1,0,0
1520,-0.4,1644583255.609375,P02,D10,1,0,0
1521,-0.4,1644583255.625,P02,D10,1,0,0
1522,-0.22,1644583255.640625,P02,D10,1,0,0
1523,0.1,1644583255.65625,P02,D10,1,0,0
1524,0.48,1644583255.671875,P02,D10,1,0,0
1525,0.78,1644583255.6875,P02,D10,1,0,0
1526,0.91,1644583255.703125,P02,D10,1,0,0
1527,0.8,1644583255.71875,P02,D10,1,0,0
1528,0.48,1644583255.734375,P02,D10,1,0,0
1529,0.06,1644583255.75,P02,D10,1,0,0
1530,-0.3,1644583255.765625,P02,D10,1,0,0
1531,-0.47,1644583255.78125,P02,D10,1,0,0
1532,-0.38,1644583255.796875,P02,D10,1,0,0
1533,-0.08,1644583255.8125,P02,D10,1,0,0
1534,0.34,1644583255.828125,P02,D10,1,0,0
1535,0.74,1644583255.84375,P02,D10,1,0,0
1536,0.98,1644583255.859375,P02,D10,1,0,0
1537,0.98,1644583255.875,P02,D10,1,0,0
1538,0.74,1644583255.890625,P02,D10,1,0,0
1539,0.32,1644583255.90625,P02,D10,1,0,0
1540,-0.19,1644583255.921875,P02,D10,1,0,0
1541,-0.67,1644583255.9375,P02,D10,1,0,0
1542,-1.03,1644583255.953125,P02,D10,1,0,0
1543,-1.21,1644583255.96875,P02,D10,1,0,0
1544,-1.22,1644583255.984375,P02,D10,1,0,0
1545,-1.07,1644583256.0,P02,D10,1,0,0
1546,-0.8,1644583256.015625,P02,D10,1,0,0
1547,-0.47,1644583256.03125,P02,D10,1,0,0
1548,-0.15,1644583256.046875,P02,D10,1,0,0
1549,0.07,1644583256.0625,P02,D10,1,0,0
1550,0.12,1644583256.078125,P02,D10,1,0,0
1551,-0.02,1644583256.09375,P02,D10,1,0,0
1552,-0.3,1644583256.109375,P02,D10,1,0,0
1553,-0.62,1644583256.125,P02,D10,1,0,0
1554,-0.86,1644583256.140625,P02,D10,1,0,0
1555,-0.94,1644583256.15625,P02,D10,1,0,0
1556,-0.86,1644583256.171875,P02,D10,1,0,0
1557,-0.7,1644583256.1875,P02,D10,1,0,0
1558,-0.54,1644583256.203125,P02,D10,1,0,0
1559,-0.45,1644583256.21875,P02,D10,1,0,0
1560,-0.46,1644583256.234375,P02,D10,1,0,0
1561,-0.51,1644583256.25,P02,D10,1,0,0
1562,-0.56,1644583256.265625,P02,D10,1,0,0
1563,-0.55,1644583256.28125,P02,D10,1,0,0
1564,-0.5,1644583256.296875,P02,D10,1,0,0
1565,-0.42,1644583256.3125,P02,D10,1,0,0
1566,-0.35,1644583256.328125,P02,D10,1,0,0
1567,-0.31,1644583256.34375,P02,D10,1,0,0
1568,-0.3,1644583256.359375,P02,D10,1,0,0
1569,-0.28,1644583256.375,P02,D10,1,0,0
1570,-0.19,1644583256.390625,P02,D10,1,0,0
1571,0.01,1644583256.40625,P02,D10,1,0,0
1572,0.34,1644583256.421875,P02,D10,1,0,0
1573,0.76,1644583256.4375,P02,D10,1,0,0
1574,1.2,1644583256.453125,P02,D10,1,0,0
1575,1.53,1644583256.46875,P02,D10,1,0,0
1576,1.63,1644583256.484375,P02,D10,1,0,0
1577,1.47,1644583256.5,P02,D10,1,0,0
1578,1.06,1644583256.515625,P02,D10,1,0,0
1579,0.53,1644583256.53125,P02,D10,1,0,0
1580,0.0,1644583256.546875,P02,D10,1,0,0
1581,-0.39,1644583256.5625,P02,D10,1,0,0
1582,-0.59,1644583256.578125,P02,D10,1,0,0
1583,-0.61,1644583256.59375,P02,D10,1,0,0
1584,-0.49,1644583256.609375,P02,D10,1,0,0
1585,-0.28,1644583256.625,P02,D10,1,0,0
1586,-0.06,1644583256.640625,P02,D10,1,0,0
1587,0.14,1644583256.65625,P02,D10,1,0,0
1588,0.26,1644583256.671875,P02,D10,1,0,0
1589,0.26,1644583256.6875,P02,D10,1,0,0
1590,0.13,1644583256.703125,P02,D10,1,0,0
1591,-0.12,1644583256.71875,P02,D10,1,0,0
1592,-0.44,1644583256.734375,P02,D10,1,0,0
1593,-0.73,1644583256.75,P02,D10,1,0,0
1594,-0.91,1644583256.765625,P02,D10,1,0,0
1595,-0.93,1644583256.78125,P02,D10,1,0,0
1596,-0.79,1644583256.796875,P02,D10,1,0,0
1597,-0.55,1644583256.8125,P02,D10,1,0,0
1598,-0.25,1644583256.828125,P02,D10,1,0,0
1599,0.06,1644583256.84375,P02,D10,1,0,0
1600,0.35,1644583256.859375,P02,D10,1,0,0
1601,0.61,1644583256.875,P02,D10,1,0,0
1602,0.84,1644583256.890625,P02,D10,1,0,0
1603,0.98,1644583256.90625,P02,D10,1,0,0
1604,0.99,1644583256.921875,P02,D10,1,0,0
1605,0.86,1644583256.9375,P02,D10,1,0,0
1606,0.64,1644583256.953125,P02,D10,1,0,0
1607,0.4,1644583256.96875,P02,D10,1,0,0
1608,0.22,1644583256.984375,P02,D10,1,0,0
1609,0.12,1644583257.0,P02,D10,1,0,0
1610,0.07,1644583257.015625,P02,D10,1,0,0
1611,-0.01,1644583257.03125,P02,D10,1,0,0
1612,-0.17,1644583257.046875,P02,D10,1,0,0
1613,-0.37,1644583257.0625,P02,D10,1,0,0
1614,-0.51,1644583257.078125,P02,D10,1,0,0
1615,-0.49,1644583257.09375,P02,D10,1,0,0
1616,-0.27,1644583257.109375,P02,D10,1,0,0
1617,0.07,1644583257.125,P02,D10,1,0,0
1618,0.4,1644583257.140625,P02,D10,1,0,0
1619,0.54,1644583257.15625,P02,D10,1,0,0
1620,0.42,1644583257.171875,P02,D10,1,0,0
1621,0.07,1644583257.1875,P02,D10,1,0,0
1622,-0.37,1644583257.203125,P02,D10,1,0,0
1623,-0.75,1644583257.21875,P02,D10,1,0,0
1624,-0.99,1644583257.234375,P02,D10,1,0,0
1625,-1.06,1644583257.25,P02,D10,1,0,0
1626,-1.03,1644583257.265625,P02,D10,1,0,0
1627,-1.01,1644583257.28125,P02,D10,1,0,0
1628,-1.06,1644583257.296875,P02,D10,1,0,0
1629,-1.18,1644583257.3125,P02,D10,1,0,0
1630,-1.28,1644583257.328125,P02,D10,1,0,0
1631,-1.24,1644583257.34375,P02,D10,1,0,0
1632,-0.98,1644583257.359375,P02,D10,1,0,0
1633,-0.48,1644583257.375,P02,D10,1,0,0
1634,0.14,1644583257.390625,P02,D10,1,0,0
1635,0.74,1644583257.40625,P02,D10,1,0,0
1636,1.17,1644583257.421875,P02,D10,1,0,0
1637,1.39,1644583257.4375,P02,D10,1,0,0
1638,1.5,1644583257.453125,P02,D10,1,0,0
1639,1.66,1644583257.46875,P02,D10,1,0,0
1640,1.99,1644583257.484375,P02,D10,1,0,0
1641,2.51,1644583257.5,P02,D10,1,0,0
1642,3.09,1644583257.515625,P02,D10,1,0,0
1643,3.5,1644583257.53125,P02,D10,1,0,0
1644,3.57,1644583257.546875,P02,D10,1,0,0
1645,3.29,1644583257.5625,P02,D10,1,0,0
1646,2.8,1644583257.578125,P02,D10,1,0,0
1647,2.32,1644583257.59375,P02,D10,1,0,0
1648,2.03,1644583257.609375,P02,D10,1,0,0
1649,1.96,1644583257.625,P02,D10,1,0,0
1650,1.98,1644583257.640625,P02,D10,1,0,0
1651,1.92,1644583257.65625,P02,D10,1,0,0
1652,1.67,1644583257.671875,P02,D10,1,0,0
1653,1.26,1644583257.6875,P02,D10,1,0,0
1654,0.81,1644583257.703125,P02,D10,1,0,0
1655,0.49,1644583257.71875,P02,D10,1,0,0
1656,0.34,1644583257.734375,P02,D10,1,0,0
1657,0.32,1644583257.75,P02,D10,1,0,0
1658,0.28,1644583257.765625,P02,D10,1,0,0
1659,0.13,1644583257.78125,P02,D10,1,0,0
1660,-0.17,1644583257.796875,P02,D10,1,0,0
1661,-0.53,1644583257.8125,P02,D10,1,0,0
1662,-0.86,1644583257.828125,P02,D10,1,0,0
1663,-1.08,1644583257.84375,P02,D10,1,0,0
1664,-1.22,1644583257.859375,P02,D10,1,0,0
1665,-1.34,1644583257.875,P02,D10,1,0,0
1666,-1.48,1644583257.890625,P02,D10,1,0,0
1667,-1.64,1644583257.90625,P02,D10,1,0,0
1668,-1.76,1644583257.921875,P02,D10,1,0,0
1669,-1.78,1644583257.9375,P02,D10,1,0,0
1670,-1.64,1644583257.953125,P02,D10,1,0,0
1671,-1.37,1644583257.96875,P02,D10,1,0,0
1672,-1.03,1644583257.984375,P02,D10,1,0,0
1673,-0.68,1644583258.0,P02,D10,1,0,0
1674,-0.42,1644583258.015625,P02,D10,1,0,0
1675,-0.3,1644583258.03125,P02,D10,1,0,0
1676,-0.32,1644583258.046875,P02,D10,1,0,0
1677,-0.43,1644583258.0625,P02,D10,1,0,0
1678,-0.54,1644583258.078125,P02,D10,1,0,0
1679,-0.59,1644583258.09375,P02,D10,1,0,0
1680,-0.51,1644583258.109375,P02,D10,1,0,0
1681,-0.35,1644583258.125,P02,D10,1,0,0
1682,-0.18,1644583258.140625,P02,D10,1,0,0
1683,-0.1,1644583258.15625,P02,D10,1,0,0
1684,-0.15,1644583258.171875,P02,D10,1,0,0
1685,-0.29,1644583258.1875,P02,D10,1,0,0
1686,-0.4,1644583258.203125,P02,D10,1,0,0
1687,-0.37,1644583258.21875,P02,D10,1,0,0
1688,-0.15,1644583258.234375,P02,D10,1,0,0
1689,0.21,1644583258.25,P02,D10,1,0,0
1690,0.58,1644583258.265625,P02,D10,1,0,0
1691,0.83,1644583258.28125,P02,D10,1,0,0
1692,0.88,1644583258.296875,P02,D10,1,0,0
1693,0.74,1644583258.3125,P02,D10,1,0,0
1694,0.48,1644583258.328125,P02,D10,1,0,0
1695,0.18,1644583258.34375,P02,D10,1,0,0
1696,-0.09,1644583258.359375,P02,D10,1,0,0
1697,-0.28,1644583258.375,P02,D10,1,0,0
1698,-0.38,1644583258.390625,P02,D10,1,0,0
1699,-0.34,1644583258.40625,P02,D10,1,0,0
1700,-0.14,1644583258.421875,P02,D10,1,0,0
1701,0.17,1644583258.4375,P02,D10,1,0,0
1702,0.49,1644583258.453125,P02,D10,1,0,0
1703,0.67,1644583258.46875,P02,D10,1,0,0
1704,0.6,1644583258.484375,P02,D10,1,0,0
1705,0.29,1644583258.5,P02,D10,1,0,0
1706,-0.15,1644583258.515625,P02,D10,1,0,0
1707,-0.53,1644583258.53125,P02,D10,1,0,0
1708,-0.72,1644583258.546875,P02,D10,1,0,0
1709,-0.67,1644583258.5625,P02,D10,1,0,0
1710,-0.47,1644583258.578125,P02,D10,1,0,0
1711,-0.28,1644583258.59375,P02,D10,1,0,0
1712,-0.17,1644583258.609375,P02,D10,1,0,0
1713,-0.19,1644583258.625,P02,D10,1,0,0
1714,-0.28,1644583258.640625,P02,D10,1,0,0
1715,-0.37,1644583258.65625,P02,D10,1,0,0
1716,-0.47,1644583258.671875,P02,D10,1,0,0
1717,-0.61,1644583258.6875,P02,D10,1,0,0
1718,-0.81,1644583258.703125,P02,D10,1,0,0
1719,-1.07,1644583258.71875,P02,D10,1,0,0
1720,-1.32,1644583258.734375,P02,D10,1,0,0
1721,-1.47,1644583258.75,P02,D10,1,0,0
1722,-1.46,1644583258.765625,P02,D10,1,0,0
1723,-1.31,1644583258.78125,P02,D10,1,0,0
1724,-1.1,1644583258.796875,P02,D10,1,0,0
1725,-0.99,1644583258.8125,P02,D10,1,0,0
1726,-1.1,1644583258.828125,P02,D10,1,0,0
1727,-1.47,1644583258.84375,P02,D10,1,0,0
1728,-2.04,1644583258.859375,P02,D10,1,0,0
1729,-2.65,1644583258.875,P02,D10,1,0,0
1730,-3.04,1644583258.890625,P02,D10,1,0,0
1731,-3.01,1644583258.90625,P02,D10,1,0,0
1732,-2.42,1644583258.921875,P02,D10,1,0,0
1733,-1.35,1644583258.9375,P02,D10,1,0,0
1734,-0.09,1644583258.953125,P02,D10,1,0,0
1735,0.91,1644583258.96875,P02,D10,1,0,0
1736,1.16,1644583258.984375,P02,D10,1,0,0
1737,0.35,1644583259.0,P02,D10,1,0,0
1738,-1.56,1644583259.015625,P02,D10,1,0,0
1739,-4.27,1644583259.03125,P02,D10,1,0,0
1740,-7.18,1644583259.046875,P02,D10,1,0,0
1741,-9.56,1644583259.0625,P02,D10,1,0,0
1742,-10.73,1644583259.078125,P02,D10,1,0,0
1743,-10.29,1644583259.09375,P02,D10,1,0,0
1744,-8.24,1644583259.109375,P02,D10,1,0,0
1745,-4.96,1644583259.125,P02,D10,1,0,0
1746,-1.13,1644583259.140625,P02,D10,1,0,0
1747,2.52,1644583259.15625,P02,D10,1,0,0
1748,5.36,1644583259.171875,P02,D10,1,0,0
1749,7.04,1644583259.1875,P02,D10,1,0,0
1750,7.56,1644583259.203125,P02,D10,1,0,0
1751,7.19,1644583259.21875,P02,D10,1,0,0
1752,6.36,1644583259.234375,P02,D10,1,0,0
1753,5.54,1644583259.25,P02,D10,1,0,0
1754,5.05,1644583259.265625,P02,D10,1,0,0
1755,5.03,1644583259.28125,P02,D10,1,0,0
1756,5.38,1644583259.296875,P02,D10,1,0,0
1757,5.83,1644583259.3125,P02,D10,1,0,0
1758,6.04,1644583259.328125,P02,D10,1,0,0
1759,5.72,1644583259.34375,P02,D10,1,0,0
1760,4.73,1644583259.359375,P02,D10,1,0,0
1761,3.15,1644583259.375,P02,D10,1,0,0
1762,1.23,1644583259.390625,P02,D10,1,0,0
1763,-0.7,1644583259.40625,P02,D10,1,0,0
1764,-2.3,1644583259.421875,P02,D10,1,0,0
1765,-3.34,1644583259.4375,P02,D10,1,0,0
1766,-3.7,1644583259.453125,P02,D10,1,0,0
1767,-3.42,1644583259.46875,P02,D10,1,0,0
1768,-2.63,1644583259.484375,P02,D10,1,0,0
1769,-1.57,1644583259.5,P02,D10,1,0,0
1770,-0.53,1644583259.515625,P02,D10,1,0,0
1771,0.29,1644583259.53125,P02,D10,1,0,0
1772,0.74,1644583259.546875,P02,D10,1,0,0
1773,0.83,1644583259.5625,P02,D10,1,0,0
1774,0.68,1644583259.578125,P02,D10,1,0,0
1775,0.44,1644583259.59375,P02,D10,1,0,0
1776,0.26,1644583259.609375,P02,D10,1,0,0
1777,0.23,1644583259.625,P02,D10,1,0,0
1778,0.35,1644583259.640625,P02,D10,1,0,0
1779,0.54,1644583259.65625,P02,D10,1,0,0
1780,0.68,1644583259.671875,P02,D10,1,0,0
1781,0.7,1644583259.6875,P02,D10,1,0,0
1782,0.56,1644583259.703125,P02,D10,1,0,0
1783,0.29,1644583259.71875,P02,D10,1,0,0
1784,0.02,1644583259.734375,P02,D10,1,0,0
1785,-0.15,1644583259.75,P02,D10,1,0,0
1786,-0.16,1644583259.765625,P02,D10,1,0,0
1787,0.02,1644583259.78125,P02,D10,1,0,0
1788,0.3,1644583259.796875,P02,D10,1,0,0
1789,0.59,1644583259.8125,P02,D10,1,0,0
1790,0.79,1644583259.828125,P02,D10,1,0,0
1791,0.87,1644583259.84375,P02,D10,1,0,0
1792,0.83,1644583259.859375,P02,D10,1,0,0
1793,0.72,1644583259.875,P02,D10,1,0,0
1794,0.56,1644583259.890625,P02,D10,1,0,0
1795,0.41,1644583259.90625,P02,D10,1,0,0
1796,0.33,1644583259.921875,P02,D10,1,0,0
1797,0.35,1644583259.9375,P02,D10,1,0,0
1798,0.48,1644583259.953125,P02,D10,1,0,0
1799,0.66,1644583259.96875,P02,D10,1,0,0
1800,0.75,1644583259.984375,P02,D10,1,0,0
1801,0.64,1644583260.0,P02,D10,1,0,0
1802,0.27,1644583260.015625,P02,D10,1,0,0
1803,-0.31,1644583260.03125,P02,D10,1,0,0
1804,-0.97,1644583260.046875,P02,D10,1,0,0
1805,-1.5,1644583260.0625,P02,D10,1,0,0
1806,-1.77,1644583260.078125,P02,D10,1,0,0
1807,-1.72,1644583260.09375,P02,D10,1,0,0
1808,-1.41,1644583260.109375,P02,D10,1,0,0
1809,-0.97,1644583260.125,P02,D10,1,0,0
1810,-0.54,1644583260.140625,P02,D10,1,0,0
1811,-0.19,1644583260.15625,P02,D10,1,0,0
1812,0.03,1644583260.171875,P02,D10,1,0,0
1813,0.1,1644583260.1875,P02,D10,1,0,0
1814,0.04,1644583260.203125,P02,D10,1,0,0
1815,-0.14,1644583260.21875,P02,D10,1,0,0
1816,-0.39,1644583260.234375,P02,D10,1,0,0
1817,-0.64,1644583260.25,P02,D10,1,0,0
1818,-0.84,1644583260.265625,P02,D10,1,0,0
1819,-0.9,1644583260.28125,P02,D10,1,0,0
1820,-0.78,1644583260.296875,P02,D10,1,0,0
1821,-0.5,1644583260.3125,P02,D10,1,0,0
1822,-0.13,1644583260.328125,P02,D10,1,0,0
1823,0.21,1644583260.34375,P02,D10,1,0,0
1824,0.42,1644583260.359375,P02,D10,1,0,0
1825,0.41,1644583260.375,P02,D10,1,0,0
1826,0.21,1644583260.390625,P02,D10,1,0,0
1827,-0.13,1644583260.40625,P02,D10,1,0,0
1828,-0.47,1644583260.421875,P02,D10,1,0,0
1829,-0.73,1644583260.4375,P02,D10,1,0,0
1830,-0.9,1644583260.453125,P02,D10,1,0,0
1831,-0.98,1644583260.46875,P02,D10,1,0,0
1832,-1.02,1644583260.484375,P02,D10,1,0,0
1833,-1.02,1644583260.5,P02,D10,1,0,0
1834,-0.98,1644583260.515625,P02,D10,1,0,0
1835,-0.89,1644583260.53125,P02,D10,1,0,0
1836,-0.76,1644583260.546875,P02,D10,1,0,0
1837,-0.63,1644583260.5625,P02,D10,1,0,0
1838,-0.54,1644583260.578125,P02,D10,1,0,0
1839,-0.47,1644583260.59375,P02,D10,1,0,0
1840,-0.37,1644583260.609375,P02,D10,1,0,0
1841,-0.13,1644583260.625,P02,D10,1,0,0
1842,0.25,1644583260.640625,P02,D10,1,0,0
1843,0.73,1644583260.65625,P02,D10,1,0,0
1844,1.17,1644583260.671875,P02,D10,1,0,0
1845,1.41,1644583260.6875,P02,D10,1,0,0
1846,1.39,1644583260.703125,P02,D10,1,0,0
1847,1.16,1644583260.71875,P02,D10,1,0,0
1848,0.85,1644583260.734375,P02,D10,1,0,0
1849,0.58,1644583260.75,P02,D10,1,0,0
1850,0.4,1644583260.765625,P02,D10,1,0,0
1851,0.3,1644583260.78125,P02,D10,1,0,0
1852,0.22,1644583260.796875,P02,D10,1,0,0
1853,0.12,1644583260.8125,P02,D10,1,0,0
1854,0.03,1644583260.828125,P02,D10,1,0,0
1855,0.03,1644583260.84375,P02,D10,1,0,0
1856,0.15,1644583260.859375,P02,D10,1,0,0
1857,0.35,1644583260.875,P02,D10,1,0,0
1858,0.55,1644583260.890625,P02,D10,1,0,0
1859,0.64,1644583260.90625,P02,D10,1,0,0
1860,0.59,1644583260.921875,P02,D10,1,0,0
1861,0.45,1644583260.9375,P02,D10,1,0,0
1862,0.36,1644583260.953125,P02,D10,1,0,0
1863,0.38,1644583260.96875,P02,D10,1,0,0
1864,0.54,1644583260.984375,P02,D10,1,0,0
1865,0.77,1644583261.0,P02,D10,1,0,0
1866,0.97,1644583261.015625,P02,D10,1,0,0
1867,1.06,1644583261.03125,P02,D10,1,0,0
1868,1.01,1644583261.046875,P02,D10,1,0,0
1869,0.88,1644583261.0625,P02,D10,1,0,0
1870,0.75,1644583261.078125,P02,D10,1,0,0
1871,0.67,1644583261.09375,P02,D10,1,0,0
1872,0.65,1644583261.109375,P02,D10,1,0,0
1873,0.64,1644583261.125,P02,D10,1,0,0
1874,0.56,1644583261.140625,P02,D10,1,0,0
1875,0.33,1644583261.15625,P02,D10,1,0,0
1876,-0.04,1644583261.171875,P02,D10,1,0,0
1877,-0.47,1644583261.1875,P02,D10,1,0,0
1878,-0.82,1644583261.203125,P02,D10,1,0,0
1879,-0.95,1644583261.21875,P02,D10,1,0,0
1880,-0.77,1644583261.234375,P02,D10,1,0,0
1881,-0.37,1644583261.25,P02,D10,1,0,0
1882,0.09,1644583261.265625,P02,D10,1,0,0
1883,0.41,1644583261.28125,P02,D10,1,0,0
1884,0.48,1644583261.296875,P02,D10,1,0,0
1885,0.36,1644583261.3125,P02,D10,1,0,0
1886,0.17,1644583261.328125,P02,D10,1,0,0
1887,0.07,1644583261.34375,P02,D10,1,0,0
1888,0.12,1644583261.359375,P02,D10,1,0,0
1889,0.26,1644583261.375,P02,D10,1,0,0
1890,0.36,1644583261.390625,P02,D10,1,0,0
1891,0.33,1644583261.40625,P02,D10,1,0,0
1892,0.16,1644583261.421875,P02,D10,1,0,0
1893,-0.09,1644583261.4375,P02,D10,1,0,0
1894,-0.29,1644583261.453125,P02,D10,1,0,0
1895,-0.37,1644583261.46875,P02,D10,1,0,0
1896,-0.32,1644583261.484375,P02,D10,1,0,0
1897,-0.22,1644583261.5,P02,D10,1,0,0
1898,-0.16,1644583261.515625,P02,D10,1,0,0
1899,-0.23,1644583261.53125,P02,D10,1,0,0
1900,-0.46,1644583261.546875,P02,D10,1,0,0
1901,-0.83,1644583261.5625,P02,D10,1,0,0
1902,-1.22,1644583261.578125,P02,D10,1,0,0
1903,-1.55,1644583261.59375,P02,D10,1,0,0
1904,-1.73,1644583261.609375,P02,D10,1,0,0
1905,-1.74,1644583261.625,P02,D10,1,0,0
1906,-1.59,1644583261.640625,P02,D10,1,0,0
1907,-1.33,1644583261.65625,P02,D10,1,0,0
1908,-1.0,1644583261.671875,P02,D10,1,0,0
1909,-0.64,1644583261.6875,P02,D10,1,0,0
1910,-0.27,1644583261.703125,P02,D10,1,0,0
1911,0.06,1644583261.71875,P02,D10,1,0,0
1912,0.32,1644583261.734375,P02,D10,1,0,0
1913,0.44,1644583261.75,P02,D10,1,0,0
1914,0.43,1644583261.765625,P02,D10,1,0,0
1915,0.34,1644583261.78125,P02,D10,1,0,0
1916,0.29,1644583261.796875,P02,D10,1,0,0
1917,0.36,1644583261.8125,P02,D10,1,0,0
1918,0.56,1644583261.828125,P02,D10,1,0,0
1919,0.85,1644583261.84375,P02,D10,1,0,0
1920,1.12,1644583261.859375,P02,D10,1,0,0
1921,1.3,1644583261.875,P02,D10,1,0,0
1922,1.34,1644583261.890625,P02,D10,1,0,0
1923,1.27,1644583261.90625,P02,D10,1,0,0
1924,1.15,1644583261.921875,P02,D10,1,0,0
1925,1.01,1644583261.9375,P02,D10,1,0,0
1926,0.83,1644583261.953125,P02,D10,1,0,0
1927,0.59,1644583261.96875,P02,D10,1,0,0
1928,0.26,1644583261.984375,P02,D10,1,0,0
1929,-0.14,1644583262.0,P02,D10,1,0,0
1930,-0.51,1644583262.015625,P02,D10,1,0,0
1931,-0.74,1644583262.03125,P02,D10,1,0,0
1932,-0.76,1644583262.046875,P02,D10,1,0,0
1933,-0.57,1644583262.0625,P02,D10,1,0,0
1934,-0.28,1644583262.078125,P02,D10,1,0,0
1935,-0.03,1644583262.09375,P02,D10,1,0,0
1936,0.06,1644583262.109375,P02,D10,1,0,0
1937,-0.03,1644583262.125,P02,D10,1,0,0
1938,-0.23,1644583262.140625,P02,D10,1,0,0
1939,-0.43,1644583262.15625,P02,D10,1,0,0
1940,-0.49,1644583262.171875,P02,D10,1,0,0
1941,-0.39,1644583262.1875,P02,D10,1,0,0
1942,-0.2,1644583262.203125,P02,D10,1,0,0
1943,-0.04,1644583262.21875,P02,D10,1,0,0
1944,0.0,1644583262.234375,P02,D10,1,0,0
1945,-0.1,1644583262.25,P02,D10,1,0,0
1946,-0.26,1644583262.265625,P02,D10,1,0,0
1947,-0.36,1644583262.28125,P02,D10,1,0,0
1948,-0.34,1644583262.296875,P02,D10,1,0,0
1949,-0.23,1644583262.3125,P02,D10,1,0,0
1950,-0.13,1644583262.328125,P02,D10,1,0,0
1951,-0.16,1644583262.34375,P02,D10,1,0,0
1952,-0.36,1644583262.359375,P02,D10,1,0,0
1953,-0.64,1644583262.375,P02,D10,1,0,0
1954,-0.86,1644583262.390625,P02,D10,1,0,0
1955,-0.89,1644583262.40625,P02,D10,1,0,0
1956,-0.69,1644583262.421875,P02,D10,1,0,0
1957,-0.37,1644583262.4375,P02,D10,1,0,0
1958,-0.08,1644583262.453125,P02,D10,1,0,0
1959,0.05,1644583262.46875,P02,D10,1,0,0
1960,-0.05,1644583262.484375,P02,D10,1,0,0
1961,-0.29,1644583262.5,P02,D10,1,0,0
1962,-0.53,1644583262.515625,P02,D10,1,0,0
1963,-0.63,1644583262.53125,P02,D10,1,0,0
1964,-0.51,1644583262.546875,P02,D10,1,0,0
1965,-0.22,1644583262.5625,P02,D10,1,0,0
1966,0.15,1644583262.578125,P02,D10,1,0,0
1967,0.44,1644583262.59375,P02,D10,1,0,0
1968,0.56,1644583262.609375,P02,D10,1,0,0
1969,0.48,1644583262.625,P02,D10,1,0,0
1970,0.27,1644583262.640625,P02,D10,1,0,0
1971,0.06,1644583262.65625,P02,D10,1,0,0
1972,-0.03,1644583262.671875,P02,D10,1,0,0
1973,0.07,1644583262.6875,P02,D10,1,0,0
1974,0.31,1644583262.703125,P02,D10,1,0,0
1975,0.57,1644583262.71875,P02,D10,1,0,0
1976,0.74,1644583262.734375,P02,D10,1,0,0
1977,0.75,1644583262.75,P02,D10,1,0,0
1978,0.64,1644583262.765625,P02,D10,1,0,0
1979,0.53,1644583262.78125,P02,D10,1,0,0
1980,0.51,1644583262.796875,P02,D10,1,0,0
1981,0.64,1644583262.8125,P02,D10,1,0,0
1982,0.83,1644583262.828125,P02,D10,1,0,0
1983,0.96,1644583262.84375,P02,D10,1,0,0
1984,0.91,1644583262.859375,P02,D10,1,0,0
1985,0.64,1644583262.875,P02,D10,1,0,0
1986,0.23,1644583262.890625,P02,D10,1,0,0
1987,-0.18,1644583262.90625,P02,D10,1,0,0
1988,-0.45,1644583262.921875,P02,D10,1,0,0
1989,-0.5,1644583262.9375,P02,D10,1,0,0
1990,-0.36,1644583262.953125,P02,D10,1,0,0
1991,-0.12,1644583262.96875,P02,D10,1,0,0
1992,0.11,1644583262.984375,P02,D10,1,0,0
1993,0.24,1644583263.0,P02,D10,1,0,0
1994,0.24,1644583263.015625,P02,D10,1,0,0
1995,0.13,1644583263.03125,P02,D10,1,0,0
1996,-0.04,1644583263.046875,P02,D10,1,0,0
1997,-0.21,1644583263.0625,P02,D10,1,0,0
1998,-0.38,1644583263.078125,P02,D10,1,0,0
1999,-0.51,1644583263.09375,P02,D10,1,0,0
2000,-0.58,1644583263.109375,P02,D10,1,0,0
2001,-0.54,1644583263.125,P02,D10,1,0,0
2002,-0.37,1644583263.140625,P02,D10,1,0,0
2003,-0.04,1644583263.15625,P02,D10,1,0,0
2004,0.37,1644583263.171875,P02,D10,1,0,0
2005,0.74,1644583263.1875,P02,D10,1,0,0
2006,0.94,1644583263.203125,P02,D10,1,0,0
2007,0.89,1644583263.21875,P02,D10,1,0,0
2008,0.63,1644583263.234375,P02,D10,1,0,0
2009,0.28,1644583263.25,P02,D10,1,0,0
2010,0.01,1644583263.265625,P02,D10,1,0,0
2011,-0.07,1644583263.28125,P02,D10,1,0,0
2012,0.08,1644583263.296875,P02,D10,1,0,0
2013,0.38,1644583263.3125,P02,D10,1,0,0
2014,0.67,1644583263.328125,P02,D10,1,0,0
2015,0.82,1644583263.34375,P02,D10,1,0,0
2016,0.75,1644583263.359375,P02,D10,1,0,0
2017,0.47,1644583263.375,P02,D10,1,0,0
2018,0.07,1644583263.390625,P02,D10,1,0,0
2019,-0.38,1644583263.40625,P02,D10,1,0,0
2020,-0.78,1644583263.421875,P02,D10,1,0,0
2021,-1.09,1644583263.4375,P02,D10,1,0,0
2022,-1.3,1644583263.453125,P02,D10,1,0,0
2023,-1.4,1644583263.46875,P02,D10,1,0,0
2024,-1.38,1644583263.484375,P02,D10,1,0,0
2025,-1.21,1644583263.5,P02,D10,1,0,0
2026,-0.88,1644583263.515625,P02,D10,1,0,0
2027,-0.43,1644583263.53125,P02,D10,1,0,0
2028,0.05,1644583263.546875,P02,D10,1,0,0
2029,0.43,1644583263.5625,P02,D10,1,0,0
2030,0.63,1644583263.578125,P02,D10,1,0,0
2031,0.61,1644583263.59375,P02,D10,1,0,0
2032,0.43,1644583263.609375,P02,D10,1,0,0
2033,0.21,1644583263.625,P02,D10,1,0,0
2034,0.07,1644583263.640625,P02,D10,1,0,0
2035,0.08,1644583263.65625,P02,D10,1,0,0
2036,0.23,1644583263.671875,P02,D10,1,0,0
2037,0.42,1644583263.6875,P02,D10,1,0,0
2038,0.55,1644583263.703125,P02,D10,1,0,0
2039,0.51,1644583263.71875,P02,D10,1,0,0
2040,0.28,1644583263.734375,P02,D10,1,0,0
2041,-0.07,1644583263.75,P02,D10,1,0,0
2042,-0.42,1644583263.765625,P02,D10,1,0,0
2043,-0.66,1644583263.78125,P02,D10,1,0,0
2044,-0.69,1644583263.796875,P02,D10,1,0,0
2045,-0.53,1644583263.8125,P02,D10,1,0,0
2046,-0.27,1644583263.828125,P02,D10,1,0,0
2047,-0.06,1644583263.84375,P02,D10,1,0,0
2048,0.01,1644583263.859375,P02,D10,1,0,0
2049,-0.11,1644583263.875,P02,D10,1,0,0
2050,-0.33,1644583263.890625,P02,D10,1,0,0
2051,-0.53,1644583263.90625,P02,D10,1,0,0
2052,-0.61,1644583263.921875,P02,D10,1,0,0
2053,-0.56,1644583263.9375,P02,D10,1,0,0
2054,-0.44,1644583263.953125,P02,D10,1,0,0
2055,-0.37,1644583263.96875,P02,D10,1,0,0
2056,-0.4,1644583263.984375,P02,D10,1,0,0
2057,-0.48,1644583264.0,P02,D10,1,0,0
2058,-0.5,1644583264.015625,P02,D10,1,0,0
2059,-0.36,1644583264.03125,P02,D10,1,0,0
2060,-0.0,1644583264.046875,P02,D10,1,0,0
2061,0.48,1644583264.0625,P02,D10,1,0,0
2062,0.96,1644583264.078125,P02,D10,1,0,0
2063,1.28,1644583264.09375,P02,D10,1,0,0
2064,1.37,1644583264.109375,P02,D10,1,0,0
2065,1.27,1644583264.125,P02,D10,1,0,0
2066,1.06,1644583264.140625,P02,D10,1,0,0
2067,0.87,1644583264.15625,P02,D10,1,0,0
2068,0.74,1644583264.171875,P02,D10,1,0,0
2069,0.65,1644583264.1875,P02,D10,1,0,0
2070,0.57,1644583264.203125,P02,D10,1,0,0
2071,0.47,1644583264.21875,P02,D10,1,0,0
2072,0.33,1644583264.234375,P02,D10,1,0,0
2073,0.21,1644583264.25,P02,D10,1,0,0
2074,0.13,1644583264.265625,P02,D10,1,0,0
2075,0.05,1644583264.28125,P02,D10,1,0,0
2076,-0.06,1644583264.296875,P02,D10,1,0,0
2077,-0.25,1644583264.3125,P02,D10,1,0,0
2078,-0.54,1644583264.328125,P02,D10,1,0,0
2079,-0.85,1644583264.34375,P02,D10,1,0,0
2080,-1.1,1644583264.359375,P02,D10,1,0,0
2081,-1.17,1644583264.375,P02,D10,1,0,0
2082,-1.01,1644583264.390625,P02,D10,1,0,0
2083,-0.66,1644583264.40625,P02,D10,1,0,0
2084,-0.22,1644583264.421875,P02,D10,1,0,0
2085,0.19,1644583264.4375,P02,D10,1,0,0
2086,0.48,1644583264.453125,P02,D10,1,0,0
2087,0.62,1644583264.46875,P02,D10,1,0,0
2088,0.62,1644583264.484375,P02,D10,1,0,0
2089,0.52,1644583264.5,P02,D10,1,0,0
2090,0.37,1644583264.515625,P02,D10,1,0,0
2091,0.21,1644583264.53125,P02,D10,1,0,0
2092,0.09,1644583264.546875,P02,D10,1,0,0
2093,0.05,1644583264.5625,P02,D10,1,0,0
2094,0.09,1644583264.578125,P02,D10,1,0,0
2095,0.24,1644583264.59375,P02,D10,1,0,0
2096,0.46,1644583264.609375,P02,D10,1,0,0
2097,0.67,1644583264.625,P02,D10,1,0,0
2098,0.81,1644583264.640625,P02,D10,1,0,0
2099,0.81,1644583264.65625,P02,D10,1,0,0
2100,0.66,1644583264.671875,P02,D10,1,0,0
2101,0.38,1644583264.6875,P02,D10,1,0,0
2102,0.01,1644583264.703125,P02,D10,1,0,0
2103,-0.38,1644583264.71875,P02,D10,1,0,0
2104,-0.75,1644583264.734375,P02,D10,1,0,0
2105,-1.03,1644583264.75,P02,D10,1,0,0
2106,-1.16,1644583264.765625,P02,D10,1,0,0
2107,-1.08,1644583264.78125,P02,D10,1,0,0
2108,-0.79,1644583264.796875,P02,D10,1,0,0
2109,-0.38,1644583264.8125,P02,D10,1,0,0
2110,0.01,1644583264.828125,P02,D10,1,0,0
2111,0.25,1644583264.84375,P02,D10,1,0,0
2112,0.28,1644583264.859375,P02,D10,1,0,0
2113,0.13,1644583264.875,P02,D10,1,0,0
2114,-0.08,1644583264.890625,P02,D10,1,0,0
2115,-0.28,1644583264.90625,P02,D10,1,0,0
2116,-0.44,1644583264.921875,P02,D10,1,0,0
2117,-0.6,1644583264.9375,P02,D10,1,0,0
2118,-0.78,1644583264.953125,P02,D10,1,0,0
2119,-0.97,1644583264.96875,P02,D10,1,0,0
2120,-1.08,1644583264.984375,P02,D10,1,0,0
2121,-1.02,1644583265.0,P02,D10,1,0,0
2122,-0.73,1644583265.015625,P02,D10,1,0,0
2123,-0.26,1644583265.03125,P02,D10,1,0,0
2124,0.23,1644583265.046875,P02,D10,1,0,0
2125,0.6,1644583265.0625,P02,D10,1,0,0
2126,0.75,1644583265.078125,P02,D10,1,0,0
2127,0.73,1644583265.09375,P02,D10,1,0,0
2128,0.63,1644583265.109375,P02,D10,1,0,0
2129,0.57,1644583265.125,P02,D10,1,0,0
2130,0.58,1644583265.140625,P02,D10,1,0,0
2131,0.63,1644583265.15625,P02,D10,1,0,0
2132,0.65,1644583265.171875,P02,D10,1,0,0
2133,0.56,1644583265.1875,P02,D10,1,0,0
2134,0.32,1644583265.203125,P02,D10,1,0,0
2135,-0.04,1644583265.21875,P02,D10,1,0,0
2136,-0.4,1644583265.234375,P02,D10,1,0,0
2137,-0.64,1644583265.25,P02,D10,1,0,0
2138,-0.66,1644583265.265625,P02,D10,1,0,0
2139,-0.42,1644583265.28125,P02,D10,1,0,0
2140,-0.01,1644583265.296875,P02,D10,1,0,0
2141,0.45,1644583265.3125,P02,D10,1,0,0
2142,0.81,1644583265.328125,P02,D10,1,0,0
2143,0.99,1644583265.34375,P02,D10,1,0,0
2144,0.99,1644583265.359375,P02,D10,1,0,0
2145,0.85,1644583265.375,P02,D10,1,0,0
2146,0.68,1644583265.390625,P02,D10,1,0,0
2147,0.52,1644583265.40625,P02,D10,1,0,0
2148,0.38,1644583265.421875,P02,D10,1,0,0
2149,0.27,1644583265.4375,P02,D10,1,0,0
2150,0.18,1644583265.453125,P02,D10,1,0,0
2151,0.13,1644583265.46875,P02,D10,1,0,0
2152,0.17,1644583265.484375,P02,D10,1,0,0
2153,0.3,1644583265.5,P02,D10,1,0,0
2154,0.48,1644583265.515625,P02,D10,1,0,0
2155,0.61,1644583265.53125,P02,D10,1,0,0
2156,0.59,1644583265.546875,P02,D10,1,0,0
2157,0.39,1644583265.5625,P02,D10,1,0,0
2158,0.05,1644583265.578125,P02,D10,1,0,0
2159,-0.3,1644583265.59375,P02,D10,1,0,0
2160,-0.54,1644583265.609375,P02,D10,1,0,0
2161,-0.59,1644583265.625,P02,D10,1,0,0
2162,-0.45,1644583265.640625,P02,D10,1,0,0
2163,-0.19,1644583265.65625,P02,D10,1,0,0
2164,0.06,1644583265.671875,P02,D10,1,0,0
2165,0.22,1644583265.6875,P02,D10,1,0,0
2166,0.25,1644583265.703125,P02,D10,1,0,0
2167,0.19,1644583265.71875,P02,D10,1,0,0
2168,0.11,1644583265.734375,P02,D10,1,0,0
2169,0.09,1644583265.75,P02,D10,1,0,0
2170,0.15,1644583265.765625,P02,D10,1,0,0
2171,0.31,1644583265.78125,P02,D10,1,0,0
2172,0.51,1644583265.796875,P02,D10,1,0,0
2173,0.7,1644583265.8125,P02,D10,1,0,0
2174,0.85,1644583265.828125,P02,D10,1,0,0
2175,0.94,1644583265.84375,P02,D10,1,0,0
2176,0.95,1644583265.859375,P02,D10,1,0,0
2177,0.89,1644583265.875,P02,D10,1,0,0
2178,0.77,1644583265.890625,P02,D10,1,0,0
2179,0.61,1644583265.90625,P02,D10,1,0,0
2180,0.46,1644583265.921875,P02,D10,1,0,0
2181,0.35,1644583265.9375,P02,D10,1,0,0
2182,0.3,1644583265.953125,P02,D10,1,0,0
2183,0.28,1644583265.96875,P02,D10,1,0,0
2184,0.23,1644583265.984375,P02,D10,1,0,0
2185,0.1,1644583266.0,P02,D10,1,0,0
2186,-0.14,1644583266.015625,P02,D10,1,0,0
2187,-0.43,1644583266.03125,P02,D10,1,0,0
2188,-0.7,1644583266.046875,P02,D10,1,0,0
2189,-0.89,1644583266.0625,P02,D10,1,0,0
2190,-0.98,1644583266.078125,P02,D10,1,0,0
2191,-0.98,1644583266.09375,P02,D10,1,0,0
2192,-0.99,1644583266.109375,P02,D10,1,0,0
2193,-1.04,1644583266.125,P02,D10,1,0,0
2194,-1.19,1644583266.140625,P02,D10,1,0,0
2195,-1.41,1644583266.15625,P02,D10,1,0,0
2196,-1.65,1644583266.171875,P02,D10,1,0,0
2197,-1.87,1644583266.1875,P02,D10,1,0,0
2198,-2.0,1644583266.203125,P02,D10,1,0,0
2199,-2.04,1644583266.21875,P02,D10,1,0,0
2200,-1.99,1644583266.234375,P02,D10,1,0,0
2201,-1.86,1644583266.25,P02,D10,1,0,0
2202,-1.68,1644583266.265625,P02,D10,1,0,0
2203,-1.47,1644583266.28125,P02,D10,1,0,0
2204,-1.24,1644583266.296875,P02,D10,1,0,0
2205,-1.03,1644583266.3125,P02,D10,1,0,0
2206,-0.84,1644583266.328125,P02,D10,1,0,0
2207,-0.71,1644583266.34375,P02,D10,1,0,0
2208,-0.69,1644583266.359375,P02,D10,1,0,0
2209,-0.76,1644583266.375,P02,D10,1,0,0
2210,-0.89,1644583266.390625,P02,D10,1,0,0
2211,-1.01,1644583266.40625,P02,D10,1,0,0
2212,-1.04,1644583266.421875,P02,D10,1,0,0
2213,-0.93,1644583266.4375,P02,D10,1,0,0
2214,-0.7,1644583266.453125,P02,D10,1,0,0
2215,-0.39,1644583266.46875,P02,D10,1,0,0
2216,-0.13,1644583266.484375,P02,D10,1,0,0
2217,0.01,1644583266.5,P02,D10,1,0,0
2218,-0.03,1644583266.515625,P02,D10,1,0,0
2219,-0.26,1644583266.53125,P02,D10,1,0,0
2220,-0.59,1644583266.546875,P02,D10,1,0,0
2221,-0.93,1644583266.5625,P02,D10,1,0,0
2222,-1.16,1644583266.578125,P02,D10,1,0,0
2223,-1.22,1644583266.59375,P02,D10,1,0,0
2224,-1.11,1644583266.609375,P02,D10,1,0,0
2225,-0.9,1644583266.625,P02,D10,1,0,0
2226,-0.68,1644583266.640625,P02,D10,1,0,0
2227,-0.53,1644583266.65625,P02,D10,1,0,0
2228,-0.47,1644583266.671875,P02,D10,1,0,0
2229,-0.47,1644583266.6875,P02,D10,1,0,0
2230,-0.49,1644583266.703125,P02,D10,1,0,0
2231,-0.49,1644583266.71875,P02,D10,1,0,0
2232,-0.48,1644583266.734375,P02,D10,1,0,0
2233,-0.51,1644583266.75,P02,D10,1,0,0
2234,-0.66,1644583266.765625,P02,D10,1,0,0
2235,-0.98,1644583266.78125,P02,D10,1,0,0
2236,-1.47,1644583266.796875,P02,D10,1,0,0
2237,-2.05,1644583266.8125,P02,D10,1,0,0
2238,-2.64,1644583266.828125,P02,D10,1,0,0
2239,-3.15,1644583266.84375,P02,D10,1,0,0
2240,-3.54,1644583266.859375,P02,D10,1,0,0
2241,-3.81,1644583266.875,P02,D10,1,0,0
2242,-4.01,1644583266.890625,P02,D10,1,0,0
2243,-4.19,1644583266.90625,P02,D10,1,0,0
2244,-4.39,1644583266.921875,P02,D10,1,0,0
2245,-4.64,1644583266.9375,P02,D10,1,0,0
2246,-4.95,1644583266.953125,P02,D10,1,0,0
2247,-5.35,1644583266.96875,P02,D10,1,0,0
2248,-5.81,1644583266.984375,P02,D10,1,0,0
2249,-6.27,1644583267.0,P02,D10,1,0,0
2250,-6.6,1644583267.015625,P02,D10,1,0,0
2251,-6.7,1644583267.03125,P02,D10,1,0,0
2252,-6.55,1644583267.046875,P02,D10,1,0,0
2253,-6.26,1644583267.0625,P02,D10,1,0,0
2254,-6.09,1644583267.078125,P02,D10,1,0,0
2255,-6.37,1644583267.09375,P02,D10,1,0,0
2256,-7.34,1644583267.109375,P02,D10,1,0,0
2257,-9.07,1644583267.125,P02,D10,1,0,0
2258,-11.32,1644583267.140625,P02,D10,1,0,0
2259,-13.57,1644583267.15625,P02,D10,1,0,0
2260,-15.11,1644583267.171875,P02,D10,1,0,0
2261,-15.17,1644583267.1875,P02,D10,1,0,0
2262,-13.21,1644583267.203125,P02,D10,1,0,0
2263,-9.11,1644583267.21875,P02,D10,1,0,0
2264,-3.37,1644583267.234375,P02,D10,1,0,0
2265,2.98,1644583267.25,P02,D10,1,0,0
2266,8.65,1644583267.265625,P02,D10,1,0,0
2267,12.55,1644583267.28125,P02,D10,1,0,0
2268,14.12,1644583267.296875,P02,D10,1,0,0
2269,13.54,1644583267.3125,P02,D10,1,0,0
2270,11.58,1644583267.328125,P02,D10,1,0,0
2271,9.22,1644583267.34375,P02,D10,1,0,0
2272,7.26,1644583267.359375,P02,D10,1,0,0
2273,6.09,1644583267.375,P02,D10,1,0,0
2274,5.72,1644583267.390625,P02,D10,1,0,0
2275,5.87,1644583267.40625,P02,D10,1,0,0
2276,6.27,1644583267.421875,P02,D10,1,0,0
2277,6.71,1644583267.4375,P02,D10,1,0,0
2278,7.05,1644583267.453125,P02,D10,1,0,0
2279,7.26,1644583267.46875,P02,D10,1,0,0
2280,7.26,1644583267.484375,P02,D10,1,0,0
2281,7.05,1644583267.5,P02,D10,1,0,0
2282,6.67,1644583267.515625,P02,D10,1,0,0
2283,6.23,1644583267.53125,P02,D10,1,0,0
2284,5.86,1644583267.546875,P02,D10,1,0,0
2285,5.7,1644583267.5625,P02,D10,1,0,0
2286,5.82,1644583267.578125,P02,D10,1,0,0
2287,6.23,1644583267.59375,P02,D10,1,0,0
2288,6.91,1644583267.609375,P02,D10,1,0,0
2289,7.75,1644583267.625,P02,D10,1,0,0
2290,8.63,1644583267.640625,P02,D10,1,0,0
2291,9.41,1644583267.65625,P02,D10,1,0,0
2292,9.96,1644583267.671875,P02,D10,1,0,0
2293,10.26,1644583267.6875,P02,D10,1,0,0
2294,10.36,1644583267.703125,P02,D10,1,0,0
2295,10.42,1644583267.71875,P02,D10,1,0,0
2296,10.64,1644583267.734375,P02,D10,1,0,0
2297,11.18,1644583267.75,P02,D10,1,0,0
2298,12.1,1644583267.765625,P02,D10,1,0,0
2299,13.35,1644583267.78125,P02,D10,1,0,0
2300,14.84,1644583267.796875,P02,D10,1,0,0
2301,16.42,1644583267.8125,P02,D10,1,0,0
2302,17.98,1644583267.828125,P02,D10,1,0,0
2303,19.36,1644583267.84375,P02,D10,1,0,0
2304,20.34,1644583267.859375,P02,D10,1,0,0
2305,20.6,1644583267.875,P02,D10,1,0,0
2306,19.79,1644583267.890625,P02,D10,1,0,0
2307,17.66,1644583267.90625,P02,D10,1,0,0
2308,14.17,1644583267.921875,P02,D10,1,0,0
2309,9.59,1644583267.9375,P02,D10,1,0,0
2310,4.49,1644583267.953125,P02,D10,1,0,0
2311,-0.49,1644583267.96875,P02,D10,1,0,0
2312,-4.73,1644583267.984375,P02,D10,1,0,0
2313,-7.87,1644583268.0,P02,D10,1,0,0
2314,-9.79,1644583268.015625,P02,D10,1,0,0
2315,-10.64,1644583268.03125,P02,D10,1,0,0
2316,-10.68,1644583268.046875,P02,D10,1,0,0
2317,-10.21,1644583268.0625,P02,D10,1,0,0
2318,-9.49,1644583268.078125,P02,D10,1,0,0
2319,-8.73,1644583268.09375,P02,D10,1,0,0
2320,-8.08,1644583268.109375,P02,D10,1,0,0
2321,-7.61,1644583268.125,P02,D10,1,0,0
2322,-7.35,1644583268.140625,P02,D10,1,0,0
2323,-7.28,1644583268.15625,P02,D10,1,0,0
2324,-7.32,1644583268.171875,P02,D10,1,0,0
2325,-7.44,1644583268.1875,P02,D10,1,0,0
2326,-7.57,1644583268.203125,P02,D10,1,0,0
2327,-7.73,1644583268.21875,P02,D10,1,0,0
2328,-7.92,1644583268.234375,P02,D10,1,0,0
2329,-8.17,1644583268.25,P02,D10,1,0,0
2330,-8.47,1644583268.265625,P02,D10,1,0,0
2331,-8.8,1644583268.28125,P02,D10,1,0,0
2332,-9.07,1644583268.296875,P02,D10,1,0,0
2333,-9.21,1644583268.3125,P02,D10,1,0,0
2334,-9.13,1644583268.328125,P02,D10,1,0,0
2335,-8.8,1644583268.34375,P02,D10,1,0,0
2336,-8.22,1644583268.359375,P02,D10,1,0,0
2337,-7.45,1644583268.375,P02,D10,1,0,0
2338,-6.56,1644583268.390625,P02,D10,1,0,0
2339,-5.65,1644583268.40625,P02,D10,1,0,0
2340,-4.78,1644583268.421875,P02,D10,1,0,0
2341,-3.96,1644583268.4375,P02,D10,1,0,0
2342,-3.18,1644583268.453125,P02,D10,1,0,0
2343,-2.39,1644583268.46875,P02,D10,1,0,0
2344,-1.59,1644583268.484375,P02,D10,1,0,0
2345,-0.81,1644583268.5,P02,D10,1,0,0
2346,-0.12,1644583268.515625,P02,D10,1,0,0
2347,0.37,1644583268.53125,P02,D10,1,0,0
2348,0.62,1644583268.546875,P02,D10,1,0,0
2349,0.63,1644583268.5625,P02,D10,1,0,0
2350,0.46,1644583268.578125,P02,D10,1,0,0
2351,0.2,1644583268.59375,P02,D10,1,0,0
2352,-0.09,1644583268.609375,P02,D10,1,0,0
2353,-0.39,1644583268.625,P02,D10,1,0,0
2354,-0.69,1644583268.640625,P02,D10,1,0,0
2355,-1.01,1644583268.65625,P02,D10,1,0,0
2356,-1.32,1644583268.671875,P02,D10,1,0,0
2357,-1.54,1644583268.6875,P02,D10,1,0,0
2358,-1.61,1644583268.703125,P02,D10,1,0,0
2359,-1.47,1644583268.71875,P02,D10,1,0,0
2360,-1.14,1644583268.734375,P02,D10,1,0,0
2361,-0.7,1644583268.75,P02,D10,1,0,0
2362,-0.23,1644583268.765625,P02,D10,1,0,0
2363,0.19,1644583268.78125,P02,D10,1,0,0
2364,0.54,1644583268.796875,P02,D10,1,0,0
2365,0.82,1644583268.8125,P02,D10,1,0,0
2366,1.04,1644583268.828125,P02,D10,1,0,0
2367,1.26,1644583268.84375,P02,D10,1,0,0
2368,1.48,1644583268.859375,P02,D10,1,0,0
2369,1.68,1644583268.875,P02,D10,1,0,0
2370,1.84,1644583268.890625,P02,D10,1,0,0
2371,1.9,1644583268.90625,P02,D10,1,0,0
2372,1.79,1644583268.921875,P02,D10,1,0,0
2373,1.48,1644583268.9375,P02,D10,1,0,0
2374,0.98,1644583268.953125,P02,D10,1,0,0
2375,0.38,1644583268.96875,P02,D10,1,0,0
2376,-0.19,1644583268.984375,P02,D10,1,0,0
2377,-0.6,1644583269.0,P02,D10,1,0,0
2378,-0.76,1644583269.015625,P02,D10,1,0,0
2379,-0.68,1644583269.03125,P02,D10,1,0,0
2380,-0.44,1644583269.046875,P02,D10,1,0,0
2381,-0.15,1644583269.0625,P02,D10,1,0,0
2382,0.06,1644583269.078125,P02,D10,1,0,0
2383,0.15,1644583269.09375,P02,D10,1,0,0
2384,0.11,1644583269.109375,P02,D10,1,0,0
2385,-0.02,1644583269.125,P02,D10,1,0,0
2386,-0.18,1644583269.140625,P02,D10,1,0,0
2387,-0.34,1644583269.15625,P02,D10,1,0,0
2388,-0.51,1644583269.171875,P02,D10,1,0,0
2389,-0.71,1644583269.1875,P02,D10,1,0,0
2390,-0.94,1644583269.203125,P02,D10,1,0,0
2391,-1.16,1644583269.21875,P02,D10,1,0,0
2392,-1.31,1644583269.234375,P02,D10,1,0,0
2393,-1.3,1644583269.25,P02,D10,1,0,0
2394,-1.1,1644583269.265625,P02,D10,1,0,0
2395,-0.75,1644583269.28125,P02,D10,1,0,0
2396,-0.36,1644583269.296875,P02,D10,1,0,0
2397,-0.03,1644583269.3125,P02,D10,1,0,0
2398,0.19,1644583269.328125,P02,D10,1,0,0
2399,0.27,1644583269.34375,P02,D10,1,0,0
2400,0.23,1644583269.359375,P02,D10,1,0,0
2401,0.09,1644583269.375,P02,D10,1,0,0
2402,-0.16,1644583269.390625,P02,D10,1,0,0
2403,-0.5,1644583269.40625,P02,D10,1,0,0
2404,-0.86,1644583269.421875,P02,D10,1,0,0
2405,-1.15,1644583269.4375,P02,D10,1,0,0
2406,-1.27,1644583269.453125,P02,D10,1,0,0
2407,-1.18,1644583269.46875,P02,D10,1,0,0
2408,-0.94,1644583269.484375,P02,D10,1,0,0
2409,-0.63,1644583269.5,P02,D10,1,0,0
2410,-0.37,1644583269.515625,P02,D10,1,0,0
2411,-0.19,1644583269.53125,P02,D10,1,0,0
2412,-0.09,1644583269.546875,P02,D10,1,0,0
2413,-0.01,1644583269.5625,P02,D10,1,0,0
2414,0.08,1644583269.578125,P02,D10,1,0,0
2415,0.24,1644583269.59375,P02,D10,1,0,0
2416,0.48,1644583269.609375,P02,D10,1,0,0
2417,0.79,1644583269.625,P02,D10,1,0,0
2418,1.15,1644583269.640625,P02,D10,1,0,0
2419,1.46,1644583269.65625,P02,D10,1,0,0
2420,1.65,1644583269.671875,P02,D10,1,0,0
2421,1.65,1644583269.6875,P02,D10,1,0,0
2422,1.47,1644583269.703125,P02,D10,1,0,0
2423,1.25,1644583269.71875,P02,D10,1,0,0
2424,1.13,1644583269.734375,P02,D10,1,0,0
2425,1.22,1644583269.75,P02,D10,1,0,0
2426,1.51,1644583269.765625,P02,D10,1,0,0
2427,1.87,1644583269.78125,P02,D10,1,0,0
2428,2.12,1644583269.796875,P02,D10,1,0,0
2429,2.14,1644583269.8125,P02,D10,1,0,0
2430,1.9,1644583269.828125,P02,D10,1,0,0
2431,1.51,1644583269.84375,P02,D10,1,0,0
2432,1.1,1644583269.859375,P02,D10,1,0,0
2433,0.78,1644583269.875,P02,D10,1,0,0
2434,0.58,1644583269.890625,P02,D10,1,0,0
2435,0.48,1644583269.90625,P02,D10,1,0,0
2436,0.38,1644583269.921875,P02,D10,1,0,0
2437,0.23,1644583269.9375,P02,D10,1,0,0
2438,0.02,1644583269.953125,P02,D10,1,0,0
2439,-0.26,1644583269.96875,P02,D10,1,0,0
2440,-0.58,1644583269.984375,P02,D10,1,0,0
2441,-0.94,1644583270.0,P02,D10,1,0,0
2442,-1.34,1644583270.015625,P02,D10,1,0,0
2443,-1.72,1644583270.03125,P02,D10,1,0,0
2444,-2.03,1644583270.046875,P02,D10,1,0,0
2445,-2.17,1644583270.0625,P02,D10,1,0,0
2446,-2.13,1644583270.078125,P02,D10,1,0,0
2447,-1.91,1644583270.09375,P02,D10,1,0,0
2448,-1.6,1644583270.109375,P02,D10,1,0,0
2449,-1.31,1644583270.125,P02,D10,1,0,0
2450,-1.08,1644583270.140625,P02,D10,1,0,0
2451,-0.9,1644583270.15625,P02,D10,1,0,0
2452,-0.71,1644583270.171875,P02,D10,1,0,0
2453,-0.46,1644583270.1875,P02,D10,1,0,0
2454,-0.12,1644583270.203125,P02,D10,1,0,0
2455,0.24,1644583270.21875,P02,D10,1,0,0
2456,0.54,1644583270.234375,P02,D10,1,0,0
2457,0.69,1644583270.25,P02,D10,1,0,0
2458,0.67,1644583270.265625,P02,D10,1,0,0
2459,0.5,1644583270.28125,P02,D10,1,0,0
2460,0.24,1644583270.296875,P02,D10,1,0,0
2461,-0.03,1644583270.3125,P02,D10,1,0,0
2462,-0.27,1644583270.328125,P02,D10,1,0,0
2463,-0.42,1644583270.34375,P02,D10,1,0,0
2464,-0.49,1644583270.359375,P02,D10,1,0,0
2465,-0.46,1644583270.375,P02,D10,1,0,0
2466,-0.35,1644583270.390625,P02,D10,1,0,0
2467,-0.18,1644583270.40625,P02,D10,1,0,0
2468,0.01,1644583270.421875,P02,D10,1,0,0
2469,0.2,1644583270.4375,P02,D10,1,0,0
2470,0.32,1644583270.453125,P02,D10,1,0,0
2471,0.37,1644583270.46875,P02,D10,1,0,0
2472,0.38,1644583270.484375,P02,D10,1,0,0
2473,0.42,1644583270.5,P02,D10,1,0,0
2474,0.54,1644583270.515625,P02,D10,1,0,0
2475,0.75,1644583270.53125,P02,D10,1,0,0
2476,0.99,1644583270.546875,P02,D10,1,0,0
2477,1.15,1644583270.5625,P02,D10,1,0,0
2478,1.14,1644583270.578125,P02,D10,1,0,0
2479,0.91,1644583270.59375,P02,D10,1,0,0
2480,0.54,1644583270.609375,P02,D10,1,0,0
2481,0.13,1644583270.625,P02,D10,1,0,0
2482,-0.19,1644583270.640625,P02,D10,1,0,0
2483,-0.35,1644583270.65625,P02,D10,1,0,0
2484,-0.34,1644583270.671875,P02,D10,1,0,0
2485,-0.2,1644583270.6875,P02,D10,1,0,0
2486,-0.0,1644583270.703125,P02,D10,1,0,0
2487,0.17,1644583270.71875,P02,D10,1,0,0
2488,0.24,1644583270.734375,P02,D10,1,0,0
2489,0.18,1644583270.75,P02,D10,1,0,0
2490,0.01,1644583270.765625,P02,D10,1,0,0
2491,-0.19,1644583270.78125,P02,D10,1,0,0
2492,-0.33,1644583270.796875,P02,D10,1,0,0
2493,-0.29,1644583270.8125,P02,D10,1,0,0
2494,-0.04,1644583270.828125,P02,D10,1,0,0
2495,0.4,1644583270.84375,P02,D10,1,0,0
2496,0.97,1644583270.859375,P02,D10,1,0,0
2497,1.55,1644583270.875,P02,D10,1,0,0
2498,2.06,1644583270.890625,P02,D10,1,0,0
2499,2.42,1644583270.90625,P02,D10,1,0,0
2500,2.56,1644583270.921875,P02,D10,1,0,0
2501,2.43,1644583270.9375,P02,D10,1,0,0
2502,2.02,1644583270.953125,P02,D10,1,0,0
2503,1.39,1644583270.96875,P02,D10,1,0,0
2504,0.67,1644583270.984375,P02,D10,1,0,0
2505,0.07,1644583271.0,P02,D10,1,0,0
2506,-0.22,1644583271.015625,P02,D10,1,0,0
2507,-0.09,1644583271.03125,P02,D10,1,0,0
2508,0.4,1644583271.046875,P02,D10,1,0,0
2509,1.07,1644583271.0625,P02,D10,1,0,0
2510,1.71,1644583271.078125,P02,D10,1,0,0
2511,2.14,1644583271.09375,P02,D10,1,0,0
2512,2.36,1644583271.109375,P02,D10,1,0,0
2513,2.47,1644583271.125,P02,D10,1,0,0
2514,2.62,1644583271.140625,P02,D10,1,0,0
2515,2.96,1644583271.15625,P02,D10,1,0,0
2516,3.51,1644583271.171875,P02,D10,1,0,0
2517,4.18,1644583271.1875,P02,D10,1,0,0
2518,4.84,1644583271.203125,P02,D10,1,0,0
2519,5.33,1644583271.21875,P02,D10,1,0,0
2520,5.63,1644583271.234375,P02,D10,1,0,0
2521,5.77,1644583271.25,P02,D10,1,0,0
2522,5.88,1644583271.265625,P02,D10,1,0,0
2523,6.09,1644583271.28125,P02,D10,1,0,0
2524,6.51,1644583271.296875,P02,D10,1,0,0
2525,7.13,1644583271.3125,P02,D10,1,0,0
2526,7.89,1644583271.328125,P02,D10,1,0,0
2527,8.69,1644583271.34375,P02,D10,1,0,0
2528,9.41,1644583271.359375,P02,D10,1,0,0
2529,10.04,1644583271.375,P02,D10,1,0,0
2530,10.55,1644583271.390625,P02,D10,1,0,0
2531,10.89,1644583271.40625,P02,D10,1,0,0
2532,10.91,1644583271.421875,P02,D10,1,0,0
2533,10.37,1644583271.4375,P02,D10,1,0,0
2534,9.17,1644583271.453125,P02,D10,1,0,0
2535,7.41,1644583271.46875,P02,D10,1,0,0
2536,5.39,1644583271.484375,P02,D10,1,0,0
2537,3.45,1644583271.5,P02,D10,1,0,0
2538,1.72,1644583271.515625,P02,D10,1,0,0
2539,0.06,1644583271.53125,P02,D10,1,0,0
2540,-1.86,1644583271.546875,P02,D10,1,0,0
2541,-4.19,1644583271.5625,P02,D10,1,0,0
2542,-6.72,1644583271.578125,P02,D10,1,0,0
2543,-8.87,1644583271.59375,P02,D10,1,0,0
2544,-9.98,1644583271.609375,P02,D10,1,0,0
2545,-9.71,1644583271.625,P02,D10,1,0,0
2546,-8.32,1644583271.640625,P02,D10,1,0,0
2547,-6.57,1644583271.65625,P02,D10,1,0,0
2548,-5.35,1644583271.671875,P02,D10,1,0,0
2549,-5.2,1644583271.6875,P02,D10,1,0,0
2550,-6.12,1644583271.703125,P02,D10,1,0,0
2551,-7.58,1644583271.71875,P02,D10,1,0,0
2552,-8.93,1644583271.734375,P02,D10,1,0,0
2553,-9.7,1644583271.75,P02,D10,1,0,0
2554,-9.79,1644583271.765625,P02,D10,1,0,0
2555,-9.37,1644583271.78125,P02,D10,1,0,0
2556,-8.73,1644583271.796875,P02,D10,1,0,0
2557,-8.08,1644583271.8125,P02,D10,1,0,0
2558,-7.53,1644583271.828125,P02,D10,1,0,0
2559,-7.06,1644583271.84375,P02,D10,1,0,0
2560,-6.62,1644583271.859375,P02,D10,1,0,0
2561,-6.2,1644583271.875,P02,D10,1,0,0
2562,-5.84,1644583271.890625,P02,D10,1,0,0
2563,-5.61,1644583271.90625,P02,D10,1,0,0
2564,-5.54,1644583271.921875,P02,D10,1,0,0
2565,-5.64,1644583271.9375,P02,D10,1,0,0
2566,-5.8,1644583271.953125,P02,D10,1,0,0
2567,-5.91,1644583271.96875,P02,D10,1,0,0
2568,-5.83,1644583271.984375,P02,D10,1,0,0
2569,-5.5,1644583272.0,P02,D10,1,0,0
2570,-4.96,1644583272.015625,P02,D10,1,0,0
2571,-4.38,1644583272.03125,P02,D10,1,0,0
2572,-3.91,1644583272.046875,P02,D10,1,0,0
2573,-3.66,1644583272.0625,P02,D10,1,0,0
2574,-3.63,1644583272.078125,P02,D10,1,0,0
2575,-3.7,1644583272.09375,P02,D10,1,0,0
2576,-3.72,1644583272.109375,P02,D10,1,0,0
2577,-3.59,1644583272.125,P02,D10,1,0,0
2578,-3.3,1644583272.140625,P02,D10,1,0,0
2579,-2.94,1644583272.15625,P02,D10,1,0,0
2580,-2.59,1644583272.171875,P02,D10,1,0,0
2581,-2.34,1644583272.1875,P02,D10,1,0,0
2582,-2.2,1644583272.203125,P02,D10,1,0,0
2583,-2.14,1644583272.21875,P02,D10,1,0,0
2584,-2.11,1644583272.234375,P02,D10,1,0,0
2585,-1.99,1644583272.25,P02,D10,1,0,0
2586,-1.66,1644583272.265625,P02,D10,1,0,0
2587,-0.97,1644583272.28125,P02,D10,1,0,0
2588,0.16,1644583272.296875,P02,D10,1,0,0
2589,1.7,1644583272.3125,P02,D10,1,0,0
2590,3.48,1644583272.328125,P02,D10,1,0,0
2591,5.22,1644583272.34375,P02,D10,1,0,0
2592,6.59,1644583272.359375,P02,D10,1,0,0
2593,7.38,1644583272.375,P02,D10,1,0,0
2594,7.46,1644583272.390625,P02,D10,1,0,0
2595,6.84,1644583272.40625,P02,D10,1,0,0
2596,5.63,1644583272.421875,P02,D10,1,0,0
2597,3.98,1644583272.4375,P02,D10,1,0,0
2598,2.12,1644583272.453125,P02,D10,1,0,0
2599,0.41,1644583272.46875,P02,D10,1,0,0
2600,-0.75,1644583272.484375,P02,D10,1,0,0
2601,-1.02,1644583272.5,P02,D10,1,0,0
2602,-0.25,1644583272.515625,P02,D10,1,0,0
2603,1.36,1644583272.53125,P02,D10,1,0,0
2604,3.36,1644583272.546875,P02,D10,1,0,0
2605,5.23,1644583272.5625,P02,D10,1,0,0
2606,6.53,1644583272.578125,P02,D10,1,0,0
2607,7.12,1644583272.59375,P02,D10,1,0,0
2608,7.08,1644583272.609375,P02,D10,1,0,0
2609,6.59,1644583272.625,P02,D10,1,0,0
2610,5.83,1644583272.640625,P02,D10,1,0,0
2611,4.91,1644583272.65625,P02,D10,1,0,0
2612,3.87,1644583272.671875,P02,D10,1,0,0
2613,2.78,1644583272.6875,P02,D10,1,0,0
2614,1.76,1644583272.703125,P02,D10,1,0,0
2615,0.97,1644583272.71875,P02,D10,1,0,0
2616,0.51,1644583272.734375,P02,D10,1,0,0
2617,0.38,1644583272.75,P02,D10,1,0,0
2618,0.47,1644583272.765625,P02,D10,1,0,0
2619,0.61,1644583272.78125,P02,D10,1,0,0
2620,0.66,1644583272.796875,P02,D10,1,0,0
2621,0.55,1644583272.8125,P02,D10,1,0,0
2622,0.27,1644583272.828125,P02,D10,1,0,0
2623,-0.1,1644583272.84375,P02,D10,1,0,0
2624,-0.47,1644583272.859375,P02,D10,1,0,0
2625,-0.79,1644583272.875,P02,D10,1,0,0
2626,-1.03,1644583272.890625,P02,D10,1,0,0
2627,-1.22,1644583272.90625,P02,D10,1,0,0
2628,-1.4,1644583272.921875,P02,D10,1,0,0
2629,-1.63,1644583272.9375,P02,D10,1,0,0
2630,-1.91,1644583272.953125,P02,D10,1,0,0
2631,-2.2,1644583272.96875,P02,D10,1,0,0
2632,-2.38,1644583272.984375,P02,D10,1,0,0
2633,-2.35,1644583273.0,P02,D10,1,0,0
2634,-2.02,1644583273.015625,P02,D10,1,0,0
2635,-1.44,1644583273.03125,P02,D10,1,0,0
2636,-0.77,1644583273.046875,P02,D10,1,0,0
2637,-0.24,1644583273.0625,P02,D10,1,0,0
2638,-0.07,1644583273.078125,P02,D10,1,0,0
2639,-0.33,1644583273.09375,P02,D10,1,0,0
2640,-0.9,1644583273.109375,P02,D10,1,0,0
2641,-1.49,1644583273.125,P02,D10,1,0,0
2642,-1.8,1644583273.140625,P02,D10,1,0,0
2643,-1.57,1644583273.15625,P02,D10,1,0,0
2644,-0.8,1644583273.171875,P02,D10,1,0,0
2645,0.29,1644583273.1875,P02,D10,1,0,0
2646,1.36,1644583273.203125,P02,D10,1,0,0
2647,2.04,1644583273.21875,P02,D10,1,0,0
2648,2.16,1644583273.234375,P02,D10,1,0,0
2649,1.8,1644583273.25,P02,D10,1,0,0
2650,1.27,1644583273.265625,P02,D10,1,0,0
2651,0.95,1644583273.28125,P02,D10,1,0,0
2652,1.11,1644583273.296875,P02,D10,1,0,0
2653,1.72,1644583273.3125,P02,D10,1,0,0
2654,2.39,1644583273.328125,P02,D10,1,0,0
2655,2.59,1644583273.34375,P02,D10,1,0,0
2656,1.79,1644583273.359375,P02,D10,1,0,0
2657,-0.28,1644583273.375,P02,D10,1,0,0
2658,-3.52,1644583273.390625,P02,D10,1,0,0
2659,-7.55,1644583273.40625,P02,D10,1,0,0
2660,-11.85,1644583273.421875,P02,D10,1,0,0
2661,-15.81,1644583273.4375,P02,D10,1,0,0
2662,-18.65,1644583273.453125,P02,D10,1,0,0
2663,-19.5,1644583273.46875,P02,D10,1,0,0
2664,-17.54,1644583273.484375,P02,D10,1,0,0
2665,-12.48,1644583273.5,P02,D10,1,0,0
2666,-4.89,1644583273.515625,P02,D10,1,0,0
2667,3.62,1644583273.53125,P02,D10,1,0,0
2668,10.84,1644583273.546875,P02,D10,1,0,0
2669,14.81,1644583273.5625,P02,D10,1,0,0
2670,14.66,1644583273.578125,P02,D10,1,0,0
2671,11.04,1644583273.59375,P02,D10,1,0,0
2672,5.76,1644583273.609375,P02,D10,1,0,0
2673,0.95,1644583273.625,P02,D10,1,0,0
2674,-1.94,1644583273.640625,P02,D10,1,0,0
2675,-2.58,1644583273.65625,P02,D10,1,0,0
2676,-1.66,1644583273.671875,P02,D10,1,0,0
2677,-0.27,1644583273.6875,P02,D10,1,0,0
2678,0.77,1644583273.703125,P02,D10,1,0,0
2679,1.22,1644583273.71875,P02,D10,1,0,0
2680,1.26,1644583273.734375,P02,D10,1,0,0
2681,1.1,1644583273.75,P02,D10,1,0,0
2682,0.69,1644583273.765625,P02,D10,1,0,0
2683,-0.23,1644583273.78125,P02,D10,1,0,0
2684,-1.88,1644583273.796875,P02,D10,1,0,0
2685,-4.12,1644583273.8125,P02,D10,1,0,0
2686,-6.37,1644583273.828125,P02,D10,1,0,0
2687,-7.79,1644583273.84375,P02,D10,1,0,0
2688,-7.69,1644583273.859375,P02,D10,1,0,0
2689,-5.92,1644583273.875,P02,D10,1,0,0
2690,-2.97,1644583273.890625,P02,D10,1,0,0
2691,0.25,1644583273.90625,P02,D10,1,0,0
2692,2.77,1644583273.921875,P02,D10,1,0,0
2693,3.99,1644583273.9375,P02,D10,1,0,0
2694,3.9,1644583273.953125,P02,D10,1,0,0
2695,3.01,1644583273.96875,P02,D10,1,0,0
2696,2.07,1644583273.984375,P02,D10,1,0,0
2697,1.68,1644583274.0,P02,D10,1,0,0
2698,2.07,1644583274.015625,P02,D10,1,0,0
2699,3.05,1644583274.03125,P02,D10,1,0,0
2700,4.13,1644583274.046875,P02,D10,1,0,0
2701,4.79,1644583274.0625,P02,D10,1,0,0
2702,4.74,1644583274.078125,P02,D10,1,0,0
2703,3.99,1644583274.09375,P02,D10,1,0,0
2704,2.79,1644583274.109375,P02,D10,1,0,0
2705,1.49,1644583274.125,P02,D10,1,0,0
2706,0.33,1644583274.140625,P02,D10,1,0,0
2707,-0.6,1644583274.15625,P02,D10,1,0,0
2708,-1.32,1644583274.171875,P02,D10,1,0,0
2709,-1.86,1644583274.1875,P02,D10,1,0,0
2710,-2.2,1644583274.203125,P02,D10,1,0,0
2711,-2.27,1644583274.21875,P02,D10,1,0,0
2712,-2.03,1644583274.234375,P02,D10,1,0,0
2713,-1.51,1644583274.25,P02,D10,1,0,0
2714,-0.89,1644583274.265625,P02,D10,1,0,0
2715,-0.37,1644583274.28125,P02,D10,1,0,0
2716,-0.11,1644583274.296875,P02,D10,1,0,0
2717,-0.16,1644583274.3125,P02,D10,1,0,0
2718,-0.43,1644583274.328125,P02,D10,1,0,0
2719,-0.75,1644583274.34375,P02,D10,1,0,0
2720,-0.94,1644583274.359375,P02,D10,1,0,0
2721,-0.89,1644583274.375,P02,D10,1,0,0
2722,-0.56,1644583274.390625,P02,D10,1,0,0
2723,-0.01,1644583274.40625,P02,D10,1,0,0
2724,0.62,1644583274.421875,P02,D10,1,0,0
2725,1.2,1644583274.4375,P02,D10,1,0,0
2726,1.59,1644583274.453125,P02,D10,1,0,0
2727,1.73,1644583274.46875,P02,D10,1,0,0
2728,1.62,1644583274.484375,P02,D10,1,0,0
2729,1.34,1644583274.5,P02,D10,1,0,0
2730,1.03,1644583274.515625,P02,D10,1,0,0
2731,0.8,1644583274.53125,P02,D10,1,0,0
2732,0.71,1644583274.546875,P02,D10,1,0,0
2733,0.74,1644583274.5625,P02,D10,1,0,0
2734,0.8,1644583274.578125,P02,D10,1,0,0
2735,0.79,1644583274.59375,P02,D10,1,0,0
2736,0.62,1644583274.609375,P02,D10,1,0,0
2737,0.33,1644583274.625,P02,D10,1,0,0
2738,0.02,1644583274.640625,P02,D10,1,0,0
2739,-0.2,1644583274.65625,P02,D10,1,0,0
2740,-0.21,1644583274.671875,P02,D10,1,0,0
2741,-0.02,1644583274.6875,P02,D10,1,0,0
2742,0.27,1644583274.703125,P02,D10,1,0,0
2743,0.52,1644583274.71875,P02,D10,1,0,0
2744,0.61,1644583274.734375,P02,D10,1,0,0
2745,0.5,1644583274.75,P02,D10,1,0,0
2746,0.25,1644583274.765625,P02,D10,1,0,0
2747,-0.02,1644583274.78125,P02,D10,1,0,0
2748,-0.23,1644583274.796875,P02,D10,1,0,0
2749,-0.36,1644583274.8125,P02,D10,1,0,0
2750,-0.46,1644583274.828125,P02,D10,1,0,0
2751,-0.61,1644583274.84375,P02,D10,1,0,0
2752,-0.78,1644583274.859375,P02,D10,1,0,0
2753,-0.88,1644583274.875,P02,D10,1,0,0
2754,-0.79,1644583274.890625,P02,D10,1,0,0
2755,-0.44,1644583274.90625,P02,D10,1,0,0
2756,0.12,1644583274.921875,P02,D10,1,0,0
2757,0.73,1644583274.9375,P02,D10,1,0,0
2758,1.19,1644583274.953125,P02,D10,1,0,0
2759,1.38,1644583274.96875,P02,D10,1,0,0
2760,1.28,1644583274.984375,P02,D10,1,0,0
2761,0.99,1644583275.0,P02,D10,1,0,0
2762,0.61,1644583275.015625,P02,D10,1,0,0
2763,0.19,1644583275.03125,P02,D10,1,0,0
2764,-0.26,1644583275.046875,P02,D10,1,0,0
2765,-0.73,1644583275.0625,P02,D10,1,0,0
2766,-1.21,1644583275.078125,P02,D10,1,0,0
2767,-1.6,1644583275.09375,P02,D10,1,0,0
2768,-1.79,1644583275.109375,P02,D10,1,0,0
2769,-1.7,1644583275.125,P02,D10,1,0,0
2770,-1.32,1644583275.140625,P02,D10,1,0,0
2771,-0.74,1644583275.15625,P02,D10,1,0,0
2772,-0.1,1644583275.171875,P02,D10,1,0,0
2773,0.47,1644583275.1875,P02,D10,1,0,0
2774,0.9,1644583275.203125,P02,D10,1,0,0
2775,1.17,1644583275.21875,P02,D10,1,0,0
2776,1.3,1644583275.234375,P02,D10,1,0,0
2777,1.3,1644583275.25,P02,D10,1,0,0
2778,1.18,1644583275.265625,P02,D10,1,0,0
2779,0.94,1644583275.28125,P02,D10,1,0,0
2780,0.58,1644583275.296875,P02,D10,1,0,0
2781,0.1,1644583275.3125,P02,D10,1,0,0
2782,-0.43,1644583275.328125,P02,D10,1,0,0
2783,-0.98,1644583275.34375,P02,D10,1,0,0
2784,-1.46,1644583275.359375,P02,D10,1,0,0
2785,-1.81,1644583275.375,P02,D10,1,0,0
2786,-1.99,1644583275.390625,P02,D10,1,0,0
2787,-1.98,1644583275.40625,P02,D10,1,0,0
2788,-1.79,1644583275.421875,P02,D10,1,0,0
2789,-1.51,1644583275.4375,P02,D10,1,0,0
2790,-1.21,1644583275.453125,P02,D10,1,0,0
2791,-0.95,1644583275.46875,P02,D10,1,0,0
2792,-0.7,1644583275.484375,P02,D10,1,0,0
2793,-0.4,1644583275.5,P02,D10,1,0,0
2794,0.03,1644583275.515625,P02,D10,1,0,0
2795,0.61,1644583275.53125,P02,D10,1,0,0
2796,1.23,1644583275.546875,P02,D10,1,0,0
2797,1.73,1644583275.5625,P02,D10,1,0,0
2798,1.96,1644583275.578125,P02,D10,1,0,0
2799,1.85,1644583275.59375,P02,D10,1,0,0
2800,1.51,1644583275.609375,P02,D10,1,0,0
2801,1.11,1644583275.625,P02,D10,1,0,0
2802,0.81,1644583275.640625,P02,D10,1,0,0
2803,0.67,1644583275.65625,P02,D10,1,0,0
2804,0.63,1644583275.671875,P02,D10,1,0,0
2805,0.57,1644583275.6875,P02,D10,1,0,0
2806,0.42,1644583275.703125,P02,D10,1,0,0
2807,0.2,1644583275.71875,P02,D10,1,0,0
2808,-0.0,1644583275.734375,P02,D10,1,0,0
2809,-0.1,1644583275.75,P02,D10,1,0,0
2810,-0.07,1644583275.765625,P02,D10,1,0,0
2811,0.03,1644583275.78125,P02,D10,1,0,0
2812,0.11,1644583275.796875,P02,D10,1,0,0
2813,0.11,1644583275.8125,P02,D10,1,0,0
2814,0.05,1644583275.828125,P02,D10,1,0,0
2815,0.0,1644583275.84375,P02,D10,1,0,0
2816,0.0,1644583275.859375,P02,D10,1,0,0
2817,0.05,1644583275.875,P02,D10,1,0,0
2818,0.12,1644583275.890625,P02,D10,1,0,0
2819,0.16,1644583275.90625,P02,D10,1,0,0
2820,0.18,1644583275.921875,P02,D10,1,0,0
2821,0.21,1644583275.9375,P02,D10,1,0,0
2822,0.26,1644583275.953125,P02,D10,1,0,0
2823,0.32,1644583275.96875,P02,D10,1,0,0
2824,0.32,1644583275.984375,P02,D10,1,0,0
2825,0.19,1644583276.0,P02,D10,1,0,0
2826,-0.1,1644583276.015625,P02,D10,1,0,0
2827,-0.5,1644583276.03125,P02,D10,1,0,0
2828,-0.9,1644583276.046875,P02,D10,1,0,0
