,data,timestamp,participant,document,val,arou,eng
0,31.59,1644581079.234375,P02,D03,0,1,1
1,26.61,1644581079.25,P02,D03,0,1,1
2,21.76,1644581079.265625,P02,D03,0,1,1
3,17.03,1644581079.28125,P02,D03,0,1,1
4,12.39,1644581079.296875,P02,D03,0,1,1
5,7.88,1644581079.3125,P02,D03,0,1,1
6,3.67,1644581079.328125,P02,D03,0,1,1
7,-0.03,1644581079.34375,P02,D03,0,1,1
8,-3.06,1644581079.359375,P02,D03,0,1,1
9,-5.43,1644581079.375,P02,D03,0,1,1
10,-7.31,1644581079.390625,P02,D03,0,1,1
11,-8.94,1644581079.40625,P02,D03,0,1,1
12,-10.49,1644581079.421875,P02,D03,0,1,1
13,-12.01,1644581079.4375,P02,D03,0,1,1
14,-13.37,1644581079.453125,P02,D03,0,1,1
15,-14.37,1644581079.46875,P02,D03,0,1,1
16,-14.85,1644581079.484375,P02,D03,0,1,1
17,-14.8,1644581079.5,P02,D03,0,1,1
18,-14.31,1644581079.515625,P02,D03,0,1,1
19,-13.58,1644581079.53125,P02,D03,0,1,1
20,-12.78,1644581079.546875,P02,D03,0,1,1
21,-12.04,1644581079.5625,P02,D03,0,1,1
22,-11.4,1644581079.578125,P02,D03,0,1,1
23,-10.82,1644581079.59375,P02,D03,0,1,1
24,-10.3,1644581079.609375,P02,D03,0,1,1
25,-9.79,1644581079.625,P02,D03,0,1,1
26,-9.3,1644581079.640625,P02,D03,0,1,1
27,-8.8,1644581079.65625,P02,D03,0,1,1
28,-8.28,1644581079.671875,P02,D03,0,1,1
29,-7.75,1644581079.6875,P02,D03,0,1,1
30,-7.25,1644581079.703125,P02,D03,0,1,1
31,-6.86,1644581079.71875,P02,D03,0,1,1
32,-6.65,1644581079.734375,P02,D03,0,1,1
33,-6.62,1644581079.75,P02,D03,0,1,1
34,-6.74,1644581079.765625,P02,D03,0,1,1
35,-6.9,1644581079.78125,P02,D03,0,1,1
36,-6.99,1644581079.796875,P02,D03,0,1,1
37,-6.89,1644581079.8125,P02,D03,0,1,1
38,-6.53,1644581079.828125,P02,D03,0,1,1
39,-5.89,1644581079.84375,P02,D03,0,1,1
40,-4.92,1644581079.859375,P02,D03,0,1,1
41,-3.66,1644581079.875,P02,D03,0,1,1
42,-2.15,1644581079.890625,P02,D03,0,1,1
43,-0.51,1644581079.90625,P02,D03,0,1,1
44,1.09,1644581079.921875,P02,D03,0,1,1
45,2.46,1644581079.9375,P02,D03,0,1,1
46,3.43,1644581079.953125,P02,D03,0,1,1
47,3.84,1644581079.96875,P02,D03,0,1,1
48,3.62,1644581079.984375,P02,D03,0,1,1
49,2.82,1644581080.0,P02,D03,0,1,1
50,1.59,1644581080.015625,P02,D03,0,1,1
51,0.18,1644581080.03125,P02,D03,0,1,1
52,-1.13,1644581080.046875,P02,D03,0,1,1
53,-2.13,1644581080.0625,P02,D03,0,1,1
54,-2.72,1644581080.078125,P02,D03,0,1,1
55,-2.9,1644581080.09375,P02,D03,0,1,1
56,-2.8,1644581080.109375,P02,D03,0,1,1
57,-2.55,1644581080.125,P02,D03,0,1,1
58,-2.24,1644581080.140625,P02,D03,0,1,1
59,-1.94,1644581080.15625,P02,D03,0,1,1
60,-1.68,1644581080.171875,P02,D03,0,1,1
61,-1.5,1644581080.1875,P02,D03,0,1,1
62,-1.42,1644581080.203125,P02,D03,0,1,1
63,-1.42,1644581080.21875,P02,D03,0,1,1
64,-1.44,1644581080.234375,P02,D03,0,1,1
65,-1.39,1644581080.25,P02,D03,0,1,1
66,-1.19,1644581080.265625,P02,D03,0,1,1
67,-0.82,1644581080.28125,P02,D03,0,1,1
68,-0.33,1644581080.296875,P02,D03,0,1,1
69,0.16,1644581080.3125,P02,D03,0,1,1
70,0.53,1644581080.328125,P02,D03,0,1,1
71,0.76,1644581080.34375,P02,D03,0,1,1
72,0.92,1644581080.359375,P02,D03,0,1,1
73,1.13,1644581080.375,P02,D03,0,1,1
74,1.51,1644581080.390625,P02,D03,0,1,1
75,2.02,1644581080.40625,P02,D03,0,1,1
76,2.54,1644581080.421875,P02,D03,0,1,1
77,2.83,1644581080.4375,P02,D03,0,1,1
78,2.63,1644581080.453125,P02,D03,0,1,1
79,1.8,1644581080.46875,P02,D03,0,1,1
80,0.38,1644581080.484375,P02,D03,0,1,1
81,-1.44,1644581080.5,P02,D03,0,1,1
82,-3.31,1644581080.515625,P02,D03,0,1,1
83,-4.85,1644581080.53125,P02,D03,0,1,1
84,-5.76,1644581080.546875,P02,D03,0,1,1
85,-5.85,1644581080.5625,P02,D03,0,1,1
86,-5.13,1644581080.578125,P02,D03,0,1,1
87,-3.74,1644581080.59375,P02,D03,0,1,1
88,-1.96,1644581080.609375,P02,D03,0,1,1
89,-0.12,1644581080.625,P02,D03,0,1,1
90,1.45,1644581080.640625,P02,D03,0,1,1
91,2.48,1644581080.65625,P02,D03,0,1,1
92,2.82,1644581080.671875,P02,D03,0,1,1
93,2.47,1644581080.6875,P02,D03,0,1,1
94,1.57,1644581080.703125,P02,D03,0,1,1
95,0.37,1644581080.71875,P02,D03,0,1,1
96,-0.82,1644581080.734375,P02,D03,0,1,1
97,-1.78,1644581080.75,P02,D03,0,1,1
98,-2.35,1644581080.765625,P02,D03,0,1,1
99,-2.52,1644581080.78125,P02,D03,0,1,1
100,-2.36,1644581080.796875,P02,D03,0,1,1
101,-1.96,1644581080.8125,P02,D03,0,1,1
102,-1.41,1644581080.828125,P02,D03,0,1,1
103,-0.8,1644581080.84375,P02,D03,0,1,1
104,-0.2,1644581080.859375,P02,D03,0,1,1
105,0.3,1644581080.875,P02,D03,0,1,1
106,0.64,1644581080.890625,P02,D03,0,1,1
107,0.82,1644581080.90625,P02,D03,0,1,1
108,0.89,1644581080.921875,P02,D03,0,1,1
109,0.94,1644581080.9375,P02,D03,0,1,1
110,1.05,1644581080.953125,P02,D03,0,1,1
111,1.25,1644581080.96875,P02,D03,0,1,1
112,1.51,1644581080.984375,P02,D03,0,1,1
113,1.76,1644581081.0,P02,D03,0,1,1
114,1.9,1644581081.015625,P02,D03,0,1,1
115,1.88,1644581081.03125,P02,D03,0,1,1
116,1.71,1644581081.046875,P02,D03,0,1,1
117,1.41,1644581081.0625,P02,D03,0,1,1
118,1.03,1644581081.078125,P02,D03,0,1,1
119,0.63,1644581081.09375,P02,D03,0,1,1
120,0.27,1644581081.109375,P02,D03,0,1,1
121,-0.01,1644581081.125,P02,D03,0,1,1
122,-0.2,1644581081.140625,P02,D03,0,1,1
123,-0.27,1644581081.15625,P02,D03,0,1,1
124,-0.23,1644581081.171875,P02,D03,0,1,1
125,-0.12,1644581081.1875,P02,D03,0,1,1
126,0.05,1644581081.203125,P02,D03,0,1,1
127,0.21,1644581081.21875,P02,D03,0,1,1
128,0.31,1644581081.234375,P02,D03,0,1,1
129,0.3,1644581081.25,P02,D03,0,1,1
130,0.14,1644581081.265625,P02,D03,0,1,1
131,-0.15,1644581081.28125,P02,D03,0,1,1
132,-0.52,1644581081.296875,P02,D03,0,1,1
133,-0.88,1644581081.3125,P02,D03,0,1,1
134,-1.12,1644581081.328125,P02,D03,0,1,1
135,-1.18,1644581081.34375,P02,D03,0,1,1
136,-1.03,1644581081.359375,P02,D03,0,1,1
137,-0.7,1644581081.375,P02,D03,0,1,1
138,-0.27,1644581081.390625,P02,D03,0,1,1
139,0.12,1644581081.40625,P02,D03,0,1,1
140,0.37,1644581081.421875,P02,D03,0,1,1
141,0.41,1644581081.4375,P02,D03,0,1,1
142,0.25,1644581081.453125,P02,D03,0,1,1
143,-0.02,1644581081.46875,P02,D03,0,1,1
144,-0.25,1644581081.484375,P02,D03,0,1,1
145,-0.31,1644581081.5,P02,D03,0,1,1
146,-0.15,1644581081.515625,P02,D03,0,1,1
147,0.2,1644581081.53125,P02,D03,0,1,1
148,0.62,1644581081.546875,P02,D03,0,1,1
149,0.96,1644581081.5625,P02,D03,0,1,1
150,1.14,1644581081.578125,P02,D03,0,1,1
151,1.1,1644581081.59375,P02,D03,0,1,1
152,0.85,1644581081.609375,P02,D03,0,1,1
153,0.45,1644581081.625,P02,D03,0,1,1
154,-0.06,1644581081.640625,P02,D03,0,1,1
155,-0.61,1644581081.65625,P02,D03,0,1,1
156,-1.11,1644581081.671875,P02,D03,0,1,1
157,-1.49,1644581081.6875,P02,D03,0,1,1
158,-1.66,1644581081.703125,P02,D03,0,1,1
159,-1.59,1644581081.71875,P02,D03,0,1,1
160,-1.32,1644581081.734375,P02,D03,0,1,1
161,-0.97,1644581081.75,P02,D03,0,1,1
162,-0.65,1644581081.765625,P02,D03,0,1,1
163,-0.48,1644581081.78125,P02,D03,0,1,1
164,-0.49,1644581081.796875,P02,D03,0,1,1
165,-0.62,1644581081.8125,P02,D03,0,1,1
166,-0.75,1644581081.828125,P02,D03,0,1,1
167,-0.77,1644581081.84375,P02,D03,0,1,1
168,-0.67,1644581081.859375,P02,D03,0,1,1
169,-0.52,1644581081.875,P02,D03,0,1,1
170,-0.46,1644581081.890625,P02,D03,0,1,1
171,-0.61,1644581081.90625,P02,D03,0,1,1
172,-0.95,1644581081.921875,P02,D03,0,1,1
173,-1.36,1644581081.9375,P02,D03,0,1,1
174,-1.67,1644581081.953125,P02,D03,0,1,1
175,-1.72,1644581081.96875,P02,D03,0,1,1
176,-1.49,1644581081.984375,P02,D03,0,1,1
177,-1.07,1644581082.0,P02,D03,0,1,1
178,-0.67,1644581082.015625,P02,D03,0,1,1
179,-0.48,1644581082.03125,P02,D03,0,1,1
180,-0.62,1644581082.046875,P02,D03,0,1,1
181,-1.11,1644581082.0625,P02,D03,0,1,1
182,-1.9,1644581082.078125,P02,D03,0,1,1
183,-2.85,1644581082.09375,P02,D03,0,1,1
184,-3.82,1644581082.109375,P02,D03,0,1,1
185,-4.64,1644581082.125,P02,D03,0,1,1
186,-5.16,1644581082.140625,P02,D03,0,1,1
187,-5.3,1644581082.15625,P02,D03,0,1,1
188,-5.1,1644581082.171875,P02,D03,0,1,1
189,-4.69,1644581082.1875,P02,D03,0,1,1
190,-4.26,1644581082.203125,P02,D03,0,1,1
191,-3.95,1644581082.21875,P02,D03,0,1,1
192,-3.74,1644581082.234375,P02,D03,0,1,1
193,-3.42,1644581082.25,P02,D03,0,1,1
194,-2.65,1644581082.265625,P02,D03,0,1,1
195,-1.1,1644581082.28125,P02,D03,0,1,1
196,1.37,1644581082.296875,P02,D03,0,1,1
197,4.58,1644581082.3125,P02,D03,0,1,1
198,8.05,1644581082.328125,P02,D03,0,1,1
199,11.03,1644581082.34375,P02,D03,0,1,1
200,12.81,1644581082.359375,P02,D03,0,1,1
201,12.91,1644581082.375,P02,D03,0,1,1
202,11.2,1644581082.390625,P02,D03,0,1,1
203,7.9,1644581082.40625,P02,D03,0,1,1
204,3.43,1644581082.421875,P02,D03,0,1,1
205,-1.74,1644581082.4375,P02,D03,0,1,1
206,-7.2,1644581082.453125,P02,D03,0,1,1
207,-12.59,1644581082.46875,P02,D03,0,1,1
208,-17.59,1644581082.484375,P02,D03,0,1,1
209,-21.86,1644581082.5,P02,D03,0,1,1
210,-25.17,1644581082.515625,P02,D03,0,1,1
211,-27.5,1644581082.53125,P02,D03,0,1,1
212,-29.1,1644581082.546875,P02,D03,0,1,1
213,-30.52,1644581082.5625,P02,D03,0,1,1
214,-32.36,1644581082.578125,P02,D03,0,1,1
215,-35.13,1644581082.59375,P02,D03,0,1,1
216,-39.04,1644581082.609375,P02,D03,0,1,1
217,-43.91,1644581082.625,P02,D03,0,1,1
218,-49.29,1644581082.640625,P02,D03,0,1,1
219,-54.59,1644581082.65625,P02,D03,0,1,1
220,-59.27,1644581082.671875,P02,D03,0,1,1
221,-63.05,1644581082.6875,P02,D03,0,1,1
222,-65.99,1644581082.703125,P02,D03,0,1,1
223,-68.56,1644581082.71875,P02,D03,0,1,1
224,-71.44,1644581082.734375,P02,D03,0,1,1
225,-75.31,1644581082.75,P02,D03,0,1,1
226,-80.58,1644581082.765625,P02,D03,0,1,1
227,-87.19,1644581082.78125,P02,D03,0,1,1
228,-94.57,1644581082.796875,P02,D03,0,1,1
229,-101.88,1644581082.8125,P02,D03,0,1,1
230,-108.35,1644581082.828125,P02,D03,0,1,1
231,-113.56,1644581082.84375,P02,D03,0,1,1
232,-117.64,1644581082.859375,P02,D03,0,1,1
233,-121.18,1644581082.875,P02,D03,0,1,1
234,-124.96,1644581082.890625,P02,D03,0,1,1
235,-129.8,1644581082.90625,P02,D03,0,1,1
236,-136.33,1644581082.921875,P02,D03,0,1,1
237,-144.97,1644581082.9375,P02,D03,0,1,1
238,-155.74,1644581082.953125,P02,D03,0,1,1
239,-168.0,1644581082.96875,P02,D03,0,1,1
240,-180.01,1644581082.984375,P02,D03,0,1,1
241,-188.98,1644581083.0,P02,D03,0,1,1
242,-191.5,1644581083.015625,P02,D03,0,1,1
243,-184.49,1644581083.03125,P02,D03,0,1,1
244,-166.31,1644581083.046875,P02,D03,0,1,1
245,-137.38,1644581083.0625,P02,D03,0,1,1
246,-99.85,1644581083.078125,P02,D03,0,1,1
247,-56.55,1644581083.09375,P02,D03,0,1,1
248,-9.91,1644581083.109375,P02,D03,0,1,1
249,38.59,1644581083.125,P02,D03,0,1,1
250,87.88,1644581083.140625,P02,D03,0,1,1
251,136.36,1644581083.15625,P02,D03,0,1,1
252,181.33,1644581083.171875,P02,D03,0,1,1
253,219.2,1644581083.1875,P02,D03,0,1,1
254,246.75,1644581083.203125,P02,D03,0,1,1
255,262.56,1644581083.21875,P02,D03,0,1,1
256,267.74,1644581083.234375,P02,D03,0,1,1
257,265.48,1644581083.25,P02,D03,0,1,1
258,259.79,1644581083.265625,P02,D03,0,1,1
259,253.97,1644581083.28125,P02,D03,0,1,1
260,249.85,1644581083.296875,P02,D03,0,1,1
261,247.71,1644581083.3125,P02,D03,0,1,1
262,246.93,1644581083.328125,P02,D03,0,1,1
263,246.77,1644581083.34375,P02,D03,0,1,1
264,246.74,1644581083.359375,P02,D03,0,1,1
265,246.67,1644581083.375,P02,D03,0,1,1
266,246.45,1644581083.390625,P02,D03,0,1,1
267,246.01,1644581083.40625,P02,D03,0,1,1
268,245.41,1644581083.421875,P02,D03,0,1,1
269,245.03,1644581083.4375,P02,D03,0,1,1
270,245.72,1644581083.453125,P02,D03,0,1,1
271,248.7,1644581083.46875,P02,D03,0,1,1
272,255.13,1644581083.484375,P02,D03,0,1,1
273,265.36,1644581083.5,P02,D03,0,1,1
274,278.23,1644581083.515625,P02,D03,0,1,1
275,290.85,1644581083.53125,P02,D03,0,1,1
276,299.14,1644581083.546875,P02,D03,0,1,1
277,299.03,1644581083.5625,P02,D03,0,1,1
278,287.79,1644581083.578125,P02,D03,0,1,1
279,265.09,1644581083.59375,P02,D03,0,1,1
280,232.98,1644581083.609375,P02,D03,0,1,1
281,194.91,1644581083.625,P02,D03,0,1,1
282,154.38,1644581083.640625,P02,D03,0,1,1
283,113.56,1644581083.65625,P02,D03,0,1,1
284,72.85,1644581083.671875,P02,D03,0,1,1
285,31.15,1644581083.6875,P02,D03,0,1,1
286,-13.06,1644581083.703125,P02,D03,0,1,1
287,-60.33,1644581083.71875,P02,D03,0,1,1
288,-109.36,1644581083.734375,P02,D03,0,1,1
289,-156.84,1644581083.75,P02,D03,0,1,1
290,-198.24,1644581083.765625,P02,D03,0,1,1
291,-229.28,1644581083.78125,P02,D03,0,1,1
292,-247.4,1644581083.796875,P02,D03,0,1,1
293,-252.62,1644581083.8125,P02,D03,0,1,1
294,-247.38,1644581083.828125,P02,D03,0,1,1
295,-235.5,1644581083.84375,P02,D03,0,1,1
296,-220.7,1644581083.859375,P02,D03,0,1,1
297,-205.51,1644581083.875,P02,D03,0,1,1
298,-191.09,1644581083.890625,P02,D03,0,1,1
299,-177.64,1644581083.90625,P02,D03,0,1,1
300,-165.19,1644581083.921875,P02,D03,0,1,1
301,-154.03,1644581083.9375,P02,D03,0,1,1
302,-144.56,1644581083.953125,P02,D03,0,1,1
303,-136.9,1644581083.96875,P02,D03,0,1,1
304,-130.5,1644581083.984375,P02,D03,0,1,1
305,-124.27,1644581084.0,P02,D03,0,1,1
306,-117.04,1644581084.015625,P02,D03,0,1,1
307,-108.22,1644581084.03125,P02,D03,0,1,1
308,-98.03,1644581084.046875,P02,D03,0,1,1
309,-87.47,1644581084.0625,P02,D03,0,1,1
310,-77.83,1644581084.078125,P02,D03,0,1,1
311,-70.12,1644581084.09375,P02,D03,0,1,1
312,-64.62,1644581084.109375,P02,D03,0,1,1
313,-60.82,1644581084.125,P02,D03,0,1,1
314,-57.66,1644581084.140625,P02,D03,0,1,1
315,-54.03,1644581084.15625,P02,D03,0,1,1
316,-49.25,1644581084.171875,P02,D03,0,1,1
317,-43.31,1644581084.1875,P02,D03,0,1,1
318,-36.82,1644581084.203125,P02,D03,0,1,1
319,-30.73,1644581084.21875,P02,D03,0,1,1
320,-25.85,1644581084.234375,P02,D03,0,1,1
321,-22.53,1644581084.25,P02,D03,0,1,1
322,-20.55,1644581084.265625,P02,D03,0,1,1
323,-19.28,1644581084.28125,P02,D03,0,1,1
324,-17.98,1644581084.296875,P02,D03,0,1,1
325,-16.14,1644581084.3125,P02,D03,0,1,1
326,-13.66,1644581084.328125,P02,D03,0,1,1
327,-10.82,1644581084.34375,P02,D03,0,1,1
328,-8.09,1644581084.359375,P02,D03,0,1,1
329,-5.89,1644581084.375,P02,D03,0,1,1
330,-4.38,1644581084.390625,P02,D03,0,1,1
331,-3.46,1644581084.40625,P02,D03,0,1,1
332,-2.85,1644581084.421875,P02,D03,0,1,1
333,-2.27,1644581084.4375,P02,D03,0,1,1
334,-1.57,1644581084.453125,P02,D03,0,1,1
335,-0.74,1644581084.46875,P02,D03,0,1,1
336,0.12,1644581084.484375,P02,D03,0,1,1
337,0.88,1644581084.5,P02,D03,0,1,1
338,1.5,1644581084.515625,P02,D03,0,1,1
339,1.99,1644581084.53125,P02,D03,0,1,1
340,2.37,1644581084.546875,P02,D03,0,1,1
341,2.68,1644581084.5625,P02,D03,0,1,1
342,2.9,1644581084.578125,P02,D03,0,1,1
343,3.03,1644581084.59375,P02,D03,0,1,1
344,3.06,1644581084.609375,P02,D03,0,1,1
345,3.01,1644581084.625,P02,D03,0,1,1
346,2.95,1644581084.640625,P02,D03,0,1,1
347,2.92,1644581084.65625,P02,D03,0,1,1
348,2.95,1644581084.671875,P02,D03,0,1,1
349,3.04,1644581084.6875,P02,D03,0,1,1
350,3.18,1644581084.703125,P02,D03,0,1,1
351,3.32,1644581084.71875,P02,D03,0,1,1
352,3.43,1644581084.734375,P02,D03,0,1,1
353,3.49,1644581084.75,P02,D03,0,1,1
354,3.48,1644581084.765625,P02,D03,0,1,1
355,3.38,1644581084.78125,P02,D03,0,1,1
356,3.2,1644581084.796875,P02,D03,0,1,1
357,2.98,1644581084.8125,P02,D03,0,1,1
358,2.76,1644581084.828125,P02,D03,0,1,1
359,2.62,1644581084.84375,P02,D03,0,1,1
360,2.61,1644581084.859375,P02,D03,0,1,1
361,2.78,1644581084.875,P02,D03,0,1,1
362,3.08,1644581084.890625,P02,D03,0,1,1
363,3.41,1644581084.90625,P02,D03,0,1,1
364,3.59,1644581084.921875,P02,D03,0,1,1
365,3.43,1644581084.9375,P02,D03,0,1,1
366,2.76,1644581084.953125,P02,D03,0,1,1
367,1.59,1644581084.96875,P02,D03,0,1,1
368,0.02,1644581084.984375,P02,D03,0,1,1
369,-1.65,1644581085.0,P02,D03,0,1,1
370,-3.14,1644581085.015625,P02,D03,0,1,1
371,-4.21,1644581085.03125,P02,D03,0,1,1
372,-4.82,1644581085.046875,P02,D03,0,1,1
373,-5.11,1644581085.0625,P02,D03,0,1,1
374,-5.29,1644581085.078125,P02,D03,0,1,1
375,-5.57,1644581085.09375,P02,D03,0,1,1
376,-6.06,1644581085.109375,P02,D03,0,1,1
377,-6.72,1644581085.125,P02,D03,0,1,1
378,-7.4,1644581085.140625,P02,D03,0,1,1
379,-7.94,1644581085.15625,P02,D03,0,1,1
380,-8.16,1644581085.171875,P02,D03,0,1,1
381,-7.98,1644581085.1875,P02,D03,0,1,1
382,-7.39,1644581085.203125,P02,D03,0,1,1
383,-6.47,1644581085.21875,P02,D03,0,1,1
384,-5.43,1644581085.234375,P02,D03,0,1,1
385,-4.54,1644581085.25,P02,D03,0,1,1
386,-4.05,1644581085.265625,P02,D03,0,1,1
387,-4.07,1644581085.28125,P02,D03,0,1,1
388,-4.56,1644581085.296875,P02,D03,0,1,1
389,-5.25,1644581085.3125,P02,D03,0,1,1
390,-5.82,1644581085.328125,P02,D03,0,1,1
391,-6.02,1644581085.34375,P02,D03,0,1,1
392,-5.78,1644581085.359375,P02,D03,0,1,1
393,-5.22,1644581085.375,P02,D03,0,1,1
394,-4.56,1644581085.390625,P02,D03,0,1,1
395,-3.96,1644581085.40625,P02,D03,0,1,1
396,-3.48,1644581085.421875,P02,D03,0,1,1
397,-3.0,1644581085.4375,P02,D03,0,1,1
398,-2.48,1644581085.453125,P02,D03,0,1,1
399,-1.96,1644581085.46875,P02,D03,0,1,1
400,-1.7,1644581085.484375,P02,D03,0,1,1
401,-2.06,1644581085.5,P02,D03,0,1,1
402,-3.24,1644581085.515625,P02,D03,0,1,1
403,-5.16,1644581085.53125,P02,D03,0,1,1
404,-7.39,1644581085.546875,P02,D03,0,1,1
405,-9.32,1644581085.5625,P02,D03,0,1,1
406,-10.42,1644581085.578125,P02,D03,0,1,1
407,-10.55,1644581085.59375,P02,D03,0,1,1
408,-9.98,1644581085.609375,P02,D03,0,1,1
409,-9.29,1644581085.625,P02,D03,0,1,1
410,-9.03,1644581085.640625,P02,D03,0,1,1
411,-9.5,1644581085.65625,P02,D03,0,1,1
412,-10.54,1644581085.671875,P02,D03,0,1,1
413,-11.73,1644581085.6875,P02,D03,0,1,1
414,-12.51,1644581085.703125,P02,D03,0,1,1
415,-12.54,1644581085.71875,P02,D03,0,1,1
416,-11.82,1644581085.734375,P02,D03,0,1,1
417,-10.69,1644581085.75,P02,D03,0,1,1
418,-9.68,1644581085.765625,P02,D03,0,1,1
419,-9.26,1644581085.78125,P02,D03,0,1,1
420,-9.65,1644581085.796875,P02,D03,0,1,1
421,-10.69,1644581085.8125,P02,D03,0,1,1
422,-11.92,1644581085.828125,P02,D03,0,1,1
423,-12.68,1644581085.84375,P02,D03,0,1,1
424,-12.41,1644581085.859375,P02,D03,0,1,1
425,-10.84,1644581085.875,P02,D03,0,1,1
426,-8.07,1644581085.890625,P02,D03,0,1,1
427,-4.55,1644581085.90625,P02,D03,0,1,1
428,-0.87,1644581085.921875,P02,D03,0,1,1
429,2.51,1644581085.9375,P02,D03,0,1,1
430,5.35,1644581085.953125,P02,D03,0,1,1
431,7.66,1644581085.96875,P02,D03,0,1,1
432,9.54,1644581085.984375,P02,D03,0,1,1
433,10.92,1644581086.0,P02,D03,0,1,1
434,11.49,1644581086.015625,P02,D03,0,1,1
435,10.83,1644581086.03125,P02,D03,0,1,1
436,8.61,1644581086.046875,P02,D03,0,1,1
437,4.88,1644581086.0625,P02,D03,0,1,1
438,0.23,1644581086.078125,P02,D03,0,1,1
439,-4.29,1644581086.09375,P02,D03,0,1,1
440,-7.42,1644581086.109375,P02,D03,0,1,1
441,-8.06,1644581086.125,P02,D03,0,1,1
442,-5.62,1644581086.140625,P02,D03,0,1,1
443,-0.29,1644581086.15625,P02,D03,0,1,1
444,6.97,1644581086.171875,P02,D03,0,1,1
445,14.64,1644581086.1875,P02,D03,0,1,1
446,21.13,1644581086.203125,P02,D03,0,1,1
447,25.26,1644581086.21875,P02,D03,0,1,1
448,26.6,1644581086.234375,P02,D03,0,1,1
449,25.5,1644581086.25,P02,D03,0,1,1
450,22.84,1644581086.265625,P02,D03,0,1,1
451,19.54,1644581086.28125,P02,D03,0,1,1
452,16.25,1644581086.296875,P02,D03,0,1,1
453,13.22,1644581086.3125,P02,D03,0,1,1
454,10.45,1644581086.328125,P02,D03,0,1,1
455,7.94,1644581086.34375,P02,D03,0,1,1
456,5.79,1644581086.359375,P02,D03,0,1,1
457,4.19,1644581086.375,P02,D03,0,1,1
458,3.25,1644581086.390625,P02,D03,0,1,1
459,2.82,1644581086.40625,P02,D03,0,1,1
460,2.52,1644581086.421875,P02,D03,0,1,1
461,1.92,1644581086.4375,P02,D03,0,1,1
462,0.74,1644581086.453125,P02,D03,0,1,1
463,-1.04,1644581086.46875,P02,D03,0,1,1
464,-3.14,1644581086.484375,P02,D03,0,1,1
465,-5.16,1644581086.5,P02,D03,0,1,1
466,-6.73,1644581086.515625,P02,D03,0,1,1
467,-7.66,1644581086.53125,P02,D03,0,1,1
468,-7.97,1644581086.546875,P02,D03,0,1,1
469,-7.86,1644581086.5625,P02,D03,0,1,1
470,-7.54,1644581086.578125,P02,D03,0,1,1
471,-7.22,1644581086.59375,P02,D03,0,1,1
472,-6.98,1644581086.609375,P02,D03,0,1,1
473,-6.78,1644581086.625,P02,D03,0,1,1
474,-6.48,1644581086.640625,P02,D03,0,1,1
475,-5.83,1644581086.65625,P02,D03,0,1,1
476,-4.55,1644581086.671875,P02,D03,0,1,1
477,-2.36,1644581086.6875,P02,D03,0,1,1
478,0.91,1644581086.703125,P02,D03,0,1,1
479,5.34,1644581086.71875,P02,D03,0,1,1
480,10.78,1644581086.734375,P02,D03,0,1,1
481,16.95,1644581086.75,P02,D03,0,1,1
482,23.44,1644581086.765625,P02,D03,0,1,1
483,29.81,1644581086.78125,P02,D03,0,1,1
484,35.66,1644581086.796875,P02,D03,0,1,1
485,40.65,1644581086.8125,P02,D03,0,1,1
486,44.53,1644581086.828125,P02,D03,0,1,1
487,47.08,1644581086.84375,P02,D03,0,1,1
488,48.09,1644581086.859375,P02,D03,0,1,1
489,47.41,1644581086.875,P02,D03,0,1,1
490,44.97,1644581086.890625,P02,D03,0,1,1
491,40.92,1644581086.90625,P02,D03,0,1,1
492,35.65,1644581086.921875,P02,D03,0,1,1
493,29.79,1644581086.9375,P02,D03,0,1,1
494,23.99,1644581086.953125,P02,D03,0,1,1
495,18.78,1644581086.96875,P02,D03,0,1,1
496,14.41,1644581086.984375,P02,D03,0,1,1
497,10.76,1644581087.0,P02,D03,0,1,1
498,7.55,1644581087.015625,P02,D03,0,1,1
499,4.46,1644581087.03125,P02,D03,0,1,1
500,1.38,1644581087.046875,P02,D03,0,1,1
501,-1.62,1644581087.0625,P02,D03,0,1,1
502,-4.33,1644581087.078125,P02,D03,0,1,1
503,-6.53,1644581087.09375,P02,D03,0,1,1
504,-8.19,1644581087.109375,P02,D03,0,1,1
505,-9.43,1644581087.125,P02,D03,0,1,1
506,-10.48,1644581087.140625,P02,D03,0,1,1
507,-11.58,1644581087.15625,P02,D03,0,1,1
508,-12.85,1644581087.171875,P02,D03,0,1,1
509,-14.28,1644581087.1875,P02,D03,0,1,1
510,-15.71,1644581087.203125,P02,D03,0,1,1
511,-16.91,1644581087.21875,P02,D03,0,1,1
512,-17.67,1644581087.234375,P02,D03,0,1,1
513,-17.86,1644581087.25,P02,D03,0,1,1
514,-17.47,1644581087.265625,P02,D03,0,1,1
515,-16.63,1644581087.28125,P02,D03,0,1,1
516,-15.51,1644581087.296875,P02,D03,0,1,1
517,-14.3,1644581087.3125,P02,D03,0,1,1
518,-13.11,1644581087.328125,P02,D03,0,1,1
519,-12.0,1644581087.34375,P02,D03,0,1,1
520,-10.97,1644581087.359375,P02,D03,0,1,1
521,-10.04,1644581087.375,P02,D03,0,1,1
522,-9.28,1644581087.390625,P02,D03,0,1,1
523,-8.73,1644581087.40625,P02,D03,0,1,1
524,-8.42,1644581087.421875,P02,D03,0,1,1
525,-8.27,1644581087.4375,P02,D03,0,1,1
526,-8.13,1644581087.453125,P02,D03,0,1,1
527,-7.86,1644581087.46875,P02,D03,0,1,1
528,-7.38,1644581087.484375,P02,D03,0,1,1
529,-6.76,1644581087.5,P02,D03,0,1,1
530,-6.14,1644581087.515625,P02,D03,0,1,1
531,-5.7,1644581087.53125,P02,D03,0,1,1
532,-5.54,1644581087.546875,P02,D03,0,1,1
533,-5.63,1644581087.5625,P02,D03,0,1,1
534,-5.81,1644581087.578125,P02,D03,0,1,1
535,-5.88,1644581087.59375,P02,D03,0,1,1
536,-5.68,1644581087.609375,P02,D03,0,1,1
537,-5.18,1644581087.625,P02,D03,0,1,1
538,-4.45,1644581087.640625,P02,D03,0,1,1
539,-3.65,1644581087.65625,P02,D03,0,1,1
540,-2.93,1644581087.671875,P02,D03,0,1,1
541,-2.41,1644581087.6875,P02,D03,0,1,1
542,-2.12,1644581087.703125,P02,D03,0,1,1
543,-2.03,1644581087.71875,P02,D03,0,1,1
544,-2.1,1644581087.734375,P02,D03,0,1,1
545,-2.25,1644581087.75,P02,D03,0,1,1
546,-2.45,1644581087.765625,P02,D03,0,1,1
547,-2.68,1644581087.78125,P02,D03,0,1,1
548,-2.93,1644581087.796875,P02,D03,0,1,1
549,-3.2,1644581087.8125,P02,D03,0,1,1
550,-3.46,1644581087.828125,P02,D03,0,1,1
551,-3.69,1644581087.84375,P02,D03,0,1,1
552,-3.84,1644581087.859375,P02,D03,0,1,1
553,-3.84,1644581087.875,P02,D03,0,1,1
554,-3.6,1644581087.890625,P02,D03,0,1,1
555,-3.07,1644581087.90625,P02,D03,0,1,1
556,-2.19,1644581087.921875,P02,D03,0,1,1
557,-0.98,1644581087.9375,P02,D03,0,1,1
558,0.44,1644581087.953125,P02,D03,0,1,1
559,1.84,1644581087.96875,P02,D03,0,1,1
560,2.97,1644581087.984375,P02,D03,0,1,1
561,3.56,1644581088.0,P02,D03,0,1,1
562,3.49,1644581088.015625,P02,D03,0,1,1
563,2.79,1644581088.03125,P02,D03,0,1,1
564,1.59,1644581088.046875,P02,D03,0,1,1
565,0.14,1644581088.0625,P02,D03,0,1,1
566,-1.35,1644581088.078125,P02,D03,0,1,1
567,-2.68,1644581088.09375,P02,D03,0,1,1
568,-3.69,1644581088.109375,P02,D03,0,1,1
569,-4.29,1644581088.125,P02,D03,0,1,1
570,-4.42,1644581088.140625,P02,D03,0,1,1
571,-4.07,1644581088.15625,P02,D03,0,1,1
572,-3.33,1644581088.171875,P02,D03,0,1,1
573,-2.35,1644581088.1875,P02,D03,0,1,1
574,-1.32,1644581088.203125,P02,D03,0,1,1
575,-0.39,1644581088.21875,P02,D03,0,1,1
576,0.33,1644581088.234375,P02,D03,0,1,1
577,0.82,1644581088.25,P02,D03,0,1,1
578,1.09,1644581088.265625,P02,D03,0,1,1
579,1.21,1644581088.28125,P02,D03,0,1,1
580,1.23,1644581088.296875,P02,D03,0,1,1
581,1.16,1644581088.3125,P02,D03,0,1,1
582,1.02,1644581088.328125,P02,D03,0,1,1
583,0.81,1644581088.34375,P02,D03,0,1,1
584,0.53,1644581088.359375,P02,D03,0,1,1
585,0.23,1644581088.375,P02,D03,0,1,1
586,-0.04,1644581088.390625,P02,D03,0,1,1
587,-0.23,1644581088.40625,P02,D03,0,1,1
588,-0.3,1644581088.421875,P02,D03,0,1,1
589,-0.24,1644581088.4375,P02,D03,0,1,1
590,-0.07,1644581088.453125,P02,D03,0,1,1
591,0.19,1644581088.46875,P02,D03,0,1,1
592,0.52,1644581088.484375,P02,D03,0,1,1
593,0.91,1644581088.5,P02,D03,0,1,1
594,1.31,1644581088.515625,P02,D03,0,1,1
595,1.62,1644581088.53125,P02,D03,0,1,1
596,1.74,1644581088.546875,P02,D03,0,1,1
597,1.61,1644581088.5625,P02,D03,0,1,1
598,1.23,1644581088.578125,P02,D03,0,1,1
599,0.69,1644581088.59375,P02,D03,0,1,1
600,0.15,1644581088.609375,P02,D03,0,1,1
601,-0.25,1644581088.625,P02,D03,0,1,1
602,-0.41,1644581088.640625,P02,D03,0,1,1
603,-0.36,1644581088.65625,P02,D03,0,1,1
604,-0.2,1644581088.671875,P02,D03,0,1,1
605,-0.06,1644581088.6875,P02,D03,0,1,1
606,-0.02,1644581088.703125,P02,D03,0,1,1
607,-0.11,1644581088.71875,P02,D03,0,1,1
608,-0.28,1644581088.734375,P02,D03,0,1,1
609,-0.45,1644581088.75,P02,D03,0,1,1
610,-0.55,1644581088.765625,P02,D03,0,1,1
611,-0.56,1644581088.78125,P02,D03,0,1,1
612,-0.49,1644581088.796875,P02,D03,0,1,1
613,-0.37,1644581088.8125,P02,D03,0,1,1
614,-0.26,1644581088.828125,P02,D03,0,1,1
615,-0.17,1644581088.84375,P02,D03,0,1,1
616,-0.16,1644581088.859375,P02,D03,0,1,1
617,-0.22,1644581088.875,P02,D03,0,1,1
618,-0.33,1644581088.890625,P02,D03,0,1,1
619,-0.43,1644581088.90625,P02,D03,0,1,1
620,-0.45,1644581088.921875,P02,D03,0,1,1
621,-0.36,1644581088.9375,P02,D03,0,1,1
622,-0.18,1644581088.953125,P02,D03,0,1,1
623,0.0,1644581088.96875,P02,D03,0,1,1
624,0.12,1644581088.984375,P02,D03,0,1,1
625,0.15,1644581089.0,P02,D03,0,1,1
626,0.12,1644581089.015625,P02,D03,0,1,1
627,0.11,1644581089.03125,P02,D03,0,1,1
628,0.15,1644581089.046875,P02,D03,0,1,1
629,0.23,1644581089.0625,P02,D03,0,1,1
630,0.3,1644581089.078125,P02,D03,0,1,1
631,0.29,1644581089.09375,P02,D03,0,1,1
632,0.21,1644581089.109375,P02,D03,0,1,1
633,0.08,1644581089.125,P02,D03,0,1,1
634,-0.02,1644581089.140625,P02,D03,0,1,1
635,-0.05,1644581089.15625,P02,D03,0,1,1
636,-0.01,1644581089.171875,P02,D03,0,1,1
637,0.08,1644581089.1875,P02,D03,0,1,1
638,0.2,1644581089.203125,P02,D03,0,1,1
639,0.34,1644581089.21875,P02,D03,0,1,1
640,0.49,1644581089.234375,P02,D03,0,1,1
641,0.64,1644581089.25,P02,D03,0,1,1
642,0.78,1644581089.265625,P02,D03,0,1,1
643,0.88,1644581089.28125,P02,D03,0,1,1
644,0.9,1644581089.296875,P02,D03,0,1,1
645,0.84,1644581089.3125,P02,D03,0,1,1
646,0.69,1644581089.328125,P02,D03,0,1,1
647,0.48,1644581089.34375,P02,D03,0,1,1
648,0.2,1644581089.359375,P02,D03,0,1,1
649,-0.09,1644581089.375,P02,D03,0,1,1
650,-0.36,1644581089.390625,P02,D03,0,1,1
651,-0.52,1644581089.40625,P02,D03,0,1,1
652,-0.51,1644581089.421875,P02,D03,0,1,1
653,-0.31,1644581089.4375,P02,D03,0,1,1
654,0.04,1644581089.453125,P02,D03,0,1,1
655,0.41,1644581089.46875,P02,D03,0,1,1
656,0.7,1644581089.484375,P02,D03,0,1,1
657,0.79,1644581089.5,P02,D03,0,1,1
658,0.68,1644581089.515625,P02,D03,0,1,1
659,0.4,1644581089.53125,P02,D03,0,1,1
660,0.02,1644581089.546875,P02,D03,0,1,1
661,-0.34,1644581089.5625,P02,D03,0,1,1
662,-0.64,1644581089.578125,P02,D03,0,1,1
663,-0.82,1644581089.59375,P02,D03,0,1,1
664,-0.88,1644581089.609375,P02,D03,0,1,1
665,-0.86,1644581089.625,P02,D03,0,1,1
666,-0.78,1644581089.640625,P02,D03,0,1,1
667,-0.67,1644581089.65625,P02,D03,0,1,1
668,-0.54,1644581089.671875,P02,D03,0,1,1
669,-0.38,1644581089.6875,P02,D03,0,1,1
670,-0.15,1644581089.703125,P02,D03,0,1,1
671,0.16,1644581089.71875,P02,D03,0,1,1
672,0.53,1644581089.734375,P02,D03,0,1,1
673,0.84,1644581089.75,P02,D03,0,1,1
674,1.0,1644581089.765625,P02,D03,0,1,1
675,0.91,1644581089.78125,P02,D03,0,1,1
676,0.55,1644581089.796875,P02,D03,0,1,1
677,0.05,1644581089.8125,P02,D03,0,1,1
678,-0.42,1644581089.828125,P02,D03,0,1,1
679,-0.67,1644581089.84375,P02,D03,0,1,1
680,-0.59,1644581089.859375,P02,D03,0,1,1
681,-0.22,1644581089.875,P02,D03,0,1,1
682,0.3,1644581089.890625,P02,D03,0,1,1
683,0.76,1644581089.90625,P02,D03,0,1,1
684,0.99,1644581089.921875,P02,D03,0,1,1
685,0.95,1644581089.9375,P02,D03,0,1,1
686,0.73,1644581089.953125,P02,D03,0,1,1
687,0.48,1644581089.96875,P02,D03,0,1,1
688,0.36,1644581089.984375,P02,D03,0,1,1
689,0.44,1644581090.0,P02,D03,0,1,1
690,0.68,1644581090.015625,P02,D03,0,1,1
691,0.97,1644581090.03125,P02,D03,0,1,1
692,1.16,1644581090.046875,P02,D03,0,1,1
693,1.19,1644581090.0625,P02,D03,0,1,1
694,1.05,1644581090.078125,P02,D03,0,1,1
695,0.81,1644581090.09375,P02,D03,0,1,1
696,0.55,1644581090.109375,P02,D03,0,1,1
697,0.32,1644581090.125,P02,D03,0,1,1
698,0.15,1644581090.140625,P02,D03,0,1,1
699,0.06,1644581090.15625,P02,D03,0,1,1
700,0.03,1644581090.171875,P02,D03,0,1,1
701,0.04,1644581090.1875,P02,D03,0,1,1
702,0.04,1644581090.203125,P02,D03,0,1,1
703,-0.01,1644581090.21875,P02,D03,0,1,1
704,-0.14,1644581090.234375,P02,D03,0,1,1
705,-0.28,1644581090.25,P02,D03,0,1,1
706,-0.31,1644581090.265625,P02,D03,0,1,1
707,-0.15,1644581090.28125,P02,D03,0,1,1
708,0.24,1644581090.296875,P02,D03,0,1,1
709,0.77,1644581090.3125,P02,D03,0,1,1
710,1.28,1644581090.328125,P02,D03,0,1,1
711,1.6,1644581090.34375,P02,D03,0,1,1
712,1.61,1644581090.359375,P02,D03,0,1,1
713,1.31,1644581090.375,P02,D03,0,1,1
714,0.79,1644581090.390625,P02,D03,0,1,1
715,0.19,1644581090.40625,P02,D03,0,1,1
716,-0.35,1644581090.421875,P02,D03,0,1,1
717,-0.66,1644581090.4375,P02,D03,0,1,1
718,-0.62,1644581090.453125,P02,D03,0,1,1
719,-0.16,1644581090.46875,P02,D03,0,1,1
720,0.68,1644581090.484375,P02,D03,0,1,1
721,1.74,1644581090.5,P02,D03,0,1,1
722,2.74,1644581090.515625,P02,D03,0,1,1
723,3.41,1644581090.53125,P02,D03,0,1,1
724,3.56,1644581090.546875,P02,D03,0,1,1
725,3.15,1644581090.5625,P02,D03,0,1,1
726,2.31,1644581090.578125,P02,D03,0,1,1
727,1.21,1644581090.59375,P02,D03,0,1,1
728,0.07,1644581090.609375,P02,D03,0,1,1
729,-0.98,1644581090.625,P02,D03,0,1,1
730,-1.87,1644581090.640625,P02,D03,0,1,1
731,-2.56,1644581090.65625,P02,D03,0,1,1
732,-3.01,1644581090.671875,P02,D03,0,1,1
733,-3.18,1644581090.6875,P02,D03,0,1,1
734,-3.05,1644581090.703125,P02,D03,0,1,1
735,-2.65,1644581090.71875,P02,D03,0,1,1
736,-2.07,1644581090.734375,P02,D03,0,1,1
737,-1.47,1644581090.75,P02,D03,0,1,1
738,-1.0,1644581090.765625,P02,D03,0,1,1
739,-0.74,1644581090.78125,P02,D03,0,1,1
740,-0.7,1644581090.796875,P02,D03,0,1,1
741,-0.81,1644581090.8125,P02,D03,0,1,1
742,-0.98,1644581090.828125,P02,D03,0,1,1
743,-1.16,1644581090.84375,P02,D03,0,1,1
744,-1.31,1644581090.859375,P02,D03,0,1,1
745,-1.42,1644581090.875,P02,D03,0,1,1
746,-1.48,1644581090.890625,P02,D03,0,1,1
747,-1.43,1644581090.90625,P02,D03,0,1,1
748,-1.24,1644581090.921875,P02,D03,0,1,1
749,-0.91,1644581090.9375,P02,D03,0,1,1
750,-0.49,1644581090.953125,P02,D03,0,1,1
751,-0.09,1644581090.96875,P02,D03,0,1,1
752,0.22,1644581090.984375,P02,D03,0,1,1
753,0.37,1644581091.0,P02,D03,0,1,1
754,0.4,1644581091.015625,P02,D03,0,1,1
755,0.36,1644581091.03125,P02,D03,0,1,1
756,0.31,1644581091.046875,P02,D03,0,1,1
757,0.25,1644581091.0625,P02,D03,0,1,1
758,0.2,1644581091.078125,P02,D03,0,1,1
759,0.13,1644581091.09375,P02,D03,0,1,1
760,0.09,1644581091.109375,P02,D03,0,1,1
761,0.1,1644581091.125,P02,D03,0,1,1
762,0.2,1644581091.140625,P02,D03,0,1,1
763,0.36,1644581091.15625,P02,D03,0,1,1
764,0.52,1644581091.171875,P02,D03,0,1,1
765,0.59,1644581091.1875,P02,D03,0,1,1
766,0.53,1644581091.203125,P02,D03,0,1,1
767,0.32,1644581091.21875,P02,D03,0,1,1
768,0.04,1644581091.234375,P02,D03,0,1,1
769,-0.25,1644581091.25,P02,D03,0,1,1
770,-0.44,1644581091.265625,P02,D03,0,1,1
771,-0.47,1644581091.28125,P02,D03,0,1,1
772,-0.34,1644581091.296875,P02,D03,0,1,1
773,-0.06,1644581091.3125,P02,D03,0,1,1
774,0.29,1644581091.328125,P02,D03,0,1,1
775,0.63,1644581091.34375,P02,D03,0,1,1
776,0.81,1644581091.359375,P02,D03,0,1,1
777,0.76,1644581091.375,P02,D03,0,1,1
778,0.43,1644581091.390625,P02,D03,0,1,1
779,-0.1,1644581091.40625,P02,D03,0,1,1
780,-0.68,1644581091.421875,P02,D03,0,1,1
781,-1.17,1644581091.4375,P02,D03,0,1,1
782,-1.43,1644581091.453125,P02,D03,0,1,1
783,-1.42,1644581091.46875,P02,D03,0,1,1
784,-1.19,1644581091.484375,P02,D03,0,1,1
785,-0.81,1644581091.5,P02,D03,0,1,1
786,-0.41,1644581091.515625,P02,D03,0,1,1
787,-0.06,1644581091.53125,P02,D03,0,1,1
788,0.18,1644581091.546875,P02,D03,0,1,1
789,0.32,1644581091.5625,P02,D03,0,1,1
790,0.35,1644581091.578125,P02,D03,0,1,1
791,0.29,1644581091.59375,P02,D03,0,1,1
792,0.15,1644581091.609375,P02,D03,0,1,1
793,-0.06,1644581091.625,P02,D03,0,1,1
794,-0.32,1644581091.640625,P02,D03,0,1,1
795,-0.54,1644581091.65625,P02,D03,0,1,1
796,-0.64,1644581091.671875,P02,D03,0,1,1
797,-0.56,1644581091.6875,P02,D03,0,1,1
798,-0.3,1644581091.703125,P02,D03,0,1,1
799,0.04,1644581091.71875,P02,D03,0,1,1
800,0.33,1644581091.734375,P02,D03,0,1,1
801,0.42,1644581091.75,P02,D03,0,1,1
802,0.29,1644581091.765625,P02,D03,0,1,1
803,0.01,1644581091.78125,P02,D03,0,1,1
804,-0.27,1644581091.796875,P02,D03,0,1,1
805,-0.4,1644581091.8125,P02,D03,0,1,1
806,-0.32,1644581091.828125,P02,D03,0,1,1
807,-0.05,1644581091.84375,P02,D03,0,1,1
808,0.26,1644581091.859375,P02,D03,0,1,1
809,0.51,1644581091.875,P02,D03,0,1,1
810,0.61,1644581091.890625,P02,D03,0,1,1
811,0.58,1644581091.90625,P02,D03,0,1,1
812,0.46,1644581091.921875,P02,D03,0,1,1
813,0.34,1644581091.9375,P02,D03,0,1,1
814,0.26,1644581091.953125,P02,D03,0,1,1
815,0.24,1644581091.96875,P02,D03,0,1,1
816,0.26,1644581091.984375,P02,D03,0,1,1
817,0.27,1644581092.0,P02,D03,0,1,1
818,0.26,1644581092.015625,P02,D03,0,1,1
819,0.2,1644581092.03125,P02,D03,0,1,1
820,0.13,1644581092.046875,P02,D03,0,1,1
821,0.11,1644581092.0625,P02,D03,0,1,1
822,0.16,1644581092.078125,P02,D03,0,1,1
823,0.27,1644581092.09375,P02,D03,0,1,1
824,0.4,1644581092.109375,P02,D03,0,1,1
825,0.5,1644581092.125,P02,D03,0,1,1
826,0.51,1644581092.140625,P02,D03,0,1,1
827,0.45,1644581092.15625,P02,D03,0,1,1
828,0.36,1644581092.171875,P02,D03,0,1,1
829,0.28,1644581092.1875,P02,D03,0,1,1
830,0.28,1644581092.203125,P02,D03,0,1,1
831,0.34,1644581092.21875,P02,D03,0,1,1
832,0.44,1644581092.234375,P02,D03,0,1,1
833,0.54,1644581092.25,P02,D03,0,1,1
834,0.61,1644581092.265625,P02,D03,0,1,1
835,0.64,1644581092.28125,P02,D03,0,1,1
836,0.65,1644581092.296875,P02,D03,0,1,1
837,0.62,1644581092.3125,P02,D03,0,1,1
838,0.53,1644581092.328125,P02,D03,0,1,1
839,0.36,1644581092.34375,P02,D03,0,1,1
840,0.09,1644581092.359375,P02,D03,0,1,1
841,-0.28,1644581092.375,P02,D03,0,1,1
842,-0.73,1644581092.390625,P02,D03,0,1,1
843,-1.2,1644581092.40625,P02,D03,0,1,1
844,-1.62,1644581092.421875,P02,D03,0,1,1
845,-1.9,1644581092.4375,P02,D03,0,1,1
846,-2.0,1644581092.453125,P02,D03,0,1,1
847,-1.91,1644581092.46875,P02,D03,0,1,1
848,-1.7,1644581092.484375,P02,D03,0,1,1
849,-1.48,1644581092.5,P02,D03,0,1,1
850,-1.4,1644581092.515625,P02,D03,0,1,1
851,-1.57,1644581092.53125,P02,D03,0,1,1
852,-2.01,1644581092.546875,P02,D03,0,1,1
853,-2.64,1644581092.5625,P02,D03,0,1,1
854,-3.25,1644581092.578125,P02,D03,0,1,1
855,-3.64,1644581092.59375,P02,D03,0,1,1
856,-3.67,1644581092.609375,P02,D03,0,1,1
857,-3.33,1644581092.625,P02,D03,0,1,1
858,-2.72,1644581092.640625,P02,D03,0,1,1
859,-1.98,1644581092.65625,P02,D03,0,1,1
860,-1.26,1644581092.671875,P02,D03,0,1,1
861,-0.66,1644581092.6875,P02,D03,0,1,1
862,-0.2,1644581092.703125,P02,D03,0,1,1
863,0.16,1644581092.71875,P02,D03,0,1,1
864,0.43,1644581092.734375,P02,D03,0,1,1
865,0.64,1644581092.75,P02,D03,0,1,1
866,0.79,1644581092.765625,P02,D03,0,1,1
867,0.88,1644581092.78125,P02,D03,0,1,1
868,0.88,1644581092.796875,P02,D03,0,1,1
869,0.78,1644581092.8125,P02,D03,0,1,1
870,0.61,1644581092.828125,P02,D03,0,1,1
871,0.41,1644581092.84375,P02,D03,0,1,1
872,0.26,1644581092.859375,P02,D03,0,1,1
873,0.25,1644581092.875,P02,D03,0,1,1
874,0.4,1644581092.890625,P02,D03,0,1,1
875,0.66,1644581092.90625,P02,D03,0,1,1
876,0.93,1644581092.921875,P02,D03,0,1,1
877,1.09,1644581092.9375,P02,D03,0,1,1
878,1.06,1644581092.953125,P02,D03,0,1,1
879,0.87,1644581092.96875,P02,D03,0,1,1
880,0.6,1644581092.984375,P02,D03,0,1,1
881,0.4,1644581093.0,P02,D03,0,1,1
882,0.36,1644581093.015625,P02,D03,0,1,1
883,0.48,1644581093.03125,P02,D03,0,1,1
884,0.69,1644581093.046875,P02,D03,0,1,1
885,0.91,1644581093.0625,P02,D03,0,1,1
886,1.04,1644581093.078125,P02,D03,0,1,1
887,1.03,1644581093.09375,P02,D03,0,1,1
888,0.88,1644581093.109375,P02,D03,0,1,1
889,0.64,1644581093.125,P02,D03,0,1,1
890,0.39,1644581093.140625,P02,D03,0,1,1
891,0.22,1644581093.15625,P02,D03,0,1,1
892,0.2,1644581093.171875,P02,D03,0,1,1
893,0.37,1644581093.1875,P02,D03,0,1,1
894,0.66,1644581093.203125,P02,D03,0,1,1
895,1.0,1644581093.21875,P02,D03,0,1,1
896,1.3,1644581093.234375,P02,D03,0,1,1
897,1.5,1644581093.25,P02,D03,0,1,1
898,1.59,1644581093.265625,P02,D03,0,1,1
899,1.58,1644581093.28125,P02,D03,0,1,1
900,1.5,1644581093.296875,P02,D03,0,1,1
901,1.38,1644581093.3125,P02,D03,0,1,1
902,1.24,1644581093.328125,P02,D03,0,1,1
903,1.11,1644581093.34375,P02,D03,0,1,1
904,1.02,1644581093.359375,P02,D03,0,1,1
905,0.98,1644581093.375,P02,D03,0,1,1
906,1.0,1644581093.390625,P02,D03,0,1,1
907,1.06,1644581093.40625,P02,D03,0,1,1
908,1.13,1644581093.421875,P02,D03,0,1,1
909,1.21,1644581093.4375,P02,D03,0,1,1
910,1.31,1644581093.453125,P02,D03,0,1,1
911,1.42,1644581093.46875,P02,D03,0,1,1
912,1.45,1644581093.484375,P02,D03,0,1,1
913,1.32,1644581093.5,P02,D03,0,1,1
914,0.96,1644581093.515625,P02,D03,0,1,1
915,0.39,1644581093.53125,P02,D03,0,1,1
916,-0.24,1644581093.546875,P02,D03,0,1,1
917,-0.74,1644581093.5625,P02,D03,0,1,1
918,-0.97,1644581093.578125,P02,D03,0,1,1
919,-0.91,1644581093.59375,P02,D03,0,1,1
920,-0.7,1644581093.609375,P02,D03,0,1,1
921,-0.51,1644581093.625,P02,D03,0,1,1
922,-0.47,1644581093.640625,P02,D03,0,1,1
923,-0.58,1644581093.65625,P02,D03,0,1,1
924,-0.72,1644581093.671875,P02,D03,0,1,1
925,-0.76,1644581093.6875,P02,D03,0,1,1
926,-0.62,1644581093.703125,P02,D03,0,1,1
927,-0.35,1644581093.71875,P02,D03,0,1,1
928,-0.07,1644581093.734375,P02,D03,0,1,1
929,0.1,1644581093.75,P02,D03,0,1,1
930,0.1,1644581093.765625,P02,D03,0,1,1
931,-0.04,1644581093.78125,P02,D03,0,1,1
932,-0.21,1644581093.796875,P02,D03,0,1,1
933,-0.31,1644581093.8125,P02,D03,0,1,1
934,-0.34,1644581093.828125,P02,D03,0,1,1
935,-0.34,1644581093.84375,P02,D03,0,1,1
936,-0.4,1644581093.859375,P02,D03,0,1,1
937,-0.55,1644581093.875,P02,D03,0,1,1
938,-0.74,1644581093.890625,P02,D03,0,1,1
939,-0.85,1644581093.90625,P02,D03,0,1,1
940,-0.77,1644581093.921875,P02,D03,0,1,1
941,-0.49,1644581093.9375,P02,D03,0,1,1
942,-0.1,1644581093.953125,P02,D03,0,1,1
943,0.22,1644581093.96875,P02,D03,0,1,1
944,0.34,1644581093.984375,P02,D03,0,1,1
945,0.25,1644581094.0,P02,D03,0,1,1
946,0.07,1644581094.015625,P02,D03,0,1,1
947,-0.05,1644581094.03125,P02,D03,0,1,1
948,0.0,1644581094.046875,P02,D03,0,1,1
949,0.22,1644581094.0625,P02,D03,0,1,1
950,0.48,1644581094.078125,P02,D03,0,1,1
951,0.63,1644581094.09375,P02,D03,0,1,1
952,0.57,1644581094.109375,P02,D03,0,1,1
953,0.31,1644581094.125,P02,D03,0,1,1
954,-0.09,1644581094.140625,P02,D03,0,1,1
955,-0.48,1644581094.15625,P02,D03,0,1,1
956,-0.75,1644581094.171875,P02,D03,0,1,1
957,-0.85,1644581094.1875,P02,D03,0,1,1
958,-0.78,1644581094.203125,P02,D03,0,1,1
959,-0.61,1644581094.21875,P02,D03,0,1,1
960,-0.4,1644581094.234375,P02,D03,0,1,1
961,-0.22,1644581094.25,P02,D03,0,1,1
962,-0.11,1644581094.265625,P02,D03,0,1,1
963,-0.08,1644581094.28125,P02,D03,0,1,1
964,-0.13,1644581094.296875,P02,D03,0,1,1
965,-0.22,1644581094.3125,P02,D03,0,1,1
966,-0.31,1644581094.328125,P02,D03,0,1,1
967,-0.34,1644581094.34375,P02,D03,0,1,1
968,-0.28,1644581094.359375,P02,D03,0,1,1
969,-0.13,1644581094.375,P02,D03,0,1,1
970,0.09,1644581094.390625,P02,D03,0,1,1
971,0.29,1644581094.40625,P02,D03,0,1,1
972,0.4,1644581094.421875,P02,D03,0,1,1
973,0.35,1644581094.4375,P02,D03,0,1,1
974,0.2,1644581094.453125,P02,D03,0,1,1
975,0.02,1644581094.46875,P02,D03,0,1,1
976,-0.06,1644581094.484375,P02,D03,0,1,1
977,0.01,1644581094.5,P02,D03,0,1,1
978,0.22,1644581094.515625,P02,D03,0,1,1
979,0.46,1644581094.53125,P02,D03,0,1,1
980,0.62,1644581094.546875,P02,D03,0,1,1
981,0.6,1644581094.5625,P02,D03,0,1,1
982,0.41,1644581094.578125,P02,D03,0,1,1
983,0.11,1644581094.59375,P02,D03,0,1,1
984,-0.2,1644581094.609375,P02,D03,0,1,1
985,-0.4,1644581094.625,P02,D03,0,1,1
986,-0.45,1644581094.640625,P02,D03,0,1,1
987,-0.34,1644581094.65625,P02,D03,0,1,1
988,-0.08,1644581094.671875,P02,D03,0,1,1
989,0.27,1644581094.6875,P02,D03,0,1,1
990,0.6,1644581094.703125,P02,D03,0,1,1
991,0.82,1644581094.71875,P02,D03,0,1,1
992,0.89,1644581094.734375,P02,D03,0,1,1
993,0.76,1644581094.75,P02,D03,0,1,1
994,0.48,1644581094.765625,P02,D03,0,1,1
995,0.13,1644581094.78125,P02,D03,0,1,1
996,-0.19,1644581094.796875,P02,D03,0,1,1
997,-0.4,1644581094.8125,P02,D03,0,1,1
998,-0.45,1644581094.828125,P02,D03,0,1,1
999,-0.35,1644581094.84375,P02,D03,0,1,1
1000,-0.14,1644581094.859375,P02,D03,0,1,1
1001,0.12,1644581094.875,P02,D03,0,1,1
1002,0.38,1644581094.890625,P02,D03,0,1,1
1003,0.58,1644581094.90625,P02,D03,0,1,1
1004,0.67,1644581094.921875,P02,D03,0,1,1
1005,0.64,1644581094.9375,P02,D03,0,1,1
1006,0.46,1644581094.953125,P02,D03,0,1,1
1007,0.16,1644581094.96875,P02,D03,0,1,1
1008,-0.21,1644581094.984375,P02,D03,0,1,1
1009,-0.58,1644581095.0,P02,D03,0,1,1
1010,-0.86,1644581095.015625,P02,D03,0,1,1
1011,-0.98,1644581095.03125,P02,D03,0,1,1
1012,-0.89,1644581095.046875,P02,D03,0,1,1
1013,-0.62,1644581095.0625,P02,D03,0,1,1
1014,-0.26,1644581095.078125,P02,D03,0,1,1
1015,0.07,1644581095.09375,P02,D03,0,1,1
1016,0.25,1644581095.109375,P02,D03,0,1,1
1017,0.21,1644581095.125,P02,D03,0,1,1
1018,-0.06,1644581095.140625,P02,D03,0,1,1
1019,-0.47,1644581095.15625,P02,D03,0,1,1
1020,-0.86,1644581095.171875,P02,D03,0,1,1
1021,-1.09,1644581095.1875,P02,D03,0,1,1
1022,-1.08,1644581095.203125,P02,D03,0,1,1
1023,-0.84,1644581095.21875,P02,D03,0,1,1
1024,-0.48,1644581095.234375,P02,D03,0,1,1
1025,-0.13,1644581095.25,P02,D03,0,1,1
1026,0.09,1644581095.265625,P02,D03,0,1,1
1027,0.18,1644581095.28125,P02,D03,0,1,1
1028,0.17,1644581095.296875,P02,D03,0,1,1
1029,0.13,1644581095.3125,P02,D03,0,1,1
1030,0.11,1644581095.328125,P02,D03,0,1,1
1031,0.12,1644581095.34375,P02,D03,0,1,1
1032,0.12,1644581095.359375,P02,D03,0,1,1
1033,0.1,1644581095.375,P02,D03,0,1,1
1034,0.03,1644581095.390625,P02,D03,0,1,1
1035,-0.05,1644581095.40625,P02,D03,0,1,1
1036,-0.1,1644581095.421875,P02,D03,0,1,1
1037,-0.08,1644581095.4375,P02,D03,0,1,1
1038,0.02,1644581095.453125,P02,D03,0,1,1
1039,0.18,1644581095.46875,P02,D03,0,1,1
1040,0.34,1644581095.484375,P02,D03,0,1,1
1041,0.44,1644581095.5,P02,D03,0,1,1
1042,0.46,1644581095.515625,P02,D03,0,1,1
1043,0.41,1644581095.53125,P02,D03,0,1,1
1044,0.32,1644581095.546875,P02,D03,0,1,1
1045,0.24,1644581095.5625,P02,D03,0,1,1
1046,0.2,1644581095.578125,P02,D03,0,1,1
1047,0.2,1644581095.59375,P02,D03,0,1,1
1048,0.22,1644581095.609375,P02,D03,0,1,1
1049,0.25,1644581095.625,P02,D03,0,1,1
1050,0.29,1644581095.640625,P02,D03,0,1,1
1051,0.36,1644581095.65625,P02,D03,0,1,1
1052,0.47,1644581095.671875,P02,D03,0,1,1
1053,0.58,1644581095.6875,P02,D03,0,1,1
1054,0.63,1644581095.703125,P02,D03,0,1,1
1055,0.58,1644581095.71875,P02,D03,0,1,1
1056,0.41,1644581095.734375,P02,D03,0,1,1
1057,0.14,1644581095.75,P02,D03,0,1,1
1058,-0.13,1644581095.765625,P02,D03,0,1,1
1059,-0.34,1644581095.78125,P02,D03,0,1,1
1060,-0.46,1644581095.796875,P02,D03,0,1,1
1061,-0.47,1644581095.8125,P02,D03,0,1,1
1062,-0.41,1644581095.828125,P02,D03,0,1,1
1063,-0.28,1644581095.84375,P02,D03,0,1,1
1064,-0.12,1644581095.859375,P02,D03,0,1,1
1065,0.05,1644581095.875,P02,D03,0,1,1
1066,0.17,1644581095.890625,P02,D03,0,1,1
1067,0.19,1644581095.90625,P02,D03,0,1,1
1068,0.07,1644581095.921875,P02,D03,0,1,1
1069,-0.17,1644581095.9375,P02,D03,0,1,1
1070,-0.43,1644581095.953125,P02,D03,0,1,1
1071,-0.63,1644581095.96875,P02,D03,0,1,1
1072,-0.72,1644581095.984375,P02,D03,0,1,1
1073,-0.72,1644581096.0,P02,D03,0,1,1
1074,-0.69,1644581096.015625,P02,D03,0,1,1
1075,-0.68,1644581096.03125,P02,D03,0,1,1
1076,-0.72,1644581096.046875,P02,D03,0,1,1
1077,-0.74,1644581096.0625,P02,D03,0,1,1
1078,-0.69,1644581096.078125,P02,D03,0,1,1
1079,-0.54,1644581096.09375,P02,D03,0,1,1
1080,-0.29,1644581096.109375,P02,D03,0,1,1
1081,-0.04,1644581096.125,P02,D03,0,1,1
1082,0.15,1644581096.140625,P02,D03,0,1,1
1083,0.24,1644581096.15625,P02,D03,0,1,1
1084,0.26,1644581096.171875,P02,D03,0,1,1
1085,0.26,1644581096.1875,P02,D03,0,1,1
1086,0.29,1644581096.203125,P02,D03,0,1,1
1087,0.36,1644581096.21875,P02,D03,0,1,1
1088,0.41,1644581096.234375,P02,D03,0,1,1
1089,0.39,1644581096.25,P02,D03,0,1,1
1090,0.25,1644581096.265625,P02,D03,0,1,1
1091,0.03,1644581096.28125,P02,D03,0,1,1
1092,-0.2,1644581096.296875,P02,D03,0,1,1
1093,-0.33,1644581096.3125,P02,D03,0,1,1
1094,-0.29,1644581096.328125,P02,D03,0,1,1
1095,-0.12,1644581096.34375,P02,D03,0,1,1
1096,0.14,1644581096.359375,P02,D03,0,1,1
1097,0.38,1644581096.375,P02,D03,0,1,1
1098,0.58,1644581096.390625,P02,D03,0,1,1
1099,0.71,1644581096.40625,P02,D03,0,1,1
1100,0.79,1644581096.421875,P02,D03,0,1,1
1101,0.82,1644581096.4375,P02,D03,0,1,1
1102,0.77,1644581096.453125,P02,D03,0,1,1
1103,0.63,1644581096.46875,P02,D03,0,1,1
1104,0.43,1644581096.484375,P02,D03,0,1,1
1105,0.24,1644581096.5,P02,D03,0,1,1
1106,0.15,1644581096.515625,P02,D03,0,1,1
1107,0.18,1644581096.53125,P02,D03,0,1,1
1108,0.31,1644581096.546875,P02,D03,0,1,1
1109,0.46,1644581096.5625,P02,D03,0,1,1
1110,0.54,1644581096.578125,P02,D03,0,1,1
1111,0.55,1644581096.59375,P02,D03,0,1,1
1112,0.51,1644581096.609375,P02,D03,0,1,1
1113,0.43,1644581096.625,P02,D03,0,1,1
1114,0.32,1644581096.640625,P02,D03,0,1,1
1115,0.16,1644581096.65625,P02,D03,0,1,1
1116,-0.06,1644581096.671875,P02,D03,0,1,1
1117,-0.29,1644581096.6875,P02,D03,0,1,1
1118,-0.46,1644581096.703125,P02,D03,0,1,1
1119,-0.47,1644581096.71875,P02,D03,0,1,1
1120,-0.33,1644581096.734375,P02,D03,0,1,1
1121,-0.08,1644581096.75,P02,D03,0,1,1
1122,0.18,1644581096.765625,P02,D03,0,1,1
1123,0.38,1644581096.78125,P02,D03,0,1,1
1124,0.51,1644581096.796875,P02,D03,0,1,1
1125,0.58,1644581096.8125,P02,D03,0,1,1
1126,0.64,1644581096.828125,P02,D03,0,1,1
1127,0.7,1644581096.84375,P02,D03,0,1,1
1128,0.74,1644581096.859375,P02,D03,0,1,1
1129,0.71,1644581096.875,P02,D03,0,1,1
1130,0.6,1644581096.890625,P02,D03,0,1,1
1131,0.41,1644581096.90625,P02,D03,0,1,1
1132,0.2,1644581096.921875,P02,D03,0,1,1
1133,0.01,1644581096.9375,P02,D03,0,1,1
1134,-0.13,1644581096.953125,P02,D03,0,1,1
1135,-0.24,1644581096.96875,P02,D03,0,1,1
1136,-0.31,1644581096.984375,P02,D03,0,1,1
1137,-0.35,1644581097.0,P02,D03,0,1,1
1138,-0.36,1644581097.015625,P02,D03,0,1,1
1139,-0.32,1644581097.03125,P02,D03,0,1,1
1140,-0.24,1644581097.046875,P02,D03,0,1,1
1141,-0.14,1644581097.0625,P02,D03,0,1,1
1142,-0.04,1644581097.078125,P02,D03,0,1,1
1143,0.01,1644581097.09375,P02,D03,0,1,1
1144,0.01,1644581097.109375,P02,D03,0,1,1
1145,-0.02,1644581097.125,P02,D03,0,1,1
1146,-0.06,1644581097.140625,P02,D03,0,1,1
1147,-0.09,1644581097.15625,P02,D03,0,1,1
1148,-0.09,1644581097.171875,P02,D03,0,1,1
1149,-0.07,1644581097.1875,P02,D03,0,1,1
1150,-0.06,1644581097.203125,P02,D03,0,1,1
1151,-0.08,1644581097.21875,P02,D03,0,1,1
1152,-0.11,1644581097.234375,P02,D03,0,1,1
1153,-0.15,1644581097.25,P02,D03,0,1,1
1154,-0.22,1644581097.265625,P02,D03,0,1,1
1155,-0.33,1644581097.28125,P02,D03,0,1,1
1156,-0.49,1644581097.296875,P02,D03,0,1,1
1157,-0.68,1644581097.3125,P02,D03,0,1,1
1158,-0.87,1644581097.328125,P02,D03,0,1,1
1159,-0.97,1644581097.34375,P02,D03,0,1,1
1160,-0.92,1644581097.359375,P02,D03,0,1,1
1161,-0.71,1644581097.375,P02,D03,0,1,1
1162,-0.36,1644581097.390625,P02,D03,0,1,1
1163,0.01,1644581097.40625,P02,D03,0,1,1
1164,0.29,1644581097.421875,P02,D03,0,1,1
1165,0.38,1644581097.4375,P02,D03,0,1,1
1166,0.21,1644581097.453125,P02,D03,0,1,1
1167,-0.18,1644581097.46875,P02,D03,0,1,1
1168,-0.69,1644581097.484375,P02,D03,0,1,1
1169,-1.21,1644581097.5,P02,D03,0,1,1
1170,-1.62,1644581097.515625,P02,D03,0,1,1
1171,-1.81,1644581097.53125,P02,D03,0,1,1
1172,-1.73,1644581097.546875,P02,D03,0,1,1
1173,-1.41,1644581097.5625,P02,D03,0,1,1
1174,-0.88,1644581097.578125,P02,D03,0,1,1
1175,-0.29,1644581097.59375,P02,D03,0,1,1
1176,0.26,1644581097.609375,P02,D03,0,1,1
1177,0.68,1644581097.625,P02,D03,0,1,1
1178,0.91,1644581097.640625,P02,D03,0,1,1
1179,0.97,1644581097.65625,P02,D03,0,1,1
1180,0.86,1644581097.671875,P02,D03,0,1,1
1181,0.63,1644581097.6875,P02,D03,0,1,1
1182,0.34,1644581097.703125,P02,D03,0,1,1
1183,0.05,1644581097.71875,P02,D03,0,1,1
1184,-0.17,1644581097.734375,P02,D03,0,1,1
1185,-0.26,1644581097.75,P02,D03,0,1,1
1186,-0.19,1644581097.765625,P02,D03,0,1,1
1187,0.01,1644581097.78125,P02,D03,0,1,1
1188,0.27,1644581097.796875,P02,D03,0,1,1
1189,0.51,1644581097.8125,P02,D03,0,1,1
1190,0.65,1644581097.828125,P02,D03,0,1,1
1191,0.63,1644581097.84375,P02,D03,0,1,1
1192,0.46,1644581097.859375,P02,D03,0,1,1
1193,0.19,1644581097.875,P02,D03,0,1,1
1194,-0.13,1644581097.890625,P02,D03,0,1,1
1195,-0.39,1644581097.90625,P02,D03,0,1,1
1196,-0.54,1644581097.921875,P02,D03,0,1,1
1197,-0.57,1644581097.9375,P02,D03,0,1,1
1198,-0.51,1644581097.953125,P02,D03,0,1,1
1199,-0.43,1644581097.96875,P02,D03,0,1,1
1200,-0.4,1644581097.984375,P02,D03,0,1,1
1201,-0.4,1644581098.0,P02,D03,0,1,1
1202,-0.38,1644581098.015625,P02,D03,0,1,1
1203,-0.3,1644581098.03125,P02,D03,0,1,1
1204,-0.15,1644581098.046875,P02,D03,0,1,1
1205,0.01,1644581098.0625,P02,D03,0,1,1
1206,0.1,1644581098.078125,P02,D03,0,1,1
1207,0.03,1644581098.09375,P02,D03,0,1,1
1208,-0.19,1644581098.109375,P02,D03,0,1,1
1209,-0.51,1644581098.125,P02,D03,0,1,1
1210,-0.83,1644581098.140625,P02,D03,0,1,1
1211,-1.06,1644581098.15625,P02,D03,0,1,1
1212,-1.17,1644581098.171875,P02,D03,0,1,1
1213,-1.17,1644581098.1875,P02,D03,0,1,1
1214,-1.08,1644581098.203125,P02,D03,0,1,1
1215,-0.92,1644581098.21875,P02,D03,0,1,1
1216,-0.69,1644581098.234375,P02,D03,0,1,1
1217,-0.38,1644581098.25,P02,D03,0,1,1
1218,-0.01,1644581098.265625,P02,D03,0,1,1
1219,0.37,1644581098.28125,P02,D03,0,1,1
1220,0.67,1644581098.296875,P02,D03,0,1,1
1221,0.81,1644581098.3125,P02,D03,0,1,1
1222,0.78,1644581098.328125,P02,D03,0,1,1
1223,0.63,1644581098.34375,P02,D03,0,1,1
1224,0.5,1644581098.359375,P02,D03,0,1,1
1225,0.49,1644581098.375,P02,D03,0,1,1
1226,0.67,1644581098.390625,P02,D03,0,1,1
1227,0.99,1644581098.40625,P02,D03,0,1,1
1228,1.31,1644581098.421875,P02,D03,0,1,1
1229,1.51,1644581098.4375,P02,D03,0,1,1
1230,1.48,1644581098.453125,P02,D03,0,1,1
1231,1.26,1644581098.46875,P02,D03,0,1,1
1232,0.93,1644581098.484375,P02,D03,0,1,1
1233,0.62,1644581098.5,P02,D03,0,1,1
1234,0.42,1644581098.515625,P02,D03,0,1,1
1235,0.39,1644581098.53125,P02,D03,0,1,1
1236,0.51,1644581098.546875,P02,D03,0,1,1
1237,0.69,1644581098.5625,P02,D03,0,1,1
1238,0.85,1644581098.578125,P02,D03,0,1,1
1239,0.88,1644581098.59375,P02,D03,0,1,1
1240,0.76,1644581098.609375,P02,D03,0,1,1
1241,0.5,1644581098.625,P02,D03,0,1,1
1242,0.2,1644581098.640625,P02,D03,0,1,1
1243,-0.04,1644581098.65625,P02,D03,0,1,1
1244,-0.17,1644581098.671875,P02,D03,0,1,1
1245,-0.21,1644581098.6875,P02,D03,0,1,1
1246,-0.2,1644581098.703125,P02,D03,0,1,1
1247,-0.19,1644581098.71875,P02,D03,0,1,1
1248,-0.18,1644581098.734375,P02,D03,0,1,1
1249,-0.13,1644581098.75,P02,D03,0,1,1
1250,-0.03,1644581098.765625,P02,D03,0,1,1
1251,0.1,1644581098.78125,P02,D03,0,1,1
1252,0.18,1644581098.796875,P02,D03,0,1,1
1253,0.16,1644581098.8125,P02,D03,0,1,1
1254,0.02,1644581098.828125,P02,D03,0,1,1
1255,-0.18,1644581098.84375,P02,D03,0,1,1
1256,-0.35,1644581098.859375,P02,D03,0,1,1
1257,-0.41,1644581098.875,P02,D03,0,1,1
1258,-0.36,1644581098.890625,P02,D03,0,1,1
1259,-0.25,1644581098.90625,P02,D03,0,1,1
1260,-0.13,1644581098.921875,P02,D03,0,1,1
1261,-0.05,1644581098.9375,P02,D03,0,1,1
1262,-0.06,1644581098.953125,P02,D03,0,1,1
1263,-0.17,1644581098.96875,P02,D03,0,1,1
1264,-0.37,1644581098.984375,P02,D03,0,1,1
1265,-0.61,1644581099.0,P02,D03,0,1,1
1266,-0.8,1644581099.015625,P02,D03,0,1,1
1267,-0.83,1644581099.03125,P02,D03,0,1,1
1268,-0.64,1644581099.046875,P02,D03,0,1,1
1269,-0.28,1644581099.0625,P02,D03,0,1,1
1270,0.13,1644581099.078125,P02,D03,0,1,1
1271,0.43,1644581099.09375,P02,D03,0,1,1
1272,0.52,1644581099.109375,P02,D03,0,1,1
1273,0.41,1644581099.125,P02,D03,0,1,1
1274,0.16,1644581099.140625,P02,D03,0,1,1
1275,-0.12,1644581099.15625,P02,D03,0,1,1
1276,-0.36,1644581099.171875,P02,D03,0,1,1
1277,-0.55,1644581099.1875,P02,D03,0,1,1
1278,-0.68,1644581099.203125,P02,D03,0,1,1
1279,-0.74,1644581099.21875,P02,D03,0,1,1
1280,-0.71,1644581099.234375,P02,D03,0,1,1
1281,-0.54,1644581099.25,P02,D03,0,1,1
1282,-0.24,1644581099.265625,P02,D03,0,1,1
1283,0.14,1644581099.28125,P02,D03,0,1,1
1284,0.51,1644581099.296875,P02,D03,0,1,1
1285,0.77,1644581099.3125,P02,D03,0,1,1
1286,0.87,1644581099.328125,P02,D03,0,1,1
1287,0.81,1644581099.34375,P02,D03,0,1,1
1288,0.64,1644581099.359375,P02,D03,0,1,1
1289,0.47,1644581099.375,P02,D03,0,1,1
1290,0.36,1644581099.390625,P02,D03,0,1,1
1291,0.35,1644581099.40625,P02,D03,0,1,1
1292,0.4,1644581099.421875,P02,D03,0,1,1
1293,0.43,1644581099.4375,P02,D03,0,1,1
1294,0.38,1644581099.453125,P02,D03,0,1,1
1295,0.23,1644581099.46875,P02,D03,0,1,1
1296,0.03,1644581099.484375,P02,D03,0,1,1
1297,-0.15,1644581099.5,P02,D03,0,1,1
1298,-0.26,1644581099.515625,P02,D03,0,1,1
1299,-0.26,1644581099.53125,P02,D03,0,1,1
1300,-0.21,1644581099.546875,P02,D03,0,1,1
1301,-0.17,1644581099.5625,P02,D03,0,1,1
1302,-0.18,1644581099.578125,P02,D03,0,1,1
1303,-0.27,1644581099.59375,P02,D03,0,1,1
1304,-0.41,1644581099.609375,P02,D03,0,1,1
1305,-0.54,1644581099.625,P02,D03,0,1,1
1306,-0.59,1644581099.640625,P02,D03,0,1,1
1307,-0.54,1644581099.65625,P02,D03,0,1,1
1308,-0.39,1644581099.671875,P02,D03,0,1,1
1309,-0.17,1644581099.6875,P02,D03,0,1,1
1310,0.06,1644581099.703125,P02,D03,0,1,1
1311,0.27,1644581099.71875,P02,D03,0,1,1
1312,0.42,1644581099.734375,P02,D03,0,1,1
1313,0.5,1644581099.75,P02,D03,0,1,1
1314,0.49,1644581099.765625,P02,D03,0,1,1
1315,0.42,1644581099.78125,P02,D03,0,1,1
1316,0.31,1644581099.796875,P02,D03,0,1,1
1317,0.19,1644581099.8125,P02,D03,0,1,1
1318,0.07,1644581099.828125,P02,D03,0,1,1
1319,-0.03,1644581099.84375,P02,D03,0,1,1
1320,-0.12,1644581099.859375,P02,D03,0,1,1
1321,-0.2,1644581099.875,P02,D03,0,1,1
1322,-0.24,1644581099.890625,P02,D03,0,1,1
1323,-0.2,1644581099.90625,P02,D03,0,1,1
1324,-0.05,1644581099.921875,P02,D03,0,1,1
1325,0.18,1644581099.9375,P02,D03,0,1,1
1326,0.42,1644581099.953125,P02,D03,0,1,1
1327,0.59,1644581099.96875,P02,D03,0,1,1
1328,0.65,1644581099.984375,P02,D03,0,1,1
1329,0.62,1644581100.0,P02,D03,0,1,1
1330,0.57,1644581100.015625,P02,D03,0,1,1
1331,0.56,1644581100.03125,P02,D03,0,1,1
1332,0.57,1644581100.046875,P02,D03,0,1,1
1333,0.54,1644581100.0625,P02,D03,0,1,1
1334,0.37,1644581100.078125,P02,D03,0,1,1
1335,0.04,1644581100.09375,P02,D03,0,1,1
1336,-0.37,1644581100.109375,P02,D03,0,1,1
1337,-0.74,1644581100.125,P02,D03,0,1,1
1338,-0.94,1644581100.140625,P02,D03,0,1,1
1339,-0.93,1644581100.15625,P02,D03,0,1,1
1340,-0.75,1644581100.171875,P02,D03,0,1,1
1341,-0.52,1644581100.1875,P02,D03,0,1,1
1342,-0.31,1644581100.203125,P02,D03,0,1,1
1343,-0.15,1644581100.21875,P02,D03,0,1,1
1344,-0.02,1644581100.234375,P02,D03,0,1,1
1345,0.07,1644581100.25,P02,D03,0,1,1
1346,0.11,1644581100.265625,P02,D03,0,1,1
1347,0.09,1644581100.28125,P02,D03,0,1,1
1348,0.0,1644581100.296875,P02,D03,0,1,1
1349,-0.12,1644581100.3125,P02,D03,0,1,1
1350,-0.24,1644581100.328125,P02,D03,0,1,1
1351,-0.3,1644581100.34375,P02,D03,0,1,1
1352,-0.32,1644581100.359375,P02,D03,0,1,1
1353,-0.29,1644581100.375,P02,D03,0,1,1
1354,-0.23,1644581100.390625,P02,D03,0,1,1
1355,-0.16,1644581100.40625,P02,D03,0,1,1
1356,-0.05,1644581100.421875,P02,D03,0,1,1
1357,0.07,1644581100.4375,P02,D03,0,1,1
1358,0.21,1644581100.453125,P02,D03,0,1,1
1359,0.37,1644581100.46875,P02,D03,0,1,1
1360,0.53,1644581100.484375,P02,D03,0,1,1
1361,0.69,1644581100.5,P02,D03,0,1,1
1362,0.86,1644581100.515625,P02,D03,0,1,1
1363,1.0,1644581100.53125,P02,D03,0,1,1
1364,1.08,1644581100.546875,P02,D03,0,1,1
1365,1.08,1644581100.5625,P02,D03,0,1,1
1366,1.01,1644581100.578125,P02,D03,0,1,1
1367,0.91,1644581100.59375,P02,D03,0,1,1
1368,0.8,1644581100.609375,P02,D03,0,1,1
1369,0.67,1644581100.625,P02,D03,0,1,1
1370,0.48,1644581100.640625,P02,D03,0,1,1
1371,0.17,1644581100.65625,P02,D03,0,1,1
1372,-0.26,1644581100.671875,P02,D03,0,1,1
1373,-0.73,1644581100.6875,P02,D03,0,1,1
1374,-1.11,1644581100.703125,P02,D03,0,1,1
1375,-1.29,1644581100.71875,P02,D03,0,1,1
1376,-1.21,1644581100.734375,P02,D03,0,1,1
1377,-0.95,1644581100.75,P02,D03,0,1,1
1378,-0.6,1644581100.765625,P02,D03,0,1,1
1379,-0.3,1644581100.78125,P02,D03,0,1,1
1380,-0.12,1644581100.796875,P02,D03,0,1,1
1381,-0.06,1644581100.8125,P02,D03,0,1,1
1382,-0.09,1644581100.828125,P02,D03,0,1,1
1383,-0.18,1644581100.84375,P02,D03,0,1,1
1384,-0.3,1644581100.859375,P02,D03,0,1,1
1385,-0.46,1644581100.875,P02,D03,0,1,1
1386,-0.69,1644581100.890625,P02,D03,0,1,1
1387,-0.95,1644581100.90625,P02,D03,0,1,1
1388,-1.16,1644581100.921875,P02,D03,0,1,1
1389,-1.27,1644581100.9375,P02,D03,0,1,1
1390,-1.24,1644581100.953125,P02,D03,0,1,1
1391,-1.1,1644581100.96875,P02,D03,0,1,1
1392,-0.9,1644581100.984375,P02,D03,0,1,1
1393,-0.72,1644581101.0,P02,D03,0,1,1
1394,-0.6,1644581101.015625,P02,D03,0,1,1
1395,-0.51,1644581101.03125,P02,D03,0,1,1
1396,-0.42,1644581101.046875,P02,D03,0,1,1
1397,-0.31,1644581101.0625,P02,D03,0,1,1
1398,-0.2,1644581101.078125,P02,D03,0,1,1
1399,-0.15,1644581101.09375,P02,D03,0,1,1
1400,-0.21,1644581101.109375,P02,D03,0,1,1
1401,-0.39,1644581101.125,P02,D03,0,1,1
1402,-0.59,1644581101.140625,P02,D03,0,1,1
1403,-0.7,1644581101.15625,P02,D03,0,1,1
1404,-0.58,1644581101.171875,P02,D03,0,1,1
1405,-0.22,1644581101.1875,P02,D03,0,1,1
1406,0.32,1644581101.203125,P02,D03,0,1,1
1407,0.86,1644581101.21875,P02,D03,0,1,1
1408,1.25,1644581101.234375,P02,D03,0,1,1
1409,1.39,1644581101.25,P02,D03,0,1,1
1410,1.28,1644581101.265625,P02,D03,0,1,1
1411,1.0,1644581101.28125,P02,D03,0,1,1
1412,0.67,1644581101.296875,P02,D03,0,1,1
1413,0.36,1644581101.3125,P02,D03,0,1,1
1414,0.14,1644581101.328125,P02,D03,0,1,1
1415,0.01,1644581101.34375,P02,D03,0,1,1
1416,-0.03,1644581101.359375,P02,D03,0,1,1
1417,0.03,1644581101.375,P02,D03,0,1,1
1418,0.18,1644581101.390625,P02,D03,0,1,1
1419,0.43,1644581101.40625,P02,D03,0,1,1
1420,0.7,1644581101.421875,P02,D03,0,1,1
1421,0.9,1644581101.4375,P02,D03,0,1,1
1422,0.94,1644581101.453125,P02,D03,0,1,1
1423,0.81,1644581101.46875,P02,D03,0,1,1
1424,0.57,1644581101.484375,P02,D03,0,1,1
1425,0.32,1644581101.5,P02,D03,0,1,1
1426,0.21,1644581101.515625,P02,D03,0,1,1
1427,0.26,1644581101.53125,P02,D03,0,1,1
1428,0.46,1644581101.546875,P02,D03,0,1,1
1429,0.66,1644581101.5625,P02,D03,0,1,1
1430,0.74,1644581101.578125,P02,D03,0,1,1
1431,0.64,1644581101.59375,P02,D03,0,1,1
1432,0.38,1644581101.609375,P02,D03,0,1,1
1433,0.09,1644581101.625,P02,D03,0,1,1
1434,-0.11,1644581101.640625,P02,D03,0,1,1
1435,-0.14,1644581101.65625,P02,D03,0,1,1
1436,-0.03,1644581101.671875,P02,D03,0,1,1
1437,0.11,1644581101.6875,P02,D03,0,1,1
1438,0.18,1644581101.703125,P02,D03,0,1,1
1439,0.11,1644581101.71875,P02,D03,0,1,1
1440,-0.09,1644581101.734375,P02,D03,0,1,1
1441,-0.37,1644581101.75,P02,D03,0,1,1
1442,-0.64,1644581101.765625,P02,D03,0,1,1
1443,-0.82,1644581101.78125,P02,D03,0,1,1
1444,-0.83,1644581101.796875,P02,D03,0,1,1
1445,-0.66,1644581101.8125,P02,D03,0,1,1
1446,-0.34,1644581101.828125,P02,D03,0,1,1
1447,0.04,1644581101.84375,P02,D03,0,1,1
1448,0.34,1644581101.859375,P02,D03,0,1,1
1449,0.47,1644581101.875,P02,D03,0,1,1
1450,0.35,1644581101.890625,P02,D03,0,1,1
1451,0.02,1644581101.90625,P02,D03,0,1,1
1452,-0.4,1644581101.921875,P02,D03,0,1,1
1453,-0.76,1644581101.9375,P02,D03,0,1,1
1454,-0.92,1644581101.953125,P02,D03,0,1,1
1455,-0.82,1644581101.96875,P02,D03,0,1,1
1456,-0.49,1644581101.984375,P02,D03,0,1,1
1457,-0.06,1644581102.0,P02,D03,0,1,1
1458,0.33,1644581102.015625,P02,D03,0,1,1
1459,0.52,1644581102.03125,P02,D03,0,1,1
1460,0.46,1644581102.046875,P02,D03,0,1,1
1461,0.16,1644581102.0625,P02,D03,0,1,1
1462,-0.26,1644581102.078125,P02,D03,0,1,1
1463,-0.64,1644581102.09375,P02,D03,0,1,1
1464,-0.86,1644581102.109375,P02,D03,0,1,1
1465,-0.86,1644581102.125,P02,D03,0,1,1
1466,-0.7,1644581102.140625,P02,D03,0,1,1
1467,-0.48,1644581102.15625,P02,D03,0,1,1
1468,-0.28,1644581102.171875,P02,D03,0,1,1
1469,-0.15,1644581102.1875,P02,D03,0,1,1
1470,-0.08,1644581102.203125,P02,D03,0,1,1
1471,-0.04,1644581102.21875,P02,D03,0,1,1
1472,-0.02,1644581102.234375,P02,D03,0,1,1
1473,-0.02,1644581102.25,P02,D03,0,1,1
1474,-0.07,1644581102.265625,P02,D03,0,1,1
1475,-0.14,1644581102.28125,P02,D03,0,1,1
1476,-0.19,1644581102.296875,P02,D03,0,1,1
1477,-0.13,1644581102.3125,P02,D03,0,1,1
1478,0.08,1644581102.328125,P02,D03,0,1,1
1479,0.4,1644581102.34375,P02,D03,0,1,1
1480,0.73,1644581102.359375,P02,D03,0,1,1
1481,0.97,1644581102.375,P02,D03,0,1,1
1482,1.03,1644581102.390625,P02,D03,0,1,1
1483,0.9,1644581102.40625,P02,D03,0,1,1
1484,0.65,1644581102.421875,P02,D03,0,1,1
1485,0.38,1644581102.4375,P02,D03,0,1,1
1486,0.18,1644581102.453125,P02,D03,0,1,1
1487,0.11,1644581102.46875,P02,D03,0,1,1
1488,0.18,1644581102.484375,P02,D03,0,1,1
1489,0.33,1644581102.5,P02,D03,0,1,1
1490,0.48,1644581102.515625,P02,D03,0,1,1
1491,0.57,1644581102.53125,P02,D03,0,1,1
1492,0.54,1644581102.546875,P02,D03,0,1,1
1493,0.39,1644581102.5625,P02,D03,0,1,1
1494,0.15,1644581102.578125,P02,D03,0,1,1
1495,-0.15,1644581102.59375,P02,D03,0,1,1
1496,-0.45,1644581102.609375,P02,D03,0,1,1
1497,-0.73,1644581102.625,P02,D03,0,1,1
1498,-0.96,1644581102.640625,P02,D03,0,1,1
1499,-1.12,1644581102.65625,P02,D03,0,1,1
1500,-1.17,1644581102.671875,P02,D03,0,1,1
1501,-1.09,1644581102.6875,P02,D03,0,1,1
1502,-0.87,1644581102.703125,P02,D03,0,1,1
1503,-0.53,1644581102.71875,P02,D03,0,1,1
1504,-0.13,1644581102.734375,P02,D03,0,1,1
1505,0.25,1644581102.75,P02,D03,0,1,1
1506,0.56,1644581102.765625,P02,D03,0,1,1
1507,0.75,1644581102.78125,P02,D03,0,1,1
1508,0.83,1644581102.796875,P02,D03,0,1,1
1509,0.8,1644581102.8125,P02,D03,0,1,1
1510,0.67,1644581102.828125,P02,D03,0,1,1
1511,0.48,1644581102.84375,P02,D03,0,1,1
1512,0.25,1644581102.859375,P02,D03,0,1,1
1513,0.02,1644581102.875,P02,D03,0,1,1
1514,-0.15,1644581102.890625,P02,D03,0,1,1
1515,-0.23,1644581102.90625,P02,D03,0,1,1
1516,-0.18,1644581102.921875,P02,D03,0,1,1
1517,-0.04,1644581102.9375,P02,D03,0,1,1
1518,0.14,1644581102.953125,P02,D03,0,1,1
1519,0.28,1644581102.96875,P02,D03,0,1,1
1520,0.33,1644581102.984375,P02,D03,0,1,1
1521,0.3,1644581103.0,P02,D03,0,1,1
1522,0.23,1644581103.015625,P02,D03,0,1,1
1523,0.16,1644581103.03125,P02,D03,0,1,1
1524,0.11,1644581103.046875,P02,D03,0,1,1
1525,0.06,1644581103.0625,P02,D03,0,1,1
1526,-0.05,1644581103.078125,P02,D03,0,1,1
1527,-0.27,1644581103.09375,P02,D03,0,1,1
1528,-0.58,1644581103.109375,P02,D03,0,1,1
1529,-0.91,1644581103.125,P02,D03,0,1,1
1530,-1.13,1644581103.140625,P02,D03,0,1,1
1531,-1.15,1644581103.15625,P02,D03,0,1,1
1532,-0.92,1644581103.171875,P02,D03,0,1,1
1533,-0.52,1644581103.1875,P02,D03,0,1,1
1534,-0.11,1644581103.203125,P02,D03,0,1,1
1535,0.13,1644581103.21875,P02,D03,0,1,1
1536,0.15,1644581103.234375,P02,D03,0,1,1
1537,-0.02,1644581103.25,P02,D03,0,1,1
1538,-0.2,1644581103.265625,P02,D03,0,1,1
1539,-0.28,1644581103.28125,P02,D03,0,1,1
1540,-0.18,1644581103.296875,P02,D03,0,1,1
1541,0.03,1644581103.3125,P02,D03,0,1,1
1542,0.21,1644581103.328125,P02,D03,0,1,1
1543,0.25,1644581103.34375,P02,D03,0,1,1
1544,0.1,1644581103.359375,P02,D03,0,1,1
1545,-0.16,1644581103.375,P02,D03,0,1,1
1546,-0.42,1644581103.390625,P02,D03,0,1,1
1547,-0.55,1644581103.40625,P02,D03,0,1,1
1548,-0.5,1644581103.421875,P02,D03,0,1,1
1549,-0.27,1644581103.4375,P02,D03,0,1,1
1550,0.09,1644581103.453125,P02,D03,0,1,1
1551,0.47,1644581103.46875,P02,D03,0,1,1
1552,0.77,1644581103.484375,P02,D03,0,1,1
1553,0.89,1644581103.5,P02,D03,0,1,1
1554,0.8,1644581103.515625,P02,D03,0,1,1
1555,0.52,1644581103.53125,P02,D03,0,1,1
1556,0.13,1644581103.546875,P02,D03,0,1,1
1557,-0.22,1644581103.5625,P02,D03,0,1,1
1558,-0.41,1644581103.578125,P02,D03,0,1,1
1559,-0.4,1644581103.59375,P02,D03,0,1,1
1560,-0.21,1644581103.609375,P02,D03,0,1,1
1561,0.07,1644581103.625,P02,D03,0,1,1
1562,0.35,1644581103.640625,P02,D03,0,1,1
1563,0.55,1644581103.65625,P02,D03,0,1,1
1564,0.66,1644581103.671875,P02,D03,0,1,1
1565,0.71,1644581103.6875,P02,D03,0,1,1
1566,0.74,1644581103.703125,P02,D03,0,1,1
1567,0.75,1644581103.71875,P02,D03,0,1,1
1568,0.73,1644581103.734375,P02,D03,0,1,1
1569,0.66,1644581103.75,P02,D03,0,1,1
1570,0.53,1644581103.765625,P02,D03,0,1,1
1571,0.34,1644581103.78125,P02,D03,0,1,1
1572,0.12,1644581103.796875,P02,D03,0,1,1
1573,-0.11,1644581103.8125,P02,D03,0,1,1
1574,-0.31,1644581103.828125,P02,D03,0,1,1
1575,-0.48,1644581103.84375,P02,D03,0,1,1
1576,-0.61,1644581103.859375,P02,D03,0,1,1
1577,-0.71,1644581103.875,P02,D03,0,1,1
1578,-0.73,1644581103.890625,P02,D03,0,1,1
1579,-0.67,1644581103.90625,P02,D03,0,1,1
1580,-0.5,1644581103.921875,P02,D03,0,1,1
1581,-0.29,1644581103.9375,P02,D03,0,1,1
1582,-0.08,1644581103.953125,P02,D03,0,1,1
1583,0.05,1644581103.96875,P02,D03,0,1,1
1584,0.05,1644581103.984375,P02,D03,0,1,1
1585,-0.05,1644581104.0,P02,D03,0,1,1
1586,-0.21,1644581104.015625,P02,D03,0,1,1
1587,-0.35,1644581104.03125,P02,D03,0,1,1
1588,-0.45,1644581104.046875,P02,D03,0,1,1
1589,-0.47,1644581104.0625,P02,D03,0,1,1
1590,-0.44,1644581104.078125,P02,D03,0,1,1
1591,-0.41,1644581104.09375,P02,D03,0,1,1
1592,-0.39,1644581104.109375,P02,D03,0,1,1
1593,-0.38,1644581104.125,P02,D03,0,1,1
1594,-0.37,1644581104.140625,P02,D03,0,1,1
1595,-0.33,1644581104.15625,P02,D03,0,1,1
1596,-0.27,1644581104.171875,P02,D03,0,1,1
1597,-0.21,1644581104.1875,P02,D03,0,1,1
1598,-0.17,1644581104.203125,P02,D03,0,1,1
1599,-0.16,1644581104.21875,P02,D03,0,1,1
1600,-0.15,1644581104.234375,P02,D03,0,1,1
1601,-0.09,1644581104.25,P02,D03,0,1,1
1602,0.02,1644581104.265625,P02,D03,0,1,1
1603,0.16,1644581104.28125,P02,D03,0,1,1
1604,0.28,1644581104.296875,P02,D03,0,1,1
1605,0.3,1644581104.3125,P02,D03,0,1,1
1606,0.22,1644581104.328125,P02,D03,0,1,1
1607,0.08,1644581104.34375,P02,D03,0,1,1
1608,-0.04,1644581104.359375,P02,D03,0,1,1
1609,-0.06,1644581104.375,P02,D03,0,1,1
1610,0.09,1644581104.390625,P02,D03,0,1,1
1611,0.39,1644581104.40625,P02,D03,0,1,1
1612,0.76,1644581104.421875,P02,D03,0,1,1
1613,1.09,1644581104.4375,P02,D03,0,1,1
1614,1.3,1644581104.453125,P02,D03,0,1,1
1615,1.35,1644581104.46875,P02,D03,0,1,1
1616,1.26,1644581104.484375,P02,D03,0,1,1
1617,1.07,1644581104.5,P02,D03,0,1,1
1618,0.83,1644581104.515625,P02,D03,0,1,1
1619,0.57,1644581104.53125,P02,D03,0,1,1
1620,0.31,1644581104.546875,P02,D03,0,1,1
1621,0.08,1644581104.5625,P02,D03,0,1,1
1622,-0.07,1644581104.578125,P02,D03,0,1,1
1623,-0.11,1644581104.59375,P02,D03,0,1,1
1624,-0.04,1644581104.609375,P02,D03,0,1,1
1625,0.1,1644581104.625,P02,D03,0,1,1
1626,0.21,1644581104.640625,P02,D03,0,1,1
1627,0.2,1644581104.65625,P02,D03,0,1,1
1628,0.05,1644581104.671875,P02,D03,0,1,1
1629,-0.23,1644581104.6875,P02,D03,0,1,1
1630,-0.54,1644581104.703125,P02,D03,0,1,1
1631,-0.75,1644581104.71875,P02,D03,0,1,1
1632,-0.79,1644581104.734375,P02,D03,0,1,1
1633,-0.61,1644581104.75,P02,D03,0,1,1
1634,-0.27,1644581104.765625,P02,D03,0,1,1
1635,0.15,1644581104.78125,P02,D03,0,1,1
1636,0.51,1644581104.796875,P02,D03,0,1,1
1637,0.7,1644581104.8125,P02,D03,0,1,1
1638,0.64,1644581104.828125,P02,D03,0,1,1
1639,0.38,1644581104.84375,P02,D03,0,1,1
1640,0.06,1644581104.859375,P02,D03,0,1,1
1641,-0.17,1644581104.875,P02,D03,0,1,1
1642,-0.2,1644581104.890625,P02,D03,0,1,1
1643,-0.07,1644581104.90625,P02,D03,0,1,1
1644,0.09,1644581104.921875,P02,D03,0,1,1
1645,0.12,1644581104.9375,P02,D03,0,1,1
1646,-0.05,1644581104.953125,P02,D03,0,1,1
1647,-0.35,1644581104.96875,P02,D03,0,1,1
1648,-0.61,1644581104.984375,P02,D03,0,1,1
1649,-0.69,1644581105.0,P02,D03,0,1,1
1650,-0.53,1644581105.015625,P02,D03,0,1,1
1651,-0.21,1644581105.03125,P02,D03,0,1,1
1652,0.12,1644581105.046875,P02,D03,0,1,1
1653,0.33,1644581105.0625,P02,D03,0,1,1
1654,0.37,1644581105.078125,P02,D03,0,1,1
1655,0.3,1644581105.09375,P02,D03,0,1,1
1656,0.2,1644581105.109375,P02,D03,0,1,1
1657,0.12,1644581105.125,P02,D03,0,1,1
1658,0.06,1644581105.140625,P02,D03,0,1,1
1659,-0.0,1644581105.15625,P02,D03,0,1,1
1660,-0.09,1644581105.171875,P02,D03,0,1,1
1661,-0.16,1644581105.1875,P02,D03,0,1,1
1662,-0.16,1644581105.203125,P02,D03,0,1,1
1663,-0.06,1644581105.21875,P02,D03,0,1,1
1664,0.1,1644581105.234375,P02,D03,0,1,1
1665,0.26,1644581105.25,P02,D03,0,1,1
1666,0.34,1644581105.265625,P02,D03,0,1,1
1667,0.34,1644581105.28125,P02,D03,0,1,1
1668,0.28,1644581105.296875,P02,D03,0,1,1
1669,0.27,1644581105.3125,P02,D03,0,1,1
1670,0.34,1644581105.328125,P02,D03,0,1,1
1671,0.49,1644581105.34375,P02,D03,0,1,1
1672,0.64,1644581105.359375,P02,D03,0,1,1
1673,0.7,1644581105.375,P02,D03,0,1,1
1674,0.63,1644581105.390625,P02,D03,0,1,1
1675,0.46,1644581105.40625,P02,D03,0,1,1
1676,0.26,1644581105.421875,P02,D03,0,1,1
1677,0.14,1644581105.4375,P02,D03,0,1,1
1678,0.11,1644581105.453125,P02,D03,0,1,1
1679,0.17,1644581105.46875,P02,D03,0,1,1
1680,0.25,1644581105.484375,P02,D03,0,1,1
1681,0.3,1644581105.5,P02,D03,0,1,1
1682,0.28,1644581105.515625,P02,D03,0,1,1
1683,0.19,1644581105.53125,P02,D03,0,1,1
1684,0.02,1644581105.546875,P02,D03,0,1,1
1685,-0.19,1644581105.5625,P02,D03,0,1,1
1686,-0.38,1644581105.578125,P02,D03,0,1,1
1687,-0.46,1644581105.59375,P02,D03,0,1,1
1688,-0.39,1644581105.609375,P02,D03,0,1,1
1689,-0.17,1644581105.625,P02,D03,0,1,1
1690,0.08,1644581105.640625,P02,D03,0,1,1
1691,0.24,1644581105.65625,P02,D03,0,1,1
1692,0.18,1644581105.671875,P02,D03,0,1,1
1693,-0.09,1644581105.6875,P02,D03,0,1,1
1694,-0.47,1644581105.703125,P02,D03,0,1,1
1695,-0.76,1644581105.71875,P02,D03,0,1,1
1696,-0.85,1644581105.734375,P02,D03,0,1,1
1697,-0.69,1644581105.75,P02,D03,0,1,1
1698,-0.42,1644581105.765625,P02,D03,0,1,1
1699,-0.2,1644581105.78125,P02,D03,0,1,1
1700,-0.2,1644581105.796875,P02,D03,0,1,1
1701,-0.44,1644581105.8125,P02,D03,0,1,1
1702,-0.81,1644581105.828125,P02,D03,0,1,1
1703,-1.14,1644581105.84375,P02,D03,0,1,1
1704,-1.26,1644581105.859375,P02,D03,0,1,1
1705,-1.1,1644581105.875,P02,D03,0,1,1
1706,-0.7,1644581105.890625,P02,D03,0,1,1
1707,-0.19,1644581105.90625,P02,D03,0,1,1
1708,0.26,1644581105.921875,P02,D03,0,1,1
1709,0.53,1644581105.9375,P02,D03,0,1,1
1710,0.58,1644581105.953125,P02,D03,0,1,1
1711,0.46,1644581105.96875,P02,D03,0,1,1
1712,0.26,1644581105.984375,P02,D03,0,1,1
1713,0.07,1644581106.0,P02,D03,0,1,1
1714,-0.08,1644581106.015625,P02,D03,0,1,1
1715,-0.19,1644581106.03125,P02,D03,0,1,1
1716,-0.32,1644581106.046875,P02,D03,0,1,1
1717,-0.47,1644581106.0625,P02,D03,0,1,1
1718,-0.62,1644581106.078125,P02,D03,0,1,1
1719,-0.71,1644581106.09375,P02,D03,0,1,1
1720,-0.7,1644581106.109375,P02,D03,0,1,1
1721,-0.6,1644581106.125,P02,D03,0,1,1
1722,-0.46,1644581106.140625,P02,D03,0,1,1
1723,-0.35,1644581106.15625,P02,D03,0,1,1
1724,-0.29,1644581106.171875,P02,D03,0,1,1
1725,-0.25,1644581106.1875,P02,D03,0,1,1
1726,-0.16,1644581106.203125,P02,D03,0,1,1
1727,0.05,1644581106.21875,P02,D03,0,1,1
1728,0.36,1644581106.234375,P02,D03,0,1,1
1729,0.68,1644581106.25,P02,D03,0,1,1
1730,0.91,1644581106.265625,P02,D03,0,1,1
1731,0.98,1644581106.28125,P02,D03,0,1,1
1732,0.87,1644581106.296875,P02,D03,0,1,1
1733,0.64,1644581106.3125,P02,D03,0,1,1
1734,0.36,1644581106.328125,P02,D03,0,1,1
1735,0.11,1644581106.34375,P02,D03,0,1,1
1736,-0.05,1644581106.359375,P02,D03,0,1,1
1737,-0.08,1644581106.375,P02,D03,0,1,1
1738,0.0,1644581106.390625,P02,D03,0,1,1
1739,0.16,1644581106.40625,P02,D03,0,1,1
1740,0.31,1644581106.421875,P02,D03,0,1,1
1741,0.38,1644581106.4375,P02,D03,0,1,1
1742,0.36,1644581106.453125,P02,D03,0,1,1
1743,0.3,1644581106.46875,P02,D03,0,1,1
1744,0.26,1644581106.484375,P02,D03,0,1,1
1745,0.3,1644581106.5,P02,D03,0,1,1
1746,0.38,1644581106.515625,P02,D03,0,1,1
1747,0.42,1644581106.53125,P02,D03,0,1,1
1748,0.35,1644581106.546875,P02,D03,0,1,1
1749,0.17,1644581106.5625,P02,D03,0,1,1
1750,-0.05,1644581106.578125,P02,D03,0,1,1
1751,-0.17,1644581106.59375,P02,D03,0,1,1
1752,-0.09,1644581106.609375,P02,D03,0,1,1
1753,0.17,1644581106.625,P02,D03,0,1,1
1754,0.49,1644581106.640625,P02,D03,0,1,1
1755,0.69,1644581106.65625,P02,D03,0,1,1
1756,0.67,1644581106.671875,P02,D03,0,1,1
1757,0.44,1644581106.6875,P02,D03,0,1,1
1758,0.11,1644581106.703125,P02,D03,0,1,1
1759,-0.2,1644581106.71875,P02,D03,0,1,1
1760,-0.41,1644581106.734375,P02,D03,0,1,1
1761,-0.51,1644581106.75,P02,D03,0,1,1
1762,-0.56,1644581106.765625,P02,D03,0,1,1
1763,-0.62,1644581106.78125,P02,D03,0,1,1
1764,-0.67,1644581106.796875,P02,D03,0,1,1
1765,-0.66,1644581106.8125,P02,D03,0,1,1
1766,-0.58,1644581106.828125,P02,D03,0,1,1
1767,-0.43,1644581106.84375,P02,D03,0,1,1
1768,-0.29,1644581106.859375,P02,D03,0,1,1
1769,-0.24,1644581106.875,P02,D03,0,1,1
1770,-0.31,1644581106.890625,P02,D03,0,1,1
1771,-0.42,1644581106.90625,P02,D03,0,1,1
1772,-0.46,1644581106.921875,P02,D03,0,1,1
1773,-0.31,1644581106.9375,P02,D03,0,1,1
1774,0.04,1644581106.953125,P02,D03,0,1,1
1775,0.48,1644581106.96875,P02,D03,0,1,1
1776,0.83,1644581106.984375,P02,D03,0,1,1
1777,0.94,1644581107.0,P02,D03,0,1,1
1778,0.78,1644581107.015625,P02,D03,0,1,1
1779,0.45,1644581107.03125,P02,D03,0,1,1
1780,0.15,1644581107.046875,P02,D03,0,1,1
1781,0.02,1644581107.0625,P02,D03,0,1,1
1782,0.1,1644581107.078125,P02,D03,0,1,1
1783,0.28,1644581107.09375,P02,D03,0,1,1
1784,0.43,1644581107.109375,P02,D03,0,1,1
1785,0.43,1644581107.125,P02,D03,0,1,1
1786,0.29,1644581107.140625,P02,D03,0,1,1
1787,0.11,1644581107.15625,P02,D03,0,1,1
1788,0.02,1644581107.171875,P02,D03,0,1,1
1789,0.05,1644581107.1875,P02,D03,0,1,1
1790,0.16,1644581107.203125,P02,D03,0,1,1
1791,0.23,1644581107.21875,P02,D03,0,1,1
1792,0.17,1644581107.234375,P02,D03,0,1,1
1793,-0.01,1644581107.25,P02,D03,0,1,1
1794,-0.23,1644581107.265625,P02,D03,0,1,1
1795,-0.37,1644581107.28125,P02,D03,0,1,1
1796,-0.37,1644581107.296875,P02,D03,0,1,1
1797,-0.27,1644581107.3125,P02,D03,0,1,1
1798,-0.17,1644581107.328125,P02,D03,0,1,1
1799,-0.16,1644581107.34375,P02,D03,0,1,1
1800,-0.23,1644581107.359375,P02,D03,0,1,1
1801,-0.32,1644581107.375,P02,D03,0,1,1
1802,-0.32,1644581107.390625,P02,D03,0,1,1
1803,-0.17,1644581107.40625,P02,D03,0,1,1
1804,0.1,1644581107.421875,P02,D03,0,1,1
1805,0.39,1644581107.4375,P02,D03,0,1,1
1806,0.57,1644581107.453125,P02,D03,0,1,1
1807,0.53,1644581107.46875,P02,D03,0,1,1
1808,0.31,1644581107.484375,P02,D03,0,1,1
1809,-0.02,1644581107.5,P02,D03,0,1,1
1810,-0.33,1644581107.515625,P02,D03,0,1,1
1811,-0.49,1644581107.53125,P02,D03,0,1,1
1812,-0.48,1644581107.546875,P02,D03,0,1,1
1813,-0.33,1644581107.5625,P02,D03,0,1,1
1814,-0.13,1644581107.578125,P02,D03,0,1,1
1815,0.04,1644581107.59375,P02,D03,0,1,1
1816,0.14,1644581107.609375,P02,D03,0,1,1
1817,0.19,1644581107.625,P02,D03,0,1,1
1818,0.24,1644581107.640625,P02,D03,0,1,1
1819,0.29,1644581107.65625,P02,D03,0,1,1
1820,0.35,1644581107.671875,P02,D03,0,1,1
1821,0.37,1644581107.6875,P02,D03,0,1,1
1822,0.33,1644581107.703125,P02,D03,0,1,1
1823,0.22,1644581107.71875,P02,D03,0,1,1
1824,0.07,1644581107.734375,P02,D03,0,1,1
1825,-0.06,1644581107.75,P02,D03,0,1,1
1826,-0.15,1644581107.765625,P02,D03,0,1,1
1827,-0.21,1644581107.78125,P02,D03,0,1,1
1828,-0.29,1644581107.796875,P02,D03,0,1,1
1829,-0.44,1644581107.8125,P02,D03,0,1,1
1830,-0.68,1644581107.828125,P02,D03,0,1,1
1831,-0.95,1644581107.84375,P02,D03,0,1,1
1832,-1.14,1644581107.859375,P02,D03,0,1,1
1833,-1.13,1644581107.875,P02,D03,0,1,1
1834,-0.92,1644581107.890625,P02,D03,0,1,1
1835,-0.58,1644581107.90625,P02,D03,0,1,1
1836,-0.26,1644581107.921875,P02,D03,0,1,1
1837,-0.12,1644581107.9375,P02,D03,0,1,1
1838,-0.24,1644581107.953125,P02,D03,0,1,1
1839,-0.53,1644581107.96875,P02,D03,0,1,1
1840,-0.83,1644581107.984375,P02,D03,0,1,1
1841,-0.91,1644581108.0,P02,D03,0,1,1
1842,-0.68,1644581108.015625,P02,D03,0,1,1
1843,-0.18,1644581108.03125,P02,D03,0,1,1
1844,0.42,1644581108.046875,P02,D03,0,1,1
1845,0.88,1644581108.0625,P02,D03,0,1,1
1846,1.11,1644581108.078125,P02,D03,0,1,1
1847,1.09,1644581108.09375,P02,D03,0,1,1
1848,0.94,1644581108.109375,P02,D03,0,1,1
1849,0.79,1644581108.125,P02,D03,0,1,1
1850,0.7,1644581108.140625,P02,D03,0,1,1
1851,0.67,1644581108.15625,P02,D03,0,1,1
1852,0.64,1644581108.171875,P02,D03,0,1,1
1853,0.57,1644581108.1875,P02,D03,0,1,1
1854,0.5,1644581108.203125,P02,D03,0,1,1
1855,0.46,1644581108.21875,P02,D03,0,1,1
1856,0.49,1644581108.234375,P02,D03,0,1,1
1857,0.56,1644581108.25,P02,D03,0,1,1
1858,0.6,1644581108.265625,P02,D03,0,1,1
1859,0.55,1644581108.28125,P02,D03,0,1,1
1860,0.39,1644581108.296875,P02,D03,0,1,1
1861,0.17,1644581108.3125,P02,D03,0,1,1
1862,-0.03,1644581108.328125,P02,D03,0,1,1
1863,-0.19,1644581108.34375,P02,D03,0,1,1
1864,-0.28,1644581108.359375,P02,D03,0,1,1
1865,-0.33,1644581108.375,P02,D03,0,1,1
1866,-0.36,1644581108.390625,P02,D03,0,1,1
1867,-0.34,1644581108.40625,P02,D03,0,1,1
1868,-0.29,1644581108.421875,P02,D03,0,1,1
1869,-0.2,1644581108.4375,P02,D03,0,1,1
1870,-0.13,1644581108.453125,P02,D03,0,1,1
1871,-0.1,1644581108.46875,P02,D03,0,1,1
1872,-0.15,1644581108.484375,P02,D03,0,1,1
1873,-0.27,1644581108.5,P02,D03,0,1,1
1874,-0.41,1644581108.515625,P02,D03,0,1,1
1875,-0.5,1644581108.53125,P02,D03,0,1,1
1876,-0.47,1644581108.546875,P02,D03,0,1,1
1877,-0.32,1644581108.5625,P02,D03,0,1,1
1878,-0.11,1644581108.578125,P02,D03,0,1,1
1879,0.11,1644581108.59375,P02,D03,0,1,1
1880,0.29,1644581108.609375,P02,D03,0,1,1
1881,0.41,1644581108.625,P02,D03,0,1,1
1882,0.46,1644581108.640625,P02,D03,0,1,1
1883,0.45,1644581108.65625,P02,D03,0,1,1
1884,0.39,1644581108.671875,P02,D03,0,1,1
1885,0.31,1644581108.6875,P02,D03,0,1,1
1886,0.23,1644581108.703125,P02,D03,0,1,1
1887,0.15,1644581108.71875,P02,D03,0,1,1
1888,0.06,1644581108.734375,P02,D03,0,1,1
1889,-0.05,1644581108.75,P02,D03,0,1,1
1890,-0.18,1644581108.765625,P02,D03,0,1,1
1891,-0.32,1644581108.78125,P02,D03,0,1,1
1892,-0.43,1644581108.796875,P02,D03,0,1,1
1893,-0.48,1644581108.8125,P02,D03,0,1,1
1894,-0.46,1644581108.828125,P02,D03,0,1,1
1895,-0.4,1644581108.84375,P02,D03,0,1,1
1896,-0.34,1644581108.859375,P02,D03,0,1,1
1897,-0.33,1644581108.875,P02,D03,0,1,1
1898,-0.36,1644581108.890625,P02,D03,0,1,1
1899,-0.36,1644581108.90625,P02,D03,0,1,1
1900,-0.28,1644581108.921875,P02,D03,0,1,1
1901,-0.1,1644581108.9375,P02,D03,0,1,1
1902,0.15,1644581108.953125,P02,D03,0,1,1
1903,0.39,1644581108.96875,P02,D03,0,1,1
1904,0.55,1644581108.984375,P02,D03,0,1,1
1905,0.61,1644581109.0,P02,D03,0,1,1
1906,0.56,1644581109.015625,P02,D03,0,1,1
1907,0.42,1644581109.03125,P02,D03,0,1,1
1908,0.17,1644581109.046875,P02,D03,0,1,1
1909,-0.17,1644581109.0625,P02,D03,0,1,1
1910,-0.58,1644581109.078125,P02,D03,0,1,1
1911,-0.93,1644581109.09375,P02,D03,0,1,1
1912,-1.13,1644581109.109375,P02,D03,0,1,1
1913,-1.09,1644581109.125,P02,D03,0,1,1
1914,-0.8,1644581109.140625,P02,D03,0,1,1
1915,-0.36,1644581109.15625,P02,D03,0,1,1
1916,0.1,1644581109.171875,P02,D03,0,1,1
1917,0.46,1644581109.1875,P02,D03,0,1,1
1918,0.66,1644581109.203125,P02,D03,0,1,1
1919,0.69,1644581109.21875,P02,D03,0,1,1
1920,0.58,1644581109.234375,P02,D03,0,1,1
1921,0.37,1644581109.25,P02,D03,0,1,1
1922,0.11,1644581109.265625,P02,D03,0,1,1
1923,-0.14,1644581109.28125,P02,D03,0,1,1
1924,-0.28,1644581109.296875,P02,D03,0,1,1
1925,-0.28,1644581109.3125,P02,D03,0,1,1
1926,-0.13,1644581109.328125,P02,D03,0,1,1
1927,0.1,1644581109.34375,P02,D03,0,1,1
1928,0.33,1644581109.359375,P02,D03,0,1,1
1929,0.48,1644581109.375,P02,D03,0,1,1
1930,0.53,1644581109.390625,P02,D03,0,1,1
1931,0.47,1644581109.40625,P02,D03,0,1,1
1932,0.36,1644581109.421875,P02,D03,0,1,1
1933,0.21,1644581109.4375,P02,D03,0,1,1
1934,0.05,1644581109.453125,P02,D03,0,1,1
1935,-0.13,1644581109.46875,P02,D03,0,1,1
1936,-0.3,1644581109.484375,P02,D03,0,1,1
1937,-0.43,1644581109.5,P02,D03,0,1,1
1938,-0.5,1644581109.515625,P02,D03,0,1,1
1939,-0.49,1644581109.53125,P02,D03,0,1,1
1940,-0.41,1644581109.546875,P02,D03,0,1,1
1941,-0.29,1644581109.5625,P02,D03,0,1,1
1942,-0.15,1644581109.578125,P02,D03,0,1,1
1943,0.0,1644581109.59375,P02,D03,0,1,1
1944,0.17,1644581109.609375,P02,D03,0,1,1
1945,0.38,1644581109.625,P02,D03,0,1,1
1946,0.63,1644581109.640625,P02,D03,0,1,1
1947,0.9,1644581109.65625,P02,D03,0,1,1
1948,1.12,1644581109.671875,P02,D03,0,1,1
1949,1.19,1644581109.6875,P02,D03,0,1,1
1950,1.02,1644581109.703125,P02,D03,0,1,1
1951,0.59,1644581109.71875,P02,D03,0,1,1
1952,-0.02,1644581109.734375,P02,D03,0,1,1
1953,-0.67,1644581109.75,P02,D03,0,1,1
1954,-1.15,1644581109.765625,P02,D03,0,1,1
1955,-1.3,1644581109.78125,P02,D03,0,1,1
1956,-1.09,1644581109.796875,P02,D03,0,1,1
1957,-0.6,1644581109.8125,P02,D03,0,1,1
1958,-0.04,1644581109.828125,P02,D03,0,1,1
1959,0.38,1644581109.84375,P02,D03,0,1,1
1960,0.55,1644581109.859375,P02,D03,0,1,1
1961,0.45,1644581109.875,P02,D03,0,1,1
1962,0.2,1644581109.890625,P02,D03,0,1,1
1963,-0.05,1644581109.90625,P02,D03,0,1,1
1964,-0.21,1644581109.921875,P02,D03,0,1,1
1965,-0.25,1644581109.9375,P02,D03,0,1,1
1966,-0.22,1644581109.953125,P02,D03,0,1,1
1967,-0.2,1644581109.96875,P02,D03,0,1,1
1968,-0.2,1644581109.984375,P02,D03,0,1,1
1969,-0.19,1644581110.0,P02,D03,0,1,1
1970,-0.15,1644581110.015625,P02,D03,0,1,1
1971,-0.04,1644581110.03125,P02,D03,0,1,1
1972,0.08,1644581110.046875,P02,D03,0,1,1
1973,0.15,1644581110.0625,P02,D03,0,1,1
1974,0.12,1644581110.078125,P02,D03,0,1,1
1975,-0.03,1644581110.09375,P02,D03,0,1,1
1976,-0.22,1644581110.109375,P02,D03,0,1,1
1977,-0.37,1644581110.125,P02,D03,0,1,1
1978,-0.4,1644581110.140625,P02,D03,0,1,1
1979,-0.32,1644581110.15625,P02,D03,0,1,1
1980,-0.21,1644581110.171875,P02,D03,0,1,1
1981,-0.17,1644581110.1875,P02,D03,0,1,1
1982,-0.29,1644581110.203125,P02,D03,0,1,1
1983,-0.58,1644581110.21875,P02,D03,0,1,1
1984,-0.96,1644581110.234375,P02,D03,0,1,1
1985,-1.28,1644581110.25,P02,D03,0,1,1
1986,-1.44,1644581110.265625,P02,D03,0,1,1
1987,-1.39,1644581110.28125,P02,D03,0,1,1
1988,-1.15,1644581110.296875,P02,D03,0,1,1
1989,-0.79,1644581110.3125,P02,D03,0,1,1
1990,-0.38,1644581110.328125,P02,D03,0,1,1
1991,0.02,1644581110.34375,P02,D03,0,1,1
1992,0.37,1644581110.359375,P02,D03,0,1,1
1993,0.62,1644581110.375,P02,D03,0,1,1
1994,0.73,1644581110.390625,P02,D03,0,1,1
1995,0.68,1644581110.40625,P02,D03,0,1,1
1996,0.5,1644581110.421875,P02,D03,0,1,1
1997,0.27,1644581110.4375,P02,D03,0,1,1
1998,0.1,1644581110.453125,P02,D03,0,1,1
1999,0.07,1644581110.46875,P02,D03,0,1,1
2000,0.18,1644581110.484375,P02,D03,0,1,1
2001,0.38,1644581110.5,P02,D03,0,1,1
2002,0.56,1644581110.515625,P02,D03,0,1,1
2003,0.63,1644581110.53125,P02,D03,0,1,1
2004,0.55,1644581110.546875,P02,D03,0,1,1
2005,0.36,1644581110.5625,P02,D03,0,1,1
2006,0.15,1644581110.578125,P02,D03,0,1,1
2007,0.01,1644581110.59375,P02,D03,0,1,1
2008,0.01,1644581110.609375,P02,D03,0,1,1
2009,0.11,1644581110.625,P02,D03,0,1,1
2010,0.26,1644581110.640625,P02,D03,0,1,1
2011,0.35,1644581110.65625,P02,D03,0,1,1
2012,0.34,1644581110.671875,P02,D03,0,1,1
2013,0.2,1644581110.6875,P02,D03,0,1,1
2014,0.03,1644581110.703125,P02,D03,0,1,1
2015,-0.1,1644581110.71875,P02,D03,0,1,1
2016,-0.09,1644581110.734375,P02,D03,0,1,1
2017,0.06,1644581110.75,P02,D03,0,1,1
2018,0.28,1644581110.765625,P02,D03,0,1,1
2019,0.47,1644581110.78125,P02,D03,0,1,1
2020,0.56,1644581110.796875,P02,D03,0,1,1
2021,0.52,1644581110.8125,P02,D03,0,1,1
2022,0.41,1644581110.828125,P02,D03,0,1,1
2023,0.28,1644581110.84375,P02,D03,0,1,1
2024,0.2,1644581110.859375,P02,D03,0,1,1
2025,0.17,1644581110.875,P02,D03,0,1,1
2026,0.18,1644581110.890625,P02,D03,0,1,1
2027,0.19,1644581110.90625,P02,D03,0,1,1
2028,0.16,1644581110.921875,P02,D03,0,1,1
2029,0.07,1644581110.9375,P02,D03,0,1,1
2030,-0.08,1644581110.953125,P02,D03,0,1,1
2031,-0.29,1644581110.96875,P02,D03,0,1,1
2032,-0.54,1644581110.984375,P02,D03,0,1,1
2033,-0.78,1644581111.0,P02,D03,0,1,1
2034,-0.92,1644581111.015625,P02,D03,0,1,1
2035,-0.86,1644581111.03125,P02,D03,0,1,1
2036,-0.57,1644581111.046875,P02,D03,0,1,1
2037,-0.08,1644581111.0625,P02,D03,0,1,1
2038,0.49,1644581111.078125,P02,D03,0,1,1
2039,0.98,1644581111.09375,P02,D03,0,1,1
2040,1.26,1644581111.109375,P02,D03,0,1,1
2041,1.27,1644581111.125,P02,D03,0,1,1
2042,1.07,1644581111.140625,P02,D03,0,1,1
2043,0.76,1644581111.15625,P02,D03,0,1,1
2044,0.44,1644581111.171875,P02,D03,0,1,1
2045,0.19,1644581111.1875,P02,D03,0,1,1
2046,0.02,1644581111.203125,P02,D03,0,1,1
2047,-0.05,1644581111.21875,P02,D03,0,1,1
2048,-0.0,1644581111.234375,P02,D03,0,1,1
2049,0.14,1644581111.25,P02,D03,0,1,1
2050,0.33,1644581111.265625,P02,D03,0,1,1
2051,0.5,1644581111.28125,P02,D03,0,1,1
2052,0.54,1644581111.296875,P02,D03,0,1,1
2053,0.41,1644581111.3125,P02,D03,0,1,1
2054,0.1,1644581111.328125,P02,D03,0,1,1
2055,-0.29,1644581111.34375,P02,D03,0,1,1
2056,-0.61,1644581111.359375,P02,D03,0,1,1
2057,-0.74,1644581111.375,P02,D03,0,1,1
2058,-0.64,1644581111.390625,P02,D03,0,1,1
2059,-0.33,1644581111.40625,P02,D03,0,1,1
2060,0.05,1644581111.421875,P02,D03,0,1,1
2061,0.36,1644581111.4375,P02,D03,0,1,1
2062,0.5,1644581111.453125,P02,D03,0,1,1
2063,0.44,1644581111.46875,P02,D03,0,1,1
2064,0.23,1644581111.484375,P02,D03,0,1,1
2065,-0.02,1644581111.5,P02,D03,0,1,1
2066,-0.19,1644581111.515625,P02,D03,0,1,1
2067,-0.22,1644581111.53125,P02,D03,0,1,1
2068,-0.11,1644581111.546875,P02,D03,0,1,1
2069,0.06,1644581111.5625,P02,D03,0,1,1
2070,0.21,1644581111.578125,P02,D03,0,1,1
2071,0.27,1644581111.59375,P02,D03,0,1,1
2072,0.24,1644581111.609375,P02,D03,0,1,1
2073,0.19,1644581111.625,P02,D03,0,1,1
2074,0.18,1644581111.640625,P02,D03,0,1,1
2075,0.24,1644581111.65625,P02,D03,0,1,1
2076,0.36,1644581111.671875,P02,D03,0,1,1
2077,0.47,1644581111.6875,P02,D03,0,1,1
2078,0.53,1644581111.703125,P02,D03,0,1,1
2079,0.51,1644581111.71875,P02,D03,0,1,1
2080,0.43,1644581111.734375,P02,D03,0,1,1
2081,0.33,1644581111.75,P02,D03,0,1,1
2082,0.24,1644581111.765625,P02,D03,0,1,1
2083,0.19,1644581111.78125,P02,D03,0,1,1
2084,0.13,1644581111.796875,P02,D03,0,1,1
2085,0.04,1644581111.8125,P02,D03,0,1,1
2086,-0.13,1644581111.828125,P02,D03,0,1,1
2087,-0.38,1644581111.84375,P02,D03,0,1,1
2088,-0.66,1644581111.859375,P02,D03,0,1,1
2089,-0.91,1644581111.875,P02,D03,0,1,1
2090,-1.05,1644581111.890625,P02,D03,0,1,1
2091,-1.06,1644581111.90625,P02,D03,0,1,1
2092,-0.95,1644581111.921875,P02,D03,0,1,1
2093,-0.77,1644581111.9375,P02,D03,0,1,1
2094,-0.55,1644581111.953125,P02,D03,0,1,1
2095,-0.32,1644581111.96875,P02,D03,0,1,1
2096,-0.1,1644581111.984375,P02,D03,0,1,1
2097,0.09,1644581112.0,P02,D03,0,1,1
2098,0.22,1644581112.015625,P02,D03,0,1,1
2099,0.28,1644581112.03125,P02,D03,0,1,1
2100,0.31,1644581112.046875,P02,D03,0,1,1
2101,0.34,1644581112.0625,P02,D03,0,1,1
2102,0.44,1644581112.078125,P02,D03,0,1,1
2103,0.61,1644581112.09375,P02,D03,0,1,1
2104,0.8,1644581112.109375,P02,D03,0,1,1
2105,0.88,1644581112.125,P02,D03,0,1,1
2106,0.79,1644581112.140625,P02,D03,0,1,1
2107,0.51,1644581112.15625,P02,D03,0,1,1
2108,0.15,1644581112.171875,P02,D03,0,1,1
2109,-0.13,1644581112.1875,P02,D03,0,1,1
2110,-0.22,1644581112.203125,P02,D03,0,1,1
2111,-0.11,1644581112.21875,P02,D03,0,1,1
2112,0.11,1644581112.234375,P02,D03,0,1,1
2113,0.28,1644581112.25,P02,D03,0,1,1
2114,0.31,1644581112.265625,P02,D03,0,1,1
2115,0.2,1644581112.28125,P02,D03,0,1,1
2116,0.04,1644581112.296875,P02,D03,0,1,1
2117,-0.05,1644581112.3125,P02,D03,0,1,1
2118,0.01,1644581112.328125,P02,D03,0,1,1
2119,0.17,1644581112.34375,P02,D03,0,1,1
2120,0.35,1644581112.359375,P02,D03,0,1,1
2121,0.42,1644581112.375,P02,D03,0,1,1
2122,0.34,1644581112.390625,P02,D03,0,1,1
2123,0.15,1644581112.40625,P02,D03,0,1,1
2124,-0.06,1644581112.421875,P02,D03,0,1,1
2125,-0.19,1644581112.4375,P02,D03,0,1,1
2126,-0.19,1644581112.453125,P02,D03,0,1,1
2127,-0.11,1644581112.46875,P02,D03,0,1,1
2128,-0.02,1644581112.484375,P02,D03,0,1,1
2129,0.0,1644581112.5,P02,D03,0,1,1
2130,-0.08,1644581112.515625,P02,D03,0,1,1
2131,-0.23,1644581112.53125,P02,D03,0,1,1
2132,-0.37,1644581112.546875,P02,D03,0,1,1
2133,-0.42,1644581112.5625,P02,D03,0,1,1
2134,-0.36,1644581112.578125,P02,D03,0,1,1
2135,-0.21,1644581112.59375,P02,D03,0,1,1
2136,-0.06,1644581112.609375,P02,D03,0,1,1
2137,0.01,1644581112.625,P02,D03,0,1,1
2138,-0.08,1644581112.640625,P02,D03,0,1,1
2139,-0.32,1644581112.65625,P02,D03,0,1,1
2140,-0.61,1644581112.671875,P02,D03,0,1,1
2141,-0.85,1644581112.6875,P02,D03,0,1,1
2142,-0.95,1644581112.703125,P02,D03,0,1,1
2143,-0.89,1644581112.71875,P02,D03,0,1,1
2144,-0.72,1644581112.734375,P02,D03,0,1,1
2145,-0.55,1644581112.75,P02,D03,0,1,1
2146,-0.48,1644581112.765625,P02,D03,0,1,1
2147,-0.58,1644581112.78125,P02,D03,0,1,1
2148,-0.83,1644581112.796875,P02,D03,0,1,1
2149,-1.11,1644581112.8125,P02,D03,0,1,1
2150,-1.31,1644581112.828125,P02,D03,0,1,1
2151,-1.32,1644581112.84375,P02,D03,0,1,1
2152,-1.13,1644581112.859375,P02,D03,0,1,1
2153,-0.79,1644581112.875,P02,D03,0,1,1
2154,-0.42,1644581112.890625,P02,D03,0,1,1
2155,-0.13,1644581112.90625,P02,D03,0,1,1
2156,-0.02,1644581112.921875,P02,D03,0,1,1
2157,-0.07,1644581112.9375,P02,D03,0,1,1
2158,-0.23,1644581112.953125,P02,D03,0,1,1
2159,-0.4,1644581112.96875,P02,D03,0,1,1
2160,-0.49,1644581112.984375,P02,D03,0,1,1
2161,-0.49,1644581113.0,P02,D03,0,1,1
2162,-0.46,1644581113.015625,P02,D03,0,1,1
2163,-0.46,1644581113.03125,P02,D03,0,1,1
2164,-0.52,1644581113.046875,P02,D03,0,1,1
2165,-0.59,1644581113.0625,P02,D03,0,1,1
2166,-0.55,1644581113.078125,P02,D03,0,1,1
2167,-0.3,1644581113.09375,P02,D03,0,1,1
2168,0.18,1644581113.109375,P02,D03,0,1,1
2169,0.8,1644581113.125,P02,D03,0,1,1
2170,1.35,1644581113.140625,P02,D03,0,1,1
2171,1.67,1644581113.15625,P02,D03,0,1,1
2172,1.66,1644581113.171875,P02,D03,0,1,1
2173,1.37,1644581113.1875,P02,D03,0,1,1
2174,0.95,1644581113.203125,P02,D03,0,1,1
2175,0.56,1644581113.21875,P02,D03,0,1,1
2176,0.29,1644581113.234375,P02,D03,0,1,1
2177,0.15,1644581113.25,P02,D03,0,1,1
2178,0.09,1644581113.265625,P02,D03,0,1,1
2179,0.09,1644581113.28125,P02,D03,0,1,1
2180,0.16,1644581113.296875,P02,D03,0,1,1
2181,0.33,1644581113.3125,P02,D03,0,1,1
2182,0.6,1644581113.328125,P02,D03,0,1,1
2183,0.89,1644581113.34375,P02,D03,0,1,1
2184,1.07,1644581113.359375,P02,D03,0,1,1
2185,1.06,1644581113.375,P02,D03,0,1,1
2186,0.81,1644581113.390625,P02,D03,0,1,1
2187,0.43,1644581113.40625,P02,D03,0,1,1
2188,0.07,1644581113.421875,P02,D03,0,1,1
2189,-0.15,1644581113.4375,P02,D03,0,1,1
2190,-0.19,1644581113.453125,P02,D03,0,1,1
2191,-0.1,1644581113.46875,P02,D03,0,1,1
2192,0.03,1644581113.484375,P02,D03,0,1,1
2193,0.16,1644581113.5,P02,D03,0,1,1
2194,0.27,1644581113.515625,P02,D03,0,1,1
2195,0.43,1644581113.53125,P02,D03,0,1,1
2196,0.65,1644581113.546875,P02,D03,0,1,1
2197,0.89,1644581113.5625,P02,D03,0,1,1
2198,1.05,1644581113.578125,P02,D03,0,1,1
2199,1.02,1644581113.59375,P02,D03,0,1,1
2200,0.75,1644581113.609375,P02,D03,0,1,1
2201,0.3,1644581113.625,P02,D03,0,1,1
2202,-0.18,1644581113.640625,P02,D03,0,1,1
2203,-0.51,1644581113.65625,P02,D03,0,1,1
2204,-0.59,1644581113.671875,P02,D03,0,1,1
2205,-0.42,1644581113.6875,P02,D03,0,1,1
2206,-0.11,1644581113.703125,P02,D03,0,1,1
2207,0.18,1644581113.71875,P02,D03,0,1,1
2208,0.34,1644581113.734375,P02,D03,0,1,1
2209,0.34,1644581113.75,P02,D03,0,1,1
2210,0.22,1644581113.765625,P02,D03,0,1,1
2211,0.06,1644581113.78125,P02,D03,0,1,1
2212,-0.08,1644581113.796875,P02,D03,0,1,1
2213,-0.19,1644581113.8125,P02,D03,0,1,1
2214,-0.31,1644581113.828125,P02,D03,0,1,1
2215,-0.47,1644581113.84375,P02,D03,0,1,1
2216,-0.66,1644581113.859375,P02,D03,0,1,1
2217,-0.82,1644581113.875,P02,D03,0,1,1
2218,-0.9,1644581113.890625,P02,D03,0,1,1
2219,-0.83,1644581113.90625,P02,D03,0,1,1
2220,-0.65,1644581113.921875,P02,D03,0,1,1
2221,-0.45,1644581113.9375,P02,D03,0,1,1
2222,-0.34,1644581113.953125,P02,D03,0,1,1
2223,-0.4,1644581113.96875,P02,D03,0,1,1
2224,-0.65,1644581113.984375,P02,D03,0,1,1
2225,-0.98,1644581114.0,P02,D03,0,1,1
2226,-1.27,1644581114.015625,P02,D03,0,1,1
2227,-1.41,1644581114.03125,P02,D03,0,1,1
2228,-1.35,1644581114.046875,P02,D03,0,1,1
2229,-1.12,1644581114.0625,P02,D03,0,1,1
2230,-0.8,1644581114.078125,P02,D03,0,1,1
2231,-0.47,1644581114.09375,P02,D03,0,1,1
2232,-0.16,1644581114.109375,P02,D03,0,1,1
2233,0.11,1644581114.125,P02,D03,0,1,1
2234,0.37,1644581114.140625,P02,D03,0,1,1
2235,0.63,1644581114.15625,P02,D03,0,1,1
2236,0.85,1644581114.171875,P02,D03,0,1,1
2237,1.0,1644581114.1875,P02,D03,0,1,1
2238,1.02,1644581114.203125,P02,D03,0,1,1
2239,0.91,1644581114.21875,P02,D03,0,1,1
2240,0.71,1644581114.234375,P02,D03,0,1,1
2241,0.51,1644581114.25,P02,D03,0,1,1
2242,0.38,1644581114.265625,P02,D03,0,1,1
2243,0.34,1644581114.28125,P02,D03,0,1,1
2244,0.35,1644581114.296875,P02,D03,0,1,1
2245,0.34,1644581114.3125,P02,D03,0,1,1
2246,0.24,1644581114.328125,P02,D03,0,1,1
2247,0.04,1644581114.34375,P02,D03,0,1,1
2248,-0.2,1644581114.359375,P02,D03,0,1,1
2249,-0.37,1644581114.375,P02,D03,0,1,1
2250,-0.4,1644581114.390625,P02,D03,0,1,1
2251,-0.27,1644581114.40625,P02,D03,0,1,1
2252,-0.08,1644581114.421875,P02,D03,0,1,1
2253,0.06,1644581114.4375,P02,D03,0,1,1
2254,0.05,1644581114.453125,P02,D03,0,1,1
2255,-0.11,1644581114.46875,P02,D03,0,1,1
2256,-0.38,1644581114.484375,P02,D03,0,1,1
2257,-0.64,1644581114.5,P02,D03,0,1,1
2258,-0.77,1644581114.515625,P02,D03,0,1,1
2259,-0.75,1644581114.53125,P02,D03,0,1,1
2260,-0.6,1644581114.546875,P02,D03,0,1,1
2261,-0.43,1644581114.5625,P02,D03,0,1,1
2262,-0.32,1644581114.578125,P02,D03,0,1,1
2263,-0.3,1644581114.59375,P02,D03,0,1,1
2264,-0.32,1644581114.609375,P02,D03,0,1,1
2265,-0.3,1644581114.625,P02,D03,0,1,1
2266,-0.17,1644581114.640625,P02,D03,0,1,1
2267,0.09,1644581114.65625,P02,D03,0,1,1
2268,0.42,1644581114.671875,P02,D03,0,1,1
2269,0.7,1644581114.6875,P02,D03,0,1,1
2270,0.87,1644581114.703125,P02,D03,0,1,1
2271,0.88,1644581114.71875,P02,D03,0,1,1
2272,0.77,1644581114.734375,P02,D03,0,1,1
2273,0.61,1644581114.75,P02,D03,0,1,1
2274,0.46,1644581114.765625,P02,D03,0,1,1
2275,0.34,1644581114.78125,P02,D03,0,1,1
2276,0.18,1644581114.796875,P02,D03,0,1,1
2277,-0.05,1644581114.8125,P02,D03,0,1,1
2278,-0.37,1644581114.828125,P02,D03,0,1,1
2279,-0.73,1644581114.84375,P02,D03,0,1,1
2280,-1.05,1644581114.859375,P02,D03,0,1,1
2281,-1.23,1644581114.875,P02,D03,0,1,1
2282,-1.21,1644581114.890625,P02,D03,0,1,1
2283,-1.0,1644581114.90625,P02,D03,0,1,1
2284,-0.67,1644581114.921875,P02,D03,0,1,1
2285,-0.32,1644581114.9375,P02,D03,0,1,1
2286,-0.06,1644581114.953125,P02,D03,0,1,1
2287,0.06,1644581114.96875,P02,D03,0,1,1
2288,0.05,1644581114.984375,P02,D03,0,1,1
2289,-0.05,1644581115.0,P02,D03,0,1,1
2290,-0.15,1644581115.015625,P02,D03,0,1,1
2291,-0.19,1644581115.03125,P02,D03,0,1,1
2292,-0.11,1644581115.046875,P02,D03,0,1,1
2293,0.1,1644581115.0625,P02,D03,0,1,1
2294,0.4,1644581115.078125,P02,D03,0,1,1
2295,0.74,1644581115.09375,P02,D03,0,1,1
2296,1.07,1644581115.109375,P02,D03,0,1,1
2297,1.34,1644581115.125,P02,D03,0,1,1
2298,1.53,1644581115.140625,P02,D03,0,1,1
2299,1.63,1644581115.15625,P02,D03,0,1,1
2300,1.64,1644581115.171875,P02,D03,0,1,1
2301,1.57,1644581115.1875,P02,D03,0,1,1
2302,1.41,1644581115.203125,P02,D03,0,1,1
2303,1.16,1644581115.21875,P02,D03,0,1,1
2304,0.87,1644581115.234375,P02,D03,0,1,1
2305,0.55,1644581115.25,P02,D03,0,1,1
2306,0.26,1644581115.265625,P02,D03,0,1,1
2307,0.0,1644581115.28125,P02,D03,0,1,1
2308,-0.22,1644581115.296875,P02,D03,0,1,1
2309,-0.42,1644581115.3125,P02,D03,0,1,1
2310,-0.59,1644581115.328125,P02,D03,0,1,1
2311,-0.7,1644581115.34375,P02,D03,0,1,1
2312,-0.69,1644581115.359375,P02,D03,0,1,1
2313,-0.53,1644581115.375,P02,D03,0,1,1
2314,-0.22,1644581115.390625,P02,D03,0,1,1
2315,0.16,1644581115.40625,P02,D03,0,1,1
2316,0.53,1644581115.421875,P02,D03,0,1,1
2317,0.8,1644581115.4375,P02,D03,0,1,1
2318,0.94,1644581115.453125,P02,D03,0,1,1
2319,0.98,1644581115.46875,P02,D03,0,1,1
2320,0.95,1644581115.484375,P02,D03,0,1,1
2321,0.85,1644581115.5,P02,D03,0,1,1
2322,0.64,1644581115.515625,P02,D03,0,1,1
2323,0.29,1644581115.53125,P02,D03,0,1,1
2324,-0.19,1644581115.546875,P02,D03,0,1,1
2325,-0.72,1644581115.5625,P02,D03,0,1,1
2326,-1.13,1644581115.578125,P02,D03,0,1,1
2327,-1.27,1644581115.59375,P02,D03,0,1,1
2328,-1.08,1644581115.609375,P02,D03,0,1,1
2329,-0.62,1644581115.625,P02,D03,0,1,1
2330,-0.06,1644581115.640625,P02,D03,0,1,1
2331,0.42,1644581115.65625,P02,D03,0,1,1
2332,0.67,1644581115.671875,P02,D03,0,1,1
2333,0.63,1644581115.6875,P02,D03,0,1,1
2334,0.32,1644581115.703125,P02,D03,0,1,1
2335,-0.2,1644581115.71875,P02,D03,0,1,1
2336,-0.78,1644581115.734375,P02,D03,0,1,1
2337,-1.28,1644581115.75,P02,D03,0,1,1
2338,-1.57,1644581115.765625,P02,D03,0,1,1
2339,-1.56,1644581115.78125,P02,D03,0,1,1
2340,-1.25,1644581115.796875,P02,D03,0,1,1
2341,-0.73,1644581115.8125,P02,D03,0,1,1
2342,-0.16,1644581115.828125,P02,D03,0,1,1
2343,0.28,1644581115.84375,P02,D03,0,1,1
2344,0.52,1644581115.859375,P02,D03,0,1,1
2345,0.54,1644581115.875,P02,D03,0,1,1
2346,0.42,1644581115.890625,P02,D03,0,1,1
2347,0.23,1644581115.90625,P02,D03,0,1,1
2348,0.03,1644581115.921875,P02,D03,0,1,1
2349,-0.16,1644581115.9375,P02,D03,0,1,1
2350,-0.33,1644581115.953125,P02,D03,0,1,1
2351,-0.48,1644581115.96875,P02,D03,0,1,1
2352,-0.54,1644581115.984375,P02,D03,0,1,1
2353,-0.48,1644581116.0,P02,D03,0,1,1
2354,-0.25,1644581116.015625,P02,D03,0,1,1
2355,0.09,1644581116.03125,P02,D03,0,1,1
2356,0.43,1644581116.046875,P02,D03,0,1,1
2357,0.65,1644581116.0625,P02,D03,0,1,1
2358,0.67,1644581116.078125,P02,D03,0,1,1
2359,0.49,1644581116.09375,P02,D03,0,1,1
2360,0.21,1644581116.109375,P02,D03,0,1,1
2361,-0.02,1644581116.125,P02,D03,0,1,1
2362,-0.1,1644581116.140625,P02,D03,0,1,1
2363,-0.02,1644581116.15625,P02,D03,0,1,1
2364,0.15,1644581116.171875,P02,D03,0,1,1
2365,0.26,1644581116.1875,P02,D03,0,1,1
2366,0.25,1644581116.203125,P02,D03,0,1,1
2367,0.12,1644581116.21875,P02,D03,0,1,1
2368,-0.05,1644581116.234375,P02,D03,0,1,1
2369,-0.12,1644581116.25,P02,D03,0,1,1
2370,-0.07,1644581116.265625,P02,D03,0,1,1
2371,0.07,1644581116.28125,P02,D03,0,1,1
2372,0.19,1644581116.296875,P02,D03,0,1,1
2373,0.17,1644581116.3125,P02,D03,0,1,1
2374,-0.0,1644581116.328125,P02,D03,0,1,1
2375,-0.25,1644581116.34375,P02,D03,0,1,1
2376,-0.42,1644581116.359375,P02,D03,0,1,1
2377,-0.4,1644581116.375,P02,D03,0,1,1
2378,-0.16,1644581116.390625,P02,D03,0,1,1
2379,0.22,1644581116.40625,P02,D03,0,1,1
2380,0.58,1644581116.421875,P02,D03,0,1,1
2381,0.8,1644581116.4375,P02,D03,0,1,1
2382,0.8,1644581116.453125,P02,D03,0,1,1
2383,0.64,1644581116.46875,P02,D03,0,1,1
2384,0.4,1644581116.484375,P02,D03,0,1,1
2385,0.16,1644581116.5,P02,D03,0,1,1
2386,-0.02,1644581116.515625,P02,D03,0,1,1
2387,-0.13,1644581116.53125,P02,D03,0,1,1
2388,-0.2,1644581116.546875,P02,D03,0,1,1
2389,-0.22,1644581116.5625,P02,D03,0,1,1
2390,-0.2,1644581116.578125,P02,D03,0,1,1
2391,-0.14,1644581116.59375,P02,D03,0,1,1
2392,-0.05,1644581116.609375,P02,D03,0,1,1
2393,0.04,1644581116.625,P02,D03,0,1,1
2394,0.11,1644581116.640625,P02,D03,0,1,1
2395,0.16,1644581116.65625,P02,D03,0,1,1
2396,0.18,1644581116.671875,P02,D03,0,1,1
2397,0.16,1644581116.6875,P02,D03,0,1,1
2398,0.09,1644581116.703125,P02,D03,0,1,1
2399,-0.07,1644581116.71875,P02,D03,0,1,1
2400,-0.33,1644581116.734375,P02,D03,0,1,1
2401,-0.61,1644581116.75,P02,D03,0,1,1
2402,-0.85,1644581116.765625,P02,D03,0,1,1
2403,-0.95,1644581116.78125,P02,D03,0,1,1
2404,-0.86,1644581116.796875,P02,D03,0,1,1
2405,-0.6,1644581116.8125,P02,D03,0,1,1
2406,-0.26,1644581116.828125,P02,D03,0,1,1
2407,0.07,1644581116.84375,P02,D03,0,1,1
2408,0.31,1644581116.859375,P02,D03,0,1,1
2409,0.41,1644581116.875,P02,D03,0,1,1
2410,0.37,1644581116.890625,P02,D03,0,1,1
2411,0.23,1644581116.90625,P02,D03,0,1,1
2412,0.07,1644581116.921875,P02,D03,0,1,1
2413,-0.04,1644581116.9375,P02,D03,0,1,1
2414,-0.05,1644581116.953125,P02,D03,0,1,1
2415,0.06,1644581116.96875,P02,D03,0,1,1
2416,0.26,1644581116.984375,P02,D03,0,1,1
2417,0.48,1644581117.0,P02,D03,0,1,1
2418,0.67,1644581117.015625,P02,D03,0,1,1
2419,0.77,1644581117.03125,P02,D03,0,1,1
2420,0.75,1644581117.046875,P02,D03,0,1,1
2421,0.61,1644581117.0625,P02,D03,0,1,1
2422,0.35,1644581117.078125,P02,D03,0,1,1
2423,0.01,1644581117.09375,P02,D03,0,1,1
2424,-0.38,1644581117.109375,P02,D03,0,1,1
2425,-0.73,1644581117.125,P02,D03,0,1,1
2426,-0.97,1644581117.140625,P02,D03,0,1,1
2427,-1.03,1644581117.15625,P02,D03,0,1,1
2428,-0.92,1644581117.171875,P02,D03,0,1,1
2429,-0.69,1644581117.1875,P02,D03,0,1,1
2430,-0.43,1644581117.203125,P02,D03,0,1,1
2431,-0.21,1644581117.21875,P02,D03,0,1,1
2432,-0.1,1644581117.234375,P02,D03,0,1,1
2433,-0.07,1644581117.25,P02,D03,0,1,1
2434,-0.1,1644581117.265625,P02,D03,0,1,1
2435,-0.15,1644581117.28125,P02,D03,0,1,1
2436,-0.19,1644581117.296875,P02,D03,0,1,1
2437,-0.21,1644581117.3125,P02,D03,0,1,1
2438,-0.19,1644581117.328125,P02,D03,0,1,1
2439,-0.12,1644581117.34375,P02,D03,0,1,1
2440,0.02,1644581117.359375,P02,D03,0,1,1
2441,0.2,1644581117.375,P02,D03,0,1,1
2442,0.4,1644581117.390625,P02,D03,0,1,1
2443,0.53,1644581117.40625,P02,D03,0,1,1
2444,0.57,1644581117.421875,P02,D03,0,1,1
2445,0.52,1644581117.4375,P02,D03,0,1,1
2446,0.45,1644581117.453125,P02,D03,0,1,1
2447,0.39,1644581117.46875,P02,D03,0,1,1
2448,0.37,1644581117.484375,P02,D03,0,1,1
2449,0.34,1644581117.5,P02,D03,0,1,1
2450,0.25,1644581117.515625,P02,D03,0,1,1
2451,0.07,1644581117.53125,P02,D03,0,1,1
2452,-0.16,1644581117.546875,P02,D03,0,1,1
2453,-0.32,1644581117.5625,P02,D03,0,1,1
2454,-0.3,1644581117.578125,P02,D03,0,1,1
2455,-0.05,1644581117.59375,P02,D03,0,1,1
2456,0.38,1644581117.609375,P02,D03,0,1,1
2457,0.86,1644581117.625,P02,D03,0,1,1
2458,1.22,1644581117.640625,P02,D03,0,1,1
2459,1.34,1644581117.65625,P02,D03,0,1,1
2460,1.2,1644581117.671875,P02,D03,0,1,1
2461,0.82,1644581117.6875,P02,D03,0,1,1
2462,0.3,1644581117.703125,P02,D03,0,1,1
2463,-0.22,1644581117.71875,P02,D03,0,1,1
2464,-0.64,1644581117.734375,P02,D03,0,1,1
2465,-0.86,1644581117.75,P02,D03,0,1,1
2466,-0.87,1644581117.765625,P02,D03,0,1,1
2467,-0.68,1644581117.78125,P02,D03,0,1,1
2468,-0.41,1644581117.796875,P02,D03,0,1,1
2469,-0.14,1644581117.8125,P02,D03,0,1,1
2470,0.02,1644581117.828125,P02,D03,0,1,1
2471,0.04,1644581117.84375,P02,D03,0,1,1
2472,-0.04,1644581117.859375,P02,D03,0,1,1
2473,-0.18,1644581117.875,P02,D03,0,1,1
2474,-0.3,1644581117.890625,P02,D03,0,1,1
2475,-0.33,1644581117.90625,P02,D03,0,1,1
2476,-0.26,1644581117.921875,P02,D03,0,1,1
2477,-0.11,1644581117.9375,P02,D03,0,1,1
2478,0.08,1644581117.953125,P02,D03,0,1,1
2479,0.26,1644581117.96875,P02,D03,0,1,1
2480,0.38,1644581117.984375,P02,D03,0,1,1
2481,0.43,1644581118.0,P02,D03,0,1,1
2482,0.41,1644581118.015625,P02,D03,0,1,1
2483,0.38,1644581118.03125,P02,D03,0,1,1
2484,0.32,1644581118.046875,P02,D03,0,1,1
2485,0.22,1644581118.0625,P02,D03,0,1,1
2486,0.1,1644581118.078125,P02,D03,0,1,1
2487,-0.04,1644581118.09375,P02,D03,0,1,1
2488,-0.16,1644581118.109375,P02,D03,0,1,1
2489,-0.21,1644581118.125,P02,D03,0,1,1
2490,-0.18,1644581118.140625,P02,D03,0,1,1
2491,-0.11,1644581118.15625,P02,D03,0,1,1
2492,-0.09,1644581118.171875,P02,D03,0,1,1
2493,-0.16,1644581118.1875,P02,D03,0,1,1
2494,-0.36,1644581118.203125,P02,D03,0,1,1
2495,-0.63,1644581118.21875,P02,D03,0,1,1
2496,-0.87,1644581118.234375,P02,D03,0,1,1
2497,-0.98,1644581118.25,P02,D03,0,1,1
2498,-0.95,1644581118.265625,P02,D03,0,1,1
2499,-0.79,1644581118.28125,P02,D03,0,1,1
2500,-0.58,1644581118.296875,P02,D03,0,1,1
2501,-0.4,1644581118.3125,P02,D03,0,1,1
2502,-0.3,1644581118.328125,P02,D03,0,1,1
2503,-0.29,1644581118.34375,P02,D03,0,1,1
2504,-0.33,1644581118.359375,P02,D03,0,1,1
2505,-0.41,1644581118.375,P02,D03,0,1,1
2506,-0.46,1644581118.390625,P02,D03,0,1,1
2507,-0.45,1644581118.40625,P02,D03,0,1,1
2508,-0.33,1644581118.421875,P02,D03,0,1,1
2509,-0.11,1644581118.4375,P02,D03,0,1,1
2510,0.21,1644581118.453125,P02,D03,0,1,1
2511,0.56,1644581118.46875,P02,D03,0,1,1
2512,0.85,1644581118.484375,P02,D03,0,1,1
2513,1.01,1644581118.5,P02,D03,0,1,1
2514,1.01,1644581118.515625,P02,D03,0,1,1
2515,0.89,1644581118.53125,P02,D03,0,1,1
2516,0.73,1644581118.546875,P02,D03,0,1,1
2517,0.6,1644581118.5625,P02,D03,0,1,1
2518,0.53,1644581118.578125,P02,D03,0,1,1
2519,0.52,1644581118.59375,P02,D03,0,1,1
2520,0.49,1644581118.609375,P02,D03,0,1,1
2521,0.42,1644581118.625,P02,D03,0,1,1
2522,0.29,1644581118.640625,P02,D03,0,1,1
2523,0.15,1644581118.65625,P02,D03,0,1,1
2524,0.05,1644581118.671875,P02,D03,0,1,1
2525,0.0,1644581118.6875,P02,D03,0,1,1
2526,-0.02,1644581118.703125,P02,D03,0,1,1
2527,-0.05,1644581118.71875,P02,D03,0,1,1
2528,-0.12,1644581118.734375,P02,D03,0,1,1
2529,-0.24,1644581118.75,P02,D03,0,1,1
2530,-0.35,1644581118.765625,P02,D03,0,1,1
2531,-0.41,1644581118.78125,P02,D03,0,1,1
2532,-0.38,1644581118.796875,P02,D03,0,1,1
2533,-0.27,1644581118.8125,P02,D03,0,1,1
2534,-0.12,1644581118.828125,P02,D03,0,1,1
2535,0.0,1644581118.84375,P02,D03,0,1,1
2536,0.09,1644581118.859375,P02,D03,0,1,1
2537,0.16,1644581118.875,P02,D03,0,1,1
2538,0.23,1644581118.890625,P02,D03,0,1,1
2539,0.33,1644581118.90625,P02,D03,0,1,1
2540,0.45,1644581118.921875,P02,D03,0,1,1
2541,0.54,1644581118.9375,P02,D03,0,1,1
2542,0.55,1644581118.953125,P02,D03,0,1,1
2543,0.44,1644581118.96875,P02,D03,0,1,1
2544,0.18,1644581118.984375,P02,D03,0,1,1
2545,-0.18,1644581119.0,P02,D03,0,1,1
2546,-0.58,1644581119.015625,P02,D03,0,1,1
2547,-0.93,1644581119.03125,P02,D03,0,1,1
2548,-1.16,1644581119.046875,P02,D03,0,1,1
2549,-1.21,1644581119.0625,P02,D03,0,1,1
2550,-1.09,1644581119.078125,P02,D03,0,1,1
2551,-0.81,1644581119.09375,P02,D03,0,1,1
2552,-0.43,1644581119.109375,P02,D03,0,1,1
2553,-0.03,1644581119.125,P02,D03,0,1,1
2554,0.31,1644581119.140625,P02,D03,0,1,1
2555,0.55,1644581119.15625,P02,D03,0,1,1
2556,0.65,1644581119.171875,P02,D03,0,1,1
2557,0.58,1644581119.1875,P02,D03,0,1,1
2558,0.41,1644581119.203125,P02,D03,0,1,1
2559,0.18,1644581119.21875,P02,D03,0,1,1
2560,-0.03,1644581119.234375,P02,D03,0,1,1
2561,-0.14,1644581119.25,P02,D03,0,1,1
2562,-0.17,1644581119.265625,P02,D03,0,1,1
2563,-0.13,1644581119.28125,P02,D03,0,1,1
2564,-0.11,1644581119.296875,P02,D03,0,1,1
2565,-0.14,1644581119.3125,P02,D03,0,1,1
2566,-0.21,1644581119.328125,P02,D03,0,1,1
2567,-0.27,1644581119.34375,P02,D03,0,1,1
2568,-0.27,1644581119.359375,P02,D03,0,1,1
2569,-0.17,1644581119.375,P02,D03,0,1,1
2570,0.01,1644581119.390625,P02,D03,0,1,1
2571,0.21,1644581119.40625,P02,D03,0,1,1
2572,0.4,1644581119.421875,P02,D03,0,1,1
2573,0.53,1644581119.4375,P02,D03,0,1,1
2574,0.62,1644581119.453125,P02,D03,0,1,1
2575,0.66,1644581119.46875,P02,D03,0,1,1
2576,0.65,1644581119.484375,P02,D03,0,1,1
2577,0.58,1644581119.5,P02,D03,0,1,1
2578,0.45,1644581119.515625,P02,D03,0,1,1
2579,0.26,1644581119.53125,P02,D03,0,1,1
2580,0.02,1644581119.546875,P02,D03,0,1,1
2581,-0.22,1644581119.5625,P02,D03,0,1,1
2582,-0.45,1644581119.578125,P02,D03,0,1,1
2583,-0.65,1644581119.59375,P02,D03,0,1,1
2584,-0.83,1644581119.609375,P02,D03,0,1,1
2585,-0.97,1644581119.625,P02,D03,0,1,1
2586,-1.07,1644581119.640625,P02,D03,0,1,1
2587,-1.09,1644581119.65625,P02,D03,0,1,1
2588,-1.01,1644581119.671875,P02,D03,0,1,1
2589,-0.85,1644581119.6875,P02,D03,0,1,1
2590,-0.63,1644581119.703125,P02,D03,0,1,1
2591,-0.42,1644581119.71875,P02,D03,0,1,1
2592,-0.25,1644581119.734375,P02,D03,0,1,1
2593,-0.13,1644581119.75,P02,D03,0,1,1
2594,-0.07,1644581119.765625,P02,D03,0,1,1
2595,-0.01,1644581119.78125,P02,D03,0,1,1
2596,0.07,1644581119.796875,P02,D03,0,1,1
2597,0.2,1644581119.8125,P02,D03,0,1,1
2598,0.4,1644581119.828125,P02,D03,0,1,1
2599,0.63,1644581119.84375,P02,D03,0,1,1
2600,0.85,1644581119.859375,P02,D03,0,1,1
2601,0.99,1644581119.875,P02,D03,0,1,1
2602,0.99,1644581119.890625,P02,D03,0,1,1
2603,0.83,1644581119.90625,P02,D03,0,1,1
2604,0.57,1644581119.921875,P02,D03,0,1,1
2605,0.28,1644581119.9375,P02,D03,0,1,1
2606,0.02,1644581119.953125,P02,D03,0,1,1
2607,-0.15,1644581119.96875,P02,D03,0,1,1
2608,-0.27,1644581119.984375,P02,D03,0,1,1
2609,-0.37,1644581120.0,P02,D03,0,1,1
2610,-0.47,1644581120.015625,P02,D03,0,1,1
2611,-0.55,1644581120.03125,P02,D03,0,1,1
2612,-0.54,1644581120.046875,P02,D03,0,1,1
2613,-0.41,1644581120.0625,P02,D03,0,1,1
2614,-0.15,1644581120.078125,P02,D03,0,1,1
2615,0.15,1644581120.09375,P02,D03,0,1,1
2616,0.35,1644581120.109375,P02,D03,0,1,1
2617,0.36,1644581120.125,P02,D03,0,1,1
2618,0.15,1644581120.140625,P02,D03,0,1,1
2619,-0.22,1644581120.15625,P02,D03,0,1,1
2620,-0.58,1644581120.171875,P02,D03,0,1,1
2621,-0.8,1644581120.1875,P02,D03,0,1,1
2622,-0.81,1644581120.203125,P02,D03,0,1,1
2623,-0.61,1644581120.21875,P02,D03,0,1,1
2624,-0.31,1644581120.234375,P02,D03,0,1,1
2625,-0.0,1644581120.25,P02,D03,0,1,1
2626,0.23,1644581120.265625,P02,D03,0,1,1
2627,0.4,1644581120.28125,P02,D03,0,1,1
2628,0.56,1644581120.296875,P02,D03,0,1,1
2629,0.76,1644581120.3125,P02,D03,0,1,1
2630,0.99,1644581120.328125,P02,D03,0,1,1
2631,1.16,1644581120.34375,P02,D03,0,1,1
2632,1.15,1644581120.359375,P02,D03,0,1,1
2633,0.89,1644581120.375,P02,D03,0,1,1
2634,0.42,1644581120.390625,P02,D03,0,1,1
2635,-0.13,1644581120.40625,P02,D03,0,1,1
2636,-0.56,1644581120.421875,P02,D03,0,1,1
2637,-0.75,1644581120.4375,P02,D03,0,1,1
2638,-0.7,1644581120.453125,P02,D03,0,1,1
2639,-0.51,1644581120.46875,P02,D03,0,1,1
2640,-0.32,1644581120.484375,P02,D03,0,1,1
2641,-0.24,1644581120.5,P02,D03,0,1,1
2642,-0.27,1644581120.515625,P02,D03,0,1,1
2643,-0.33,1644581120.53125,P02,D03,0,1,1
2644,-0.32,1644581120.546875,P02,D03,0,1,1
2645,-0.18,1644581120.5625,P02,D03,0,1,1
2646,0.09,1644581120.578125,P02,D03,0,1,1
2647,0.37,1644581120.59375,P02,D03,0,1,1
2648,0.55,1644581120.609375,P02,D03,0,1,1
2649,0.54,1644581120.625,P02,D03,0,1,1
2650,0.32,1644581120.640625,P02,D03,0,1,1
2651,-0.03,1644581120.65625,P02,D03,0,1,1
2652,-0.38,1644581120.671875,P02,D03,0,1,1
2653,-0.63,1644581120.6875,P02,D03,0,1,1
2654,-0.69,1644581120.703125,P02,D03,0,1,1
2655,-0.59,1644581120.71875,P02,D03,0,1,1
2656,-0.38,1644581120.734375,P02,D03,0,1,1
2657,-0.12,1644581120.75,P02,D03,0,1,1
2658,0.16,1644581120.765625,P02,D03,0,1,1
2659,0.48,1644581120.78125,P02,D03,0,1,1
2660,0.84,1644581120.796875,P02,D03,0,1,1
2661,1.21,1644581120.8125,P02,D03,0,1,1
2662,1.51,1644581120.828125,P02,D03,0,1,1
2663,1.64,1644581120.84375,P02,D03,0,1,1
2664,1.5,1644581120.859375,P02,D03,0,1,1
2665,1.12,1644581120.875,P02,D03,0,1,1
2666,0.59,1644581120.890625,P02,D03,0,1,1
2667,0.05,1644581120.90625,P02,D03,0,1,1
2668,-0.39,1644581120.921875,P02,D03,0,1,1
2669,-0.65,1644581120.9375,P02,D03,0,1,1
2670,-0.8,1644581120.953125,P02,D03,0,1,1
2671,-0.91,1644581120.96875,P02,D03,0,1,1
2672,-1.03,1644581120.984375,P02,D03,0,1,1
2673,-1.17,1644581121.0,P02,D03,0,1,1
2674,-1.26,1644581121.015625,P02,D03,0,1,1
2675,-1.24,1644581121.03125,P02,D03,0,1,1
2676,-1.07,1644581121.046875,P02,D03,0,1,1
2677,-0.79,1644581121.0625,P02,D03,0,1,1
2678,-0.5,1644581121.078125,P02,D03,0,1,1
2679,-0.27,1644581121.09375,P02,D03,0,1,1
2680,-0.12,1644581121.109375,P02,D03,0,1,1
2681,-0.03,1644581121.125,P02,D03,0,1,1
2682,0.07,1644581121.140625,P02,D03,0,1,1
2683,0.22,1644581121.15625,P02,D03,0,1,1
2684,0.39,1644581121.171875,P02,D03,0,1,1
2685,0.5,1644581121.1875,P02,D03,0,1,1
2686,0.51,1644581121.203125,P02,D03,0,1,1
2687,0.42,1644581121.21875,P02,D03,0,1,1
2688,0.3,1644581121.234375,P02,D03,0,1,1
2689,0.25,1644581121.25,P02,D03,0,1,1
2690,0.31,1644581121.265625,P02,D03,0,1,1
2691,0.44,1644581121.28125,P02,D03,0,1,1
2692,0.54,1644581121.296875,P02,D03,0,1,1
2693,0.51,1644581121.3125,P02,D03,0,1,1
2694,0.3,1644581121.328125,P02,D03,0,1,1
2695,-0.02,1644581121.34375,P02,D03,0,1,1
2696,-0.33,1644581121.359375,P02,D03,0,1,1
2697,-0.5,1644581121.375,P02,D03,0,1,1
2698,-0.47,1644581121.390625,P02,D03,0,1,1
2699,-0.26,1644581121.40625,P02,D03,0,1,1
2700,0.04,1644581121.421875,P02,D03,0,1,1
2701,0.35,1644581121.4375,P02,D03,0,1,1
2702,0.57,1644581121.453125,P02,D03,0,1,1
2703,0.67,1644581121.46875,P02,D03,0,1,1
2704,0.63,1644581121.484375,P02,D03,0,1,1
2705,0.49,1644581121.5,P02,D03,0,1,1
2706,0.3,1644581121.515625,P02,D03,0,1,1
2707,0.14,1644581121.53125,P02,D03,0,1,1
2708,0.06,1644581121.546875,P02,D03,0,1,1
2709,0.04,1644581121.5625,P02,D03,0,1,1
2710,0.04,1644581121.578125,P02,D03,0,1,1
2711,0.02,1644581121.59375,P02,D03,0,1,1
2712,-0.07,1644581121.609375,P02,D03,0,1,1
2713,-0.2,1644581121.625,P02,D03,0,1,1
2714,-0.31,1644581121.640625,P02,D03,0,1,1
2715,-0.39,1644581121.65625,P02,D03,0,1,1
2716,-0.46,1644581121.671875,P02,D03,0,1,1
2717,-0.57,1644581121.6875,P02,D03,0,1,1
2718,-0.72,1644581121.703125,P02,D03,0,1,1
2719,-0.84,1644581121.71875,P02,D03,0,1,1
2720,-0.8,1644581121.734375,P02,D03,0,1,1
2721,-0.49,1644581121.75,P02,D03,0,1,1
2722,0.09,1644581121.765625,P02,D03,0,1,1
2723,0.79,1644581121.78125,P02,D03,0,1,1
2724,1.34,1644581121.796875,P02,D03,0,1,1
2725,1.53,1644581121.8125,P02,D03,0,1,1
2726,1.29,1644581121.828125,P02,D03,0,1,1
2727,0.75,1644581121.84375,P02,D03,0,1,1
2728,0.14,1644581121.859375,P02,D03,0,1,1
2729,-0.29,1644581121.875,P02,D03,0,1,1
2730,-0.44,1644581121.890625,P02,D03,0,1,1
2731,-0.35,1644581121.90625,P02,D03,0,1,1
2732,-0.16,1644581121.921875,P02,D03,0,1,1
2733,-0.02,1644581121.9375,P02,D03,0,1,1
2734,0.01,1644581121.953125,P02,D03,0,1,1
2735,-0.06,1644581121.96875,P02,D03,0,1,1
2736,-0.15,1644581121.984375,P02,D03,0,1,1
2737,-0.21,1644581122.0,P02,D03,0,1,1
2738,-0.24,1644581122.015625,P02,D03,0,1,1
2739,-0.27,1644581122.03125,P02,D03,0,1,1
2740,-0.32,1644581122.046875,P02,D03,0,1,1
2741,-0.38,1644581122.0625,P02,D03,0,1,1
2742,-0.38,1644581122.078125,P02,D03,0,1,1
2743,-0.25,1644581122.09375,P02,D03,0,1,1
2744,0.01,1644581122.109375,P02,D03,0,1,1
2745,0.34,1644581122.125,P02,D03,0,1,1
2746,0.62,1644581122.140625,P02,D03,0,1,1
2747,0.77,1644581122.15625,P02,D03,0,1,1
2748,0.75,1644581122.171875,P02,D03,0,1,1
2749,0.6,1644581122.1875,P02,D03,0,1,1
2750,0.42,1644581122.203125,P02,D03,0,1,1
2751,0.27,1644581122.21875,P02,D03,0,1,1
2752,0.21,1644581122.234375,P02,D03,0,1,1
2753,0.19,1644581122.25,P02,D03,0,1,1
2754,0.17,1644581122.265625,P02,D03,0,1,1
2755,0.1,1644581122.28125,P02,D03,0,1,1
2756,-0.02,1644581122.296875,P02,D03,0,1,1
2757,-0.15,1644581122.3125,P02,D03,0,1,1
2758,-0.2,1644581122.328125,P02,D03,0,1,1
2759,-0.1,1644581122.34375,P02,D03,0,1,1
2760,0.13,1644581122.359375,P02,D03,0,1,1
2761,0.4,1644581122.375,P02,D03,0,1,1
2762,0.56,1644581122.390625,P02,D03,0,1,1
2763,0.49,1644581122.40625,P02,D03,0,1,1
2764,0.18,1644581122.421875,P02,D03,0,1,1
2765,-0.25,1644581122.4375,P02,D03,0,1,1
2766,-0.63,1644581122.453125,P02,D03,0,1,1
2767,-0.78,1644581122.46875,P02,D03,0,1,1
2768,-0.65,1644581122.484375,P02,D03,0,1,1
2769,-0.33,1644581122.5,P02,D03,0,1,1
2770,0.01,1644581122.515625,P02,D03,0,1,1
2771,0.23,1644581122.53125,P02,D03,0,1,1
2772,0.26,1644581122.546875,P02,D03,0,1,1
2773,0.12,1644581122.5625,P02,D03,0,1,1
2774,-0.04,1644581122.578125,P02,D03,0,1,1
2775,-0.13,1644581122.59375,P02,D03,0,1,1
2776,-0.05,1644581122.609375,P02,D03,0,1,1
2777,0.17,1644581122.625,P02,D03,0,1,1
2778,0.45,1644581122.640625,P02,D03,0,1,1
2779,0.7,1644581122.65625,P02,D03,0,1,1
2780,0.85,1644581122.671875,P02,D03,0,1,1
2781,0.84,1644581122.6875,P02,D03,0,1,1
2782,0.71,1644581122.703125,P02,D03,0,1,1
2783,0.49,1644581122.71875,P02,D03,0,1,1
2784,0.25,1644581122.734375,P02,D03,0,1,1
2785,0.05,1644581122.75,P02,D03,0,1,1
2786,-0.05,1644581122.765625,P02,D03,0,1,1
2787,-0.07,1644581122.78125,P02,D03,0,1,1
2788,-0.02,1644581122.796875,P02,D03,0,1,1
2789,0.03,1644581122.8125,P02,D03,0,1,1
2790,0.04,1644581122.828125,P02,D03,0,1,1
2791,-0.03,1644581122.84375,P02,D03,0,1,1
2792,-0.22,1644581122.859375,P02,D03,0,1,1
2793,-0.52,1644581122.875,P02,D03,0,1,1
2794,-0.88,1644581122.890625,P02,D03,0,1,1
2795,-1.21,1644581122.90625,P02,D03,0,1,1
2796,-1.41,1644581122.921875,P02,D03,0,1,1
2797,-1.43,1644581122.9375,P02,D03,0,1,1
2798,-1.24,1644581122.953125,P02,D03,0,1,1
2799,-0.93,1644581122.96875,P02,D03,0,1,1
2800,-0.61,1644581122.984375,P02,D03,0,1,1
2801,-0.38,1644581123.0,P02,D03,0,1,1
2802,-0.28,1644581123.015625,P02,D03,0,1,1
2803,-0.26,1644581123.03125,P02,D03,0,1,1
2804,-0.27,1644581123.046875,P02,D03,0,1,1
2805,-0.24,1644581123.0625,P02,D03,0,1,1
2806,-0.16,1644581123.078125,P02,D03,0,1,1
2807,-0.06,1644581123.09375,P02,D03,0,1,1
2808,0.03,1644581123.109375,P02,D03,0,1,1
2809,0.09,1644581123.125,P02,D03,0,1,1
2810,0.15,1644581123.140625,P02,D03,0,1,1
2811,0.23,1644581123.15625,P02,D03,0,1,1
2812,0.34,1644581123.171875,P02,D03,0,1,1
2813,0.44,1644581123.1875,P02,D03,0,1,1
2814,0.47,1644581123.203125,P02,D03,0,1,1
2815,0.37,1644581123.21875,P02,D03,0,1,1
2816,0.15,1644581123.234375,P02,D03,0,1,1
2817,-0.12,1644581123.25,P02,D03,0,1,1
2818,-0.33,1644581123.265625,P02,D03,0,1,1
2819,-0.41,1644581123.28125,P02,D03,0,1,1
2820,-0.35,1644581123.296875,P02,D03,0,1,1
2821,-0.18,1644581123.3125,P02,D03,0,1,1
2822,0.05,1644581123.328125,P02,D03,0,1,1
2823,0.27,1644581123.34375,P02,D03,0,1,1
2824,0.47,1644581123.359375,P02,D03,0,1,1
2825,0.63,1644581123.375,P02,D03,0,1,1
2826,0.74,1644581123.390625,P02,D03,0,1,1
2827,0.78,1644581123.40625,P02,D03,0,1,1
2828,0.72,1644581123.421875,P02,D03,0,1,1
2829,0.53,1644581123.4375,P02,D03,0,1,1
2830,0.25,1644581123.453125,P02,D03,0,1,1
2831,-0.02,1644581123.46875,P02,D03,0,1,1
2832,-0.21,1644581123.484375,P02,D03,0,1,1
2833,-0.28,1644581123.5,P02,D03,0,1,1
2834,-0.25,1644581123.515625,P02,D03,0,1,1
2835,-0.2,1644581123.53125,P02,D03,0,1,1
2836,-0.19,1644581123.546875,P02,D03,0,1,1
2837,-0.25,1644581123.5625,P02,D03,0,1,1
2838,-0.34,1644581123.578125,P02,D03,0,1,1
2839,-0.39,1644581123.59375,P02,D03,0,1,1
2840,-0.34,1644581123.609375,P02,D03,0,1,1
2841,-0.2,1644581123.625,P02,D03,0,1,1
2842,-0.03,1644581123.640625,P02,D03,0,1,1
2843,0.09,1644581123.65625,P02,D03,0,1,1
2844,0.12,1644581123.671875,P02,D03,0,1,1
2845,0.08,1644581123.6875,P02,D03,0,1,1
2846,0.01,1644581123.703125,P02,D03,0,1,1
2847,-0.0,1644581123.71875,P02,D03,0,1,1
2848,0.08,1644581123.734375,P02,D03,0,1,1
2849,0.21,1644581123.75,P02,D03,0,1,1
2850,0.35,1644581123.765625,P02,D03,0,1,1
2851,0.38,1644581123.78125,P02,D03,0,1,1
2852,0.3,1644581123.796875,P02,D03,0,1,1
2853,0.12,1644581123.8125,P02,D03,0,1,1
2854,-0.06,1644581123.828125,P02,D03,0,1,1
2855,-0.15,1644581123.84375,P02,D03,0,1,1
2856,-0.11,1644581123.859375,P02,D03,0,1,1
2857,0.05,1644581123.875,P02,D03,0,1,1
2858,0.22,1644581123.890625,P02,D03,0,1,1
2859,0.32,1644581123.90625,P02,D03,0,1,1
2860,0.28,1644581123.921875,P02,D03,0,1,1
2861,0.13,1644581123.9375,P02,D03,0,1,1
2862,-0.03,1644581123.953125,P02,D03,0,1,1
2863,-0.09,1644581123.96875,P02,D03,0,1,1
2864,0.01,1644581123.984375,P02,D03,0,1,1
2865,0.24,1644581124.0,P02,D03,0,1,1
2866,0.51,1644581124.015625,P02,D03,0,1,1
2867,0.7,1644581124.03125,P02,D03,0,1,1
2868,0.74,1644581124.046875,P02,D03,0,1,1
2869,0.64,1644581124.0625,P02,D03,0,1,1
2870,0.47,1644581124.078125,P02,D03,0,1,1
2871,0.27,1644581124.09375,P02,D03,0,1,1
2872,0.08,1644581124.109375,P02,D03,0,1,1
2873,-0.09,1644581124.125,P02,D03,0,1,1
2874,-0.27,1644581124.140625,P02,D03,0,1,1
2875,-0.41,1644581124.15625,P02,D03,0,1,1
2876,-0.5,1644581124.171875,P02,D03,0,1,1
2877,-0.52,1644581124.1875,P02,D03,0,1,1
2878,-0.49,1644581124.203125,P02,D03,0,1,1
2879,-0.49,1644581124.21875,P02,D03,0,1,1
2880,-0.58,1644581124.234375,P02,D03,0,1,1
2881,-0.76,1644581124.25,P02,D03,0,1,1
2882,-0.96,1644581124.265625,P02,D03,0,1,1
2883,-1.08,1644581124.28125,P02,D03,0,1,1
2884,-1.02,1644581124.296875,P02,D03,0,1,1
2885,-0.78,1644581124.3125,P02,D03,0,1,1
2886,-0.46,1644581124.328125,P02,D03,0,1,1
2887,-0.19,1644581124.34375,P02,D03,0,1,1
2888,-0.06,1644581124.359375,P02,D03,0,1,1
2889,-0.07,1644581124.375,P02,D03,0,1,1
2890,-0.14,1644581124.390625,P02,D03,0,1,1
2891,-0.17,1644581124.40625,P02,D03,0,1,1
2892,-0.13,1644581124.421875,P02,D03,0,1,1
2893,-0.06,1644581124.4375,P02,D03,0,1,1
2894,-0.05,1644581124.453125,P02,D03,0,1,1
2895,-0.15,1644581124.46875,P02,D03,0,1,1
2896,-0.35,1644581124.484375,P02,D03,0,1,1
2897,-0.55,1644581124.5,P02,D03,0,1,1
2898,-0.66,1644581124.515625,P02,D03,0,1,1
2899,-0.62,1644581124.53125,P02,D03,0,1,1
2900,-0.48,1644581124.546875,P02,D03,0,1,1
2901,-0.31,1644581124.5625,P02,D03,0,1,1
2902,-0.18,1644581124.578125,P02,D03,0,1,1
2903,-0.12,1644581124.59375,P02,D03,0,1,1
2904,-0.1,1644581124.609375,P02,D03,0,1,1
2905,-0.05,1644581124.625,P02,D03,0,1,1
2906,0.03,1644581124.640625,P02,D03,0,1,1
2907,0.15,1644581124.65625,P02,D03,0,1,1
2908,0.25,1644581124.671875,P02,D03,0,1,1
2909,0.31,1644581124.6875,P02,D03,0,1,1
2910,0.36,1644581124.703125,P02,D03,0,1,1
2911,0.43,1644581124.71875,P02,D03,0,1,1
2912,0.55,1644581124.734375,P02,D03,0,1,1
2913,0.7,1644581124.75,P02,D03,0,1,1
