,data,timestamp,participant,document,val,arou,eng
0,3.78,1644832683.28125,P06,D10,0,0,1
1,0.73,1644832683.296875,P06,D10,0,0,1
2,-3.31,1644832683.3125,P06,D10,0,0,1
3,-7.51,1644832683.328125,P06,D10,0,0,1
4,-11.19,1644832683.34375,P06,D10,0,0,1
5,-14.03,1644832683.359375,P06,D10,0,0,1
6,-16.07,1644832683.375,P06,D10,0,0,1
7,-17.61,1644832683.390625,P06,D10,0,0,1
8,-19.01,1644832683.40625,P06,D10,0,0,1
9,-20.48,1644832683.421875,P06,D10,0,0,1
10,-21.99,1644832683.4375,P06,D10,0,0,1
11,-23.33,1644832683.453125,P06,D10,0,0,1
12,-24.23,1644832683.46875,P06,D10,0,0,1
13,-24.55,1644832683.484375,P06,D10,0,0,1
14,-24.3,1644832683.5,P06,D10,0,0,1
15,-23.7,1644832683.515625,P06,D10,0,0,1
16,-23.04,1644832683.53125,P06,D10,0,0,1
17,-22.52,1644832683.546875,P06,D10,0,0,1
18,-22.2,1644832683.5625,P06,D10,0,0,1
19,-21.96,1644832683.578125,P06,D10,0,0,1
20,-21.64,1644832683.59375,P06,D10,0,0,1
21,-21.14,1644832683.609375,P06,D10,0,0,1
22,-20.48,1644832683.625,P06,D10,0,0,1
23,-19.79,1644832683.640625,P06,D10,0,0,1
24,-19.23,1644832683.65625,P06,D10,0,0,1
25,-18.84,1644832683.671875,P06,D10,0,0,1
26,-18.57,1644832683.6875,P06,D10,0,0,1
27,-18.21,1644832683.703125,P06,D10,0,0,1
28,-17.61,1644832683.71875,P06,D10,0,0,1
29,-16.68,1644832683.734375,P06,D10,0,0,1
30,-15.46,1644832683.75,P06,D10,0,0,1
31,-14.11,1644832683.765625,P06,D10,0,0,1
32,-12.82,1644832683.78125,P06,D10,0,0,1
33,-11.7,1644832683.796875,P06,D10,0,0,1
34,-10.73,1644832683.8125,P06,D10,0,0,1
35,-9.83,1644832683.828125,P06,D10,0,0,1
36,-8.88,1644832683.84375,P06,D10,0,0,1
37,-7.86,1644832683.859375,P06,D10,0,0,1
38,-6.84,1644832683.875,P06,D10,0,0,1
39,-5.98,1644832683.890625,P06,D10,0,0,1
40,-5.39,1644832683.90625,P06,D10,0,0,1
41,-5.11,1644832683.921875,P06,D10,0,0,1
42,-5.0,1644832683.9375,P06,D10,0,0,1
43,-4.8,1644832683.953125,P06,D10,0,0,1
44,-4.26,1644832683.96875,P06,D10,0,0,1
45,-3.26,1644832683.984375,P06,D10,0,0,1
46,-1.82,1644832684.0,P06,D10,0,0,1
47,-0.14,1644832684.015625,P06,D10,0,0,1
48,1.55,1644832684.03125,P06,D10,0,0,1
49,3.08,1644832684.046875,P06,D10,0,0,1
50,4.37,1644832684.0625,P06,D10,0,0,1
51,5.42,1644832684.078125,P06,D10,0,0,1
52,6.26,1644832684.09375,P06,D10,0,0,1
53,6.97,1644832684.109375,P06,D10,0,0,1
54,7.65,1644832684.125,P06,D10,0,0,1
55,8.39,1644832684.140625,P06,D10,0,0,1
56,9.26,1644832684.15625,P06,D10,0,0,1
57,10.16,1644832684.171875,P06,D10,0,0,1
58,10.87,1644832684.1875,P06,D10,0,0,1
59,11.09,1644832684.203125,P06,D10,0,0,1
60,10.63,1644832684.21875,P06,D10,0,0,1
61,9.5,1644832684.234375,P06,D10,0,0,1
62,7.97,1644832684.25,P06,D10,0,0,1
63,6.43,1644832684.265625,P06,D10,0,0,1
64,5.2,1644832684.28125,P06,D10,0,0,1
65,4.38,1644832684.296875,P06,D10,0,0,1
66,3.86,1644832684.3125,P06,D10,0,0,1
67,3.46,1644832684.328125,P06,D10,0,0,1
68,3.09,1644832684.34375,P06,D10,0,0,1
69,2.78,1644832684.359375,P06,D10,0,0,1
70,2.63,1644832684.375,P06,D10,0,0,1
71,2.67,1644832684.390625,P06,D10,0,0,1
72,2.81,1644832684.40625,P06,D10,0,0,1
73,2.82,1644832684.421875,P06,D10,0,0,1
74,2.54,1644832684.4375,P06,D10,0,0,1
75,1.89,1644832684.453125,P06,D10,0,0,1
76,0.99,1644832684.46875,P06,D10,0,0,1
77,0.04,1644832684.484375,P06,D10,0,0,1
78,-0.73,1644832684.5,P06,D10,0,0,1
79,-1.19,1644832684.515625,P06,D10,0,0,1
80,-1.27,1644832684.53125,P06,D10,0,0,1
81,-1.08,1644832684.546875,P06,D10,0,0,1
82,-0.78,1644832684.5625,P06,D10,0,0,1
83,-0.59,1644832684.578125,P06,D10,0,0,1
84,-0.69,1644832684.59375,P06,D10,0,0,1
85,-1.09,1644832684.609375,P06,D10,0,0,1
86,-1.68,1644832684.625,P06,D10,0,0,1
87,-2.25,1644832684.640625,P06,D10,0,0,1
88,-2.58,1644832684.65625,P06,D10,0,0,1
89,-2.61,1644832684.671875,P06,D10,0,0,1
90,-2.43,1644832684.6875,P06,D10,0,0,1
91,-2.22,1644832684.703125,P06,D10,0,0,1
92,-2.14,1644832684.71875,P06,D10,0,0,1
93,-2.23,1644832684.734375,P06,D10,0,0,1
94,-2.43,1644832684.75,P06,D10,0,0,1
95,-2.58,1644832684.765625,P06,D10,0,0,1
96,-2.6,1644832684.78125,P06,D10,0,0,1
97,-2.5,1644832684.796875,P06,D10,0,0,1
98,-2.36,1644832684.8125,P06,D10,0,0,1
99,-2.27,1644832684.828125,P06,D10,0,0,1
100,-2.28,1644832684.84375,P06,D10,0,0,1
101,-2.36,1644832684.859375,P06,D10,0,0,1
102,-2.45,1644832684.875,P06,D10,0,0,1
103,-2.49,1644832684.890625,P06,D10,0,0,1
104,-2.44,1644832684.90625,P06,D10,0,0,1
105,-2.32,1644832684.921875,P06,D10,0,0,1
106,-2.13,1644832684.9375,P06,D10,0,0,1
107,-1.91,1644832684.953125,P06,D10,0,0,1
108,-1.69,1644832684.96875,P06,D10,0,0,1
109,-1.49,1644832684.984375,P06,D10,0,0,1
110,-1.32,1644832685.0,P06,D10,0,0,1
111,-1.19,1644832685.015625,P06,D10,0,0,1
112,-1.09,1644832685.03125,P06,D10,0,0,1
113,-1.04,1644832685.046875,P06,D10,0,0,1
114,-1.03,1644832685.0625,P06,D10,0,0,1
115,-1.06,1644832685.078125,P06,D10,0,0,1
116,-1.12,1644832685.09375,P06,D10,0,0,1
117,-1.16,1644832685.109375,P06,D10,0,0,1
118,-1.11,1644832685.125,P06,D10,0,0,1
119,-0.94,1644832685.140625,P06,D10,0,0,1
120,-0.63,1644832685.15625,P06,D10,0,0,1
121,-0.26,1644832685.171875,P06,D10,0,0,1
122,0.05,1644832685.1875,P06,D10,0,0,1
123,0.2,1644832685.203125,P06,D10,0,0,1
124,0.17,1644832685.21875,P06,D10,0,0,1
125,-0.01,1644832685.234375,P06,D10,0,0,1
126,-0.23,1644832685.25,P06,D10,0,0,1
127,-0.37,1644832685.265625,P06,D10,0,0,1
128,-0.36,1644832685.28125,P06,D10,0,0,1
129,-0.16,1644832685.296875,P06,D10,0,0,1
130,0.19,1644832685.3125,P06,D10,0,0,1
131,0.61,1644832685.328125,P06,D10,0,0,1
132,1.0,1644832685.34375,P06,D10,0,0,1
133,1.26,1644832685.359375,P06,D10,0,0,1
134,1.3,1644832685.375,P06,D10,0,0,1
135,1.1,1644832685.390625,P06,D10,0,0,1
136,0.73,1644832685.40625,P06,D10,0,0,1
137,0.3,1644832685.421875,P06,D10,0,0,1
138,-0.06,1644832685.4375,P06,D10,0,0,1
139,-0.24,1644832685.453125,P06,D10,0,0,1
140,-0.25,1644832685.46875,P06,D10,0,0,1
141,-0.13,1644832685.484375,P06,D10,0,0,1
142,0.0,1644832685.5,P06,D10,0,0,1
143,0.06,1644832685.515625,P06,D10,0,0,1
144,-0.02,1644832685.53125,P06,D10,0,0,1
145,-0.2,1644832685.546875,P06,D10,0,0,1
146,-0.43,1644832685.5625,P06,D10,0,0,1
147,-0.61,1644832685.578125,P06,D10,0,0,1
148,-0.67,1644832685.59375,P06,D10,0,0,1
149,-0.59,1644832685.609375,P06,D10,0,0,1
150,-0.43,1644832685.625,P06,D10,0,0,1
151,-0.26,1644832685.640625,P06,D10,0,0,1
152,-0.17,1644832685.65625,P06,D10,0,0,1
153,-0.2,1644832685.671875,P06,D10,0,0,1
154,-0.33,1644832685.6875,P06,D10,0,0,1
155,-0.49,1644832685.703125,P06,D10,0,0,1
156,-0.6,1644832685.71875,P06,D10,0,0,1
157,-0.62,1644832685.734375,P06,D10,0,0,1
158,-0.55,1644832685.75,P06,D10,0,0,1
159,-0.44,1644832685.765625,P06,D10,0,0,1
160,-0.33,1644832685.78125,P06,D10,0,0,1
161,-0.29,1644832685.796875,P06,D10,0,0,1
162,-0.29,1644832685.8125,P06,D10,0,0,1
163,-0.33,1644832685.828125,P06,D10,0,0,1
164,-0.36,1644832685.84375,P06,D10,0,0,1
165,-0.35,1644832685.859375,P06,D10,0,0,1
166,-0.27,1644832685.875,P06,D10,0,0,1
167,-0.14,1644832685.890625,P06,D10,0,0,1
168,0.03,1644832685.90625,P06,D10,0,0,1
169,0.21,1644832685.921875,P06,D10,0,0,1
170,0.39,1644832685.9375,P06,D10,0,0,1
171,0.56,1644832685.953125,P06,D10,0,0,1
172,0.73,1644832685.96875,P06,D10,0,0,1
173,0.87,1644832685.984375,P06,D10,0,0,1
174,0.97,1644832686.0,P06,D10,0,0,1
175,1.0,1644832686.015625,P06,D10,0,0,1
176,0.96,1644832686.03125,P06,D10,0,0,1
177,0.85,1644832686.046875,P06,D10,0,0,1
178,0.67,1644832686.0625,P06,D10,0,0,1
179,0.46,1644832686.078125,P06,D10,0,0,1
180,0.23,1644832686.09375,P06,D10,0,0,1
181,0.03,1644832686.109375,P06,D10,0,0,1
182,-0.11,1644832686.125,P06,D10,0,0,1
183,-0.14,1644832686.140625,P06,D10,0,0,1
184,-0.06,1644832686.15625,P06,D10,0,0,1
185,0.1,1644832686.171875,P06,D10,0,0,1
186,0.29,1644832686.1875,P06,D10,0,0,1
187,0.44,1644832686.203125,P06,D10,0,0,1
188,0.55,1644832686.21875,P06,D10,0,0,1
189,0.62,1644832686.234375,P06,D10,0,0,1
190,0.7,1644832686.25,P06,D10,0,0,1
191,0.81,1644832686.265625,P06,D10,0,0,1
192,0.94,1644832686.28125,P06,D10,0,0,1
193,1.02,1644832686.296875,P06,D10,0,0,1
194,1.03,1644832686.3125,P06,D10,0,0,1
195,0.93,1644832686.328125,P06,D10,0,0,1
196,0.77,1644832686.34375,P06,D10,0,0,1
197,0.6,1644832686.359375,P06,D10,0,0,1
198,0.45,1644832686.375,P06,D10,0,0,1
199,0.34,1644832686.390625,P06,D10,0,0,1
200,0.24,1644832686.40625,P06,D10,0,0,1
201,0.12,1644832686.421875,P06,D10,0,0,1
202,0.02,1644832686.4375,P06,D10,0,0,1
203,-0.03,1644832686.453125,P06,D10,0,0,1
204,0.04,1644832686.46875,P06,D10,0,0,1
205,0.19,1644832686.484375,P06,D10,0,0,1
206,0.34,1644832686.5,P06,D10,0,0,1
207,0.39,1644832686.515625,P06,D10,0,0,1
208,0.24,1644832686.53125,P06,D10,0,0,1
209,-0.07,1644832686.546875,P06,D10,0,0,1
210,-0.45,1644832686.5625,P06,D10,0,0,1
211,-0.78,1644832686.578125,P06,D10,0,0,1
212,-0.99,1644832686.59375,P06,D10,0,0,1
213,-1.1,1644832686.609375,P06,D10,0,0,1
214,-1.17,1644832686.625,P06,D10,0,0,1
215,-1.22,1644832686.640625,P06,D10,0,0,1
216,-1.24,1644832686.65625,P06,D10,0,0,1
217,-1.22,1644832686.671875,P06,D10,0,0,1
218,-1.14,1644832686.6875,P06,D10,0,0,1
219,-1.03,1644832686.703125,P06,D10,0,0,1
220,-0.94,1644832686.71875,P06,D10,0,0,1
221,-0.92,1644832686.734375,P06,D10,0,0,1
222,-0.95,1644832686.75,P06,D10,0,0,1
223,-0.96,1644832686.765625,P06,D10,0,0,1
224,-0.88,1644832686.78125,P06,D10,0,0,1
225,-0.7,1644832686.796875,P06,D10,0,0,1
226,-0.48,1644832686.8125,P06,D10,0,0,1
227,-0.32,1644832686.828125,P06,D10,0,0,1
228,-0.29,1644832686.84375,P06,D10,0,0,1
229,-0.39,1644832686.859375,P06,D10,0,0,1
230,-0.56,1644832686.875,P06,D10,0,0,1
231,-0.73,1644832686.890625,P06,D10,0,0,1
232,-0.84,1644832686.90625,P06,D10,0,0,1
233,-0.89,1644832686.921875,P06,D10,0,0,1
234,-0.9,1644832686.9375,P06,D10,0,0,1
235,-0.92,1644832686.953125,P06,D10,0,0,1
236,-0.97,1644832686.96875,P06,D10,0,0,1
237,-1.07,1644832686.984375,P06,D10,0,0,1
238,-1.19,1644832687.0,P06,D10,0,0,1
239,-1.32,1644832687.015625,P06,D10,0,0,1
240,-1.46,1644832687.03125,P06,D10,0,0,1
241,-1.64,1644832687.046875,P06,D10,0,0,1
242,-1.86,1644832687.0625,P06,D10,0,0,1
243,-2.12,1644832687.078125,P06,D10,0,0,1
244,-2.34,1644832687.09375,P06,D10,0,0,1
245,-2.44,1644832687.109375,P06,D10,0,0,1
246,-2.37,1644832687.125,P06,D10,0,0,1
247,-2.13,1644832687.140625,P06,D10,0,0,1
248,-1.79,1644832687.15625,P06,D10,0,0,1
249,-1.46,1644832687.171875,P06,D10,0,0,1
250,-1.23,1644832687.1875,P06,D10,0,0,1
251,-1.11,1644832687.203125,P06,D10,0,0,1
252,-1.03,1644832687.21875,P06,D10,0,0,1
253,-0.86,1644832687.234375,P06,D10,0,0,1
254,-0.47,1644832687.25,P06,D10,0,0,1
255,0.23,1644832687.265625,P06,D10,0,0,1
256,1.23,1644832687.28125,P06,D10,0,0,1
257,2.43,1644832687.296875,P06,D10,0,0,1
258,3.69,1644832687.3125,P06,D10,0,0,1
259,4.81,1644832687.328125,P06,D10,0,0,1
260,5.67,1644832687.34375,P06,D10,0,0,1
261,6.16,1644832687.359375,P06,D10,0,0,1
262,6.29,1644832687.375,P06,D10,0,0,1
263,6.08,1644832687.390625,P06,D10,0,0,1
264,5.6,1644832687.40625,P06,D10,0,0,1
265,4.91,1644832687.421875,P06,D10,0,0,1
266,4.16,1644832687.4375,P06,D10,0,0,1
267,3.54,1644832687.453125,P06,D10,0,0,1
268,3.31,1644832687.46875,P06,D10,0,0,1
269,3.66,1644832687.484375,P06,D10,0,0,1
270,4.61,1644832687.5,P06,D10,0,0,1
271,5.91,1644832687.515625,P06,D10,0,0,1
272,7.16,1644832687.53125,P06,D10,0,0,1
273,7.91,1644832687.546875,P06,D10,0,0,1
274,8.01,1644832687.5625,P06,D10,0,0,1
275,7.58,1644832687.578125,P06,D10,0,0,1
276,7.04,1644832687.59375,P06,D10,0,0,1
277,6.8,1644832687.609375,P06,D10,0,0,1
278,7.06,1644832687.625,P06,D10,0,0,1
279,7.67,1644832687.640625,P06,D10,0,0,1
280,8.25,1644832687.65625,P06,D10,0,0,1
281,8.41,1644832687.671875,P06,D10,0,0,1
282,7.96,1644832687.6875,P06,D10,0,0,1
283,7.06,1644832687.703125,P06,D10,0,0,1
284,6.07,1644832687.71875,P06,D10,0,0,1
285,5.42,1644832687.734375,P06,D10,0,0,1
286,5.37,1644832687.75,P06,D10,0,0,1
287,5.94,1644832687.765625,P06,D10,0,0,1
288,6.92,1644832687.78125,P06,D10,0,0,1
289,7.95,1644832687.796875,P06,D10,0,0,1
290,8.66,1644832687.8125,P06,D10,0,0,1
291,8.77,1644832687.828125,P06,D10,0,0,1
292,8.14,1644832687.84375,P06,D10,0,0,1
293,6.87,1644832687.859375,P06,D10,0,0,1
294,5.23,1644832687.875,P06,D10,0,0,1
295,3.67,1644832687.890625,P06,D10,0,0,1
296,2.72,1644832687.90625,P06,D10,0,0,1
297,2.89,1644832687.921875,P06,D10,0,0,1
298,4.38,1644832687.9375,P06,D10,0,0,1
299,6.89,1644832687.953125,P06,D10,0,0,1
300,9.53,1644832687.96875,P06,D10,0,0,1
301,11.03,1644832687.984375,P06,D10,0,0,1
302,10.24,1644832688.0,P06,D10,0,0,1
303,6.67,1644832688.015625,P06,D10,0,0,1
304,0.79,1644832688.03125,P06,D10,0,0,1
305,-6.1,1644832688.046875,P06,D10,0,0,1
306,-12.35,1644832688.0625,P06,D10,0,0,1
307,-16.69,1644832688.078125,P06,D10,0,0,1
308,-18.61,1644832688.09375,P06,D10,0,0,1
309,-18.45,1644832688.109375,P06,D10,0,0,1
310,-16.95,1644832688.125,P06,D10,0,0,1
311,-14.87,1644832688.140625,P06,D10,0,0,1
312,-12.68,1644832688.15625,P06,D10,0,0,1
313,-10.54,1644832688.171875,P06,D10,0,0,1
314,-8.55,1644832688.1875,P06,D10,0,0,1
315,-6.89,1644832688.203125,P06,D10,0,0,1
316,-5.85,1644832688.21875,P06,D10,0,0,1
317,-5.64,1644832688.234375,P06,D10,0,0,1
318,-6.23,1644832688.25,P06,D10,0,0,1
319,-7.3,1644832688.265625,P06,D10,0,0,1
320,-8.32,1644832688.28125,P06,D10,0,0,1
321,-8.8,1644832688.296875,P06,D10,0,0,1
322,-8.44,1644832688.3125,P06,D10,0,0,1
323,-7.26,1644832688.328125,P06,D10,0,0,1
324,-5.6,1644832688.34375,P06,D10,0,0,1
325,-3.95,1644832688.359375,P06,D10,0,0,1
326,-2.77,1644832688.375,P06,D10,0,0,1
327,-2.34,1644832688.390625,P06,D10,0,0,1
328,-2.57,1644832688.40625,P06,D10,0,0,1
329,-3.15,1644832688.421875,P06,D10,0,0,1
330,-3.66,1644832688.4375,P06,D10,0,0,1
331,-3.78,1644832688.453125,P06,D10,0,0,1
332,-3.43,1644832688.46875,P06,D10,0,0,1
333,-2.81,1644832688.484375,P06,D10,0,0,1
334,-2.21,1644832688.5,P06,D10,0,0,1
335,-1.89,1644832688.515625,P06,D10,0,0,1
336,-1.94,1644832688.53125,P06,D10,0,0,1
337,-2.3,1644832688.546875,P06,D10,0,0,1
338,-2.79,1644832688.5625,P06,D10,0,0,1
339,-3.21,1644832688.578125,P06,D10,0,0,1
340,-3.38,1644832688.59375,P06,D10,0,0,1
341,-3.27,1644832688.609375,P06,D10,0,0,1
342,-2.93,1644832688.625,P06,D10,0,0,1
343,-2.49,1644832688.640625,P06,D10,0,0,1
344,-2.12,1644832688.65625,P06,D10,0,0,1
345,-1.92,1644832688.671875,P06,D10,0,0,1
346,-1.87,1644832688.6875,P06,D10,0,0,1
347,-1.88,1644832688.703125,P06,D10,0,0,1
348,-1.81,1644832688.71875,P06,D10,0,0,1
349,-1.59,1644832688.734375,P06,D10,0,0,1
350,-1.24,1644832688.75,P06,D10,0,0,1
351,-0.88,1644832688.765625,P06,D10,0,0,1
352,-0.66,1644832688.78125,P06,D10,0,0,1
353,-0.65,1644832688.796875,P06,D10,0,0,1
354,-0.86,1644832688.8125,P06,D10,0,0,1
355,-1.16,1644832688.828125,P06,D10,0,0,1
356,-1.41,1644832688.84375,P06,D10,0,0,1
357,-1.46,1644832688.859375,P06,D10,0,0,1
358,-1.24,1644832688.875,P06,D10,0,0,1
359,-0.79,1644832688.890625,P06,D10,0,0,1
360,-0.23,1644832688.90625,P06,D10,0,0,1
361,0.3,1644832688.921875,P06,D10,0,0,1
362,0.64,1644832688.9375,P06,D10,0,0,1
363,0.73,1644832688.953125,P06,D10,0,0,1
364,0.59,1644832688.96875,P06,D10,0,0,1
365,0.33,1644832688.984375,P06,D10,0,0,1
366,0.04,1644832689.0,P06,D10,0,0,1
367,-0.2,1644832689.015625,P06,D10,0,0,1
368,-0.36,1644832689.03125,P06,D10,0,0,1
369,-0.44,1644832689.046875,P06,D10,0,0,1
370,-0.45,1644832689.0625,P06,D10,0,0,1
371,-0.41,1644832689.078125,P06,D10,0,0,1
372,-0.33,1644832689.09375,P06,D10,0,0,1
373,-0.23,1644832689.109375,P06,D10,0,0,1
374,-0.12,1644832689.125,P06,D10,0,0,1
375,-0.02,1644832689.140625,P06,D10,0,0,1
376,0.07,1644832689.15625,P06,D10,0,0,1
377,0.13,1644832689.171875,P06,D10,0,0,1
378,0.13,1644832689.1875,P06,D10,0,0,1
379,0.06,1644832689.203125,P06,D10,0,0,1
380,-0.07,1644832689.21875,P06,D10,0,0,1
381,-0.2,1644832689.234375,P06,D10,0,0,1
382,-0.26,1644832689.25,P06,D10,0,0,1
383,-0.21,1644832689.265625,P06,D10,0,0,1
384,-0.09,1644832689.28125,P06,D10,0,0,1
385,0.01,1644832689.296875,P06,D10,0,0,1
386,0.01,1644832689.3125,P06,D10,0,0,1
387,-0.09,1644832689.328125,P06,D10,0,0,1
388,-0.2,1644832689.34375,P06,D10,0,0,1
389,-0.21,1644832689.359375,P06,D10,0,0,1
390,-0.04,1644832689.375,P06,D10,0,0,1
391,0.26,1644832689.390625,P06,D10,0,0,1
392,0.59,1644832689.40625,P06,D10,0,0,1
393,0.8,1644832689.421875,P06,D10,0,0,1
394,0.83,1644832689.4375,P06,D10,0,0,1
395,0.69,1644832689.453125,P06,D10,0,0,1
396,0.49,1644832689.46875,P06,D10,0,0,1
397,0.35,1644832689.484375,P06,D10,0,0,1
398,0.32,1644832689.5,P06,D10,0,0,1
399,0.41,1644832689.515625,P06,D10,0,0,1
400,0.54,1644832689.53125,P06,D10,0,0,1
401,0.64,1644832689.546875,P06,D10,0,0,1
402,0.66,1644832689.5625,P06,D10,0,0,1
403,0.57,1644832689.578125,P06,D10,0,0,1
404,0.41,1644832689.59375,P06,D10,0,0,1
405,0.24,1644832689.609375,P06,D10,0,0,1
406,0.09,1644832689.625,P06,D10,0,0,1
407,-0.01,1644832689.640625,P06,D10,0,0,1
408,-0.07,1644832689.65625,P06,D10,0,0,1
409,-0.11,1644832689.671875,P06,D10,0,0,1
410,-0.15,1644832689.6875,P06,D10,0,0,1
411,-0.2,1644832689.703125,P06,D10,0,0,1
412,-0.29,1644832689.71875,P06,D10,0,0,1
413,-0.46,1644832689.734375,P06,D10,0,0,1
414,-0.74,1644832689.75,P06,D10,0,0,1
415,-1.1,1644832689.765625,P06,D10,0,0,1
416,-1.49,1644832689.78125,P06,D10,0,0,1
417,-1.79,1644832689.796875,P06,D10,0,0,1
418,-1.86,1644832689.8125,P06,D10,0,0,1
419,-1.64,1644832689.828125,P06,D10,0,0,1
420,-1.17,1644832689.84375,P06,D10,0,0,1
421,-0.6,1644832689.859375,P06,D10,0,0,1
422,-0.11,1644832689.875,P06,D10,0,0,1
423,0.17,1644832689.890625,P06,D10,0,0,1
424,0.2,1644832689.90625,P06,D10,0,0,1
425,0.05,1644832689.921875,P06,D10,0,0,1
426,-0.15,1644832689.9375,P06,D10,0,0,1
427,-0.29,1644832689.953125,P06,D10,0,0,1
428,-0.31,1644832689.96875,P06,D10,0,0,1
429,-0.21,1644832689.984375,P06,D10,0,0,1
430,-0.03,1644832690.0,P06,D10,0,0,1
431,0.18,1644832690.015625,P06,D10,0,0,1
432,0.4,1644832690.03125,P06,D10,0,0,1
433,0.64,1644832690.046875,P06,D10,0,0,1
434,0.92,1644832690.0625,P06,D10,0,0,1
435,1.22,1644832690.078125,P06,D10,0,0,1
436,1.52,1644832690.09375,P06,D10,0,0,1
437,1.75,1644832690.109375,P06,D10,0,0,1
438,1.84,1644832690.125,P06,D10,0,0,1
439,1.72,1644832690.140625,P06,D10,0,0,1
440,1.37,1644832690.15625,P06,D10,0,0,1
441,0.86,1644832690.171875,P06,D10,0,0,1
442,0.3,1644832690.1875,P06,D10,0,0,1
443,-0.17,1644832690.203125,P06,D10,0,0,1
444,-0.46,1644832690.21875,P06,D10,0,0,1
445,-0.54,1644832690.234375,P06,D10,0,0,1
446,-0.5,1644832690.25,P06,D10,0,0,1
447,-0.44,1644832690.265625,P06,D10,0,0,1
448,-0.46,1644832690.28125,P06,D10,0,0,1
449,-0.6,1644832690.296875,P06,D10,0,0,1
450,-0.81,1644832690.3125,P06,D10,0,0,1
451,-0.98,1644832690.328125,P06,D10,0,0,1
452,-0.99,1644832690.34375,P06,D10,0,0,1
453,-0.79,1644832690.359375,P06,D10,0,0,1
454,-0.39,1644832690.375,P06,D10,0,0,1
455,0.13,1644832690.390625,P06,D10,0,0,1
456,0.64,1644832690.40625,P06,D10,0,0,1
457,1.03,1644832690.421875,P06,D10,0,0,1
458,1.22,1644832690.4375,P06,D10,0,0,1
459,1.21,1644832690.453125,P06,D10,0,0,1
460,1.02,1644832690.46875,P06,D10,0,0,1
461,0.69,1644832690.484375,P06,D10,0,0,1
462,0.26,1644832690.5,P06,D10,0,0,1
463,-0.22,1644832690.515625,P06,D10,0,0,1
464,-0.68,1644832690.53125,P06,D10,0,0,1
465,-1.05,1644832690.546875,P06,D10,0,0,1
466,-1.22,1644832690.5625,P06,D10,0,0,1
467,-1.16,1644832690.578125,P06,D10,0,0,1
468,-0.9,1644832690.59375,P06,D10,0,0,1
469,-0.56,1644832690.609375,P06,D10,0,0,1
470,-0.26,1644832690.625,P06,D10,0,0,1
471,-0.05,1644832690.640625,P06,D10,0,0,1
472,0.05,1644832690.65625,P06,D10,0,0,1
473,0.11,1644832690.671875,P06,D10,0,0,1
474,0.19,1644832690.6875,P06,D10,0,0,1
475,0.29,1644832690.703125,P06,D10,0,0,1
476,0.39,1644832690.71875,P06,D10,0,0,1
477,0.44,1644832690.734375,P06,D10,0,0,1
478,0.41,1644832690.75,P06,D10,0,0,1
479,0.34,1644832690.765625,P06,D10,0,0,1
480,0.3,1644832690.78125,P06,D10,0,0,1
481,0.36,1644832690.796875,P06,D10,0,0,1
482,0.52,1644832690.8125,P06,D10,0,0,1
483,0.74,1644832690.828125,P06,D10,0,0,1
484,0.9,1644832690.84375,P06,D10,0,0,1
485,0.94,1644832690.859375,P06,D10,0,0,1
486,0.82,1644832690.875,P06,D10,0,0,1
487,0.62,1644832690.890625,P06,D10,0,0,1
488,0.39,1644832690.90625,P06,D10,0,0,1
489,0.23,1644832690.921875,P06,D10,0,0,1
490,0.15,1644832690.9375,P06,D10,0,0,1
491,0.11,1644832690.953125,P06,D10,0,0,1
492,0.08,1644832690.96875,P06,D10,0,0,1
493,0.01,1644832690.984375,P06,D10,0,0,1
494,-0.13,1644832691.0,P06,D10,0,0,1
495,-0.3,1644832691.015625,P06,D10,0,0,1
496,-0.44,1644832691.03125,P06,D10,0,0,1
497,-0.47,1644832691.046875,P06,D10,0,0,1
498,-0.36,1644832691.0625,P06,D10,0,0,1
499,-0.12,1644832691.078125,P06,D10,0,0,1
500,0.17,1644832691.09375,P06,D10,0,0,1
501,0.42,1644832691.109375,P06,D10,0,0,1
502,0.51,1644832691.125,P06,D10,0,0,1
503,0.41,1644832691.140625,P06,D10,0,0,1
504,0.18,1644832691.15625,P06,D10,0,0,1
505,-0.03,1644832691.171875,P06,D10,0,0,1
506,-0.07,1644832691.1875,P06,D10,0,0,1
507,0.12,1644832691.203125,P06,D10,0,0,1
508,0.47,1644832691.21875,P06,D10,0,0,1
509,0.8,1644832691.234375,P06,D10,0,0,1
510,0.93,1644832691.25,P06,D10,0,0,1
511,0.75,1644832691.265625,P06,D10,0,0,1
512,0.33,1644832691.28125,P06,D10,0,0,1
513,-0.19,1644832691.296875,P06,D10,0,0,1
514,-0.6,1644832691.3125,P06,D10,0,0,1
515,-0.82,1644832691.328125,P06,D10,0,0,1
516,-0.86,1644832691.34375,P06,D10,0,0,1
517,-0.8,1644832691.359375,P06,D10,0,0,1
518,-0.77,1644832691.375,P06,D10,0,0,1
519,-0.8,1644832691.390625,P06,D10,0,0,1
520,-0.86,1644832691.40625,P06,D10,0,0,1
521,-0.89,1644832691.421875,P06,D10,0,0,1
522,-0.82,1644832691.4375,P06,D10,0,0,1
523,-0.67,1644832691.453125,P06,D10,0,0,1
524,-0.47,1644832691.46875,P06,D10,0,0,1
525,-0.28,1644832691.484375,P06,D10,0,0,1
526,-0.1,1644832691.5,P06,D10,0,0,1
527,0.08,1644832691.515625,P06,D10,0,0,1
528,0.32,1644832691.53125,P06,D10,0,0,1
529,0.61,1644832691.546875,P06,D10,0,0,1
530,0.91,1644832691.5625,P06,D10,0,0,1
531,1.12,1644832691.578125,P06,D10,0,0,1
532,1.16,1644832691.59375,P06,D10,0,0,1
533,1.0,1644832691.609375,P06,D10,0,0,1
534,0.71,1644832691.625,P06,D10,0,0,1
535,0.41,1644832691.640625,P06,D10,0,0,1
536,0.21,1644832691.65625,P06,D10,0,0,1
537,0.16,1644832691.671875,P06,D10,0,0,1
538,0.23,1644832691.6875,P06,D10,0,0,1
539,0.3,1644832691.703125,P06,D10,0,0,1
540,0.3,1644832691.71875,P06,D10,0,0,1
541,0.21,1644832691.734375,P06,D10,0,0,1
542,0.09,1644832691.75,P06,D10,0,0,1
543,0.04,1644832691.765625,P06,D10,0,0,1
544,0.1,1644832691.78125,P06,D10,0,0,1
545,0.24,1644832691.796875,P06,D10,0,0,1
546,0.36,1644832691.8125,P06,D10,0,0,1
547,0.36,1644832691.828125,P06,D10,0,0,1
548,0.23,1644832691.84375,P06,D10,0,0,1
549,0.03,1644832691.859375,P06,D10,0,0,1
550,-0.14,1644832691.875,P06,D10,0,0,1
551,-0.19,1644832691.890625,P06,D10,0,0,1
552,-0.12,1644832691.90625,P06,D10,0,0,1
553,-0.01,1644832691.921875,P06,D10,0,0,1
554,0.03,1644832691.9375,P06,D10,0,0,1
555,-0.09,1644832691.953125,P06,D10,0,0,1
556,-0.38,1644832691.96875,P06,D10,0,0,1
557,-0.76,1644832691.984375,P06,D10,0,0,1
558,-1.08,1644832692.0,P06,D10,0,0,1
559,-1.22,1644832692.015625,P06,D10,0,0,1
560,-1.1,1644832692.03125,P06,D10,0,0,1
561,-0.75,1644832692.046875,P06,D10,0,0,1
562,-0.29,1644832692.0625,P06,D10,0,0,1
563,0.1,1644832692.078125,P06,D10,0,0,1
564,0.32,1644832692.09375,P06,D10,0,0,1
565,0.34,1644832692.109375,P06,D10,0,0,1
566,0.22,1644832692.125,P06,D10,0,0,1
567,0.08,1644832692.140625,P06,D10,0,0,1
568,0.01,1644832692.15625,P06,D10,0,0,1
569,-0.01,1644832692.171875,P06,D10,0,0,1
570,-0.01,1644832692.1875,P06,D10,0,0,1
571,-0.03,1644832692.203125,P06,D10,0,0,1
572,-0.06,1644832692.21875,P06,D10,0,0,1
573,-0.02,1644832692.234375,P06,D10,0,0,1
574,0.15,1644832692.25,P06,D10,0,0,1
575,0.43,1644832692.265625,P06,D10,0,0,1
576,0.72,1644832692.28125,P06,D10,0,0,1
577,0.88,1644832692.296875,P06,D10,0,0,1
578,0.84,1644832692.3125,P06,D10,0,0,1
579,0.62,1644832692.328125,P06,D10,0,0,1
580,0.32,1644832692.34375,P06,D10,0,0,1
581,0.07,1644832692.359375,P06,D10,0,0,1
582,-0.06,1644832692.375,P06,D10,0,0,1
583,-0.08,1644832692.390625,P06,D10,0,0,1
584,-0.06,1644832692.40625,P06,D10,0,0,1
585,-0.07,1644832692.421875,P06,D10,0,0,1
586,-0.12,1644832692.4375,P06,D10,0,0,1
587,-0.18,1644832692.453125,P06,D10,0,0,1
588,-0.22,1644832692.46875,P06,D10,0,0,1
589,-0.2,1644832692.484375,P06,D10,0,0,1
590,-0.13,1644832692.5,P06,D10,0,0,1
591,-0.03,1644832692.515625,P06,D10,0,0,1
592,0.09,1644832692.53125,P06,D10,0,0,1
593,0.17,1644832692.546875,P06,D10,0,0,1
594,0.19,1644832692.5625,P06,D10,0,0,1
595,0.11,1644832692.578125,P06,D10,0,0,1
596,-0.05,1644832692.59375,P06,D10,0,0,1
597,-0.26,1644832692.609375,P06,D10,0,0,1
598,-0.42,1644832692.625,P06,D10,0,0,1
599,-0.44,1644832692.640625,P06,D10,0,0,1
600,-0.29,1644832692.65625,P06,D10,0,0,1
601,-0.02,1644832692.671875,P06,D10,0,0,1
602,0.27,1644832692.6875,P06,D10,0,0,1
603,0.45,1644832692.703125,P06,D10,0,0,1
604,0.46,1644832692.71875,P06,D10,0,0,1
605,0.34,1644832692.734375,P06,D10,0,0,1
606,0.18,1644832692.75,P06,D10,0,0,1
607,0.06,1644832692.765625,P06,D10,0,0,1
608,0.0,1644832692.78125,P06,D10,0,0,1
609,-0.03,1644832692.796875,P06,D10,0,0,1
610,-0.09,1644832692.8125,P06,D10,0,0,1
611,-0.2,1644832692.828125,P06,D10,0,0,1
612,-0.35,1644832692.84375,P06,D10,0,0,1
613,-0.47,1644832692.859375,P06,D10,0,0,1
614,-0.52,1644832692.875,P06,D10,0,0,1
615,-0.48,1644832692.890625,P06,D10,0,0,1
616,-0.38,1644832692.90625,P06,D10,0,0,1
617,-0.31,1644832692.921875,P06,D10,0,0,1
618,-0.32,1644832692.9375,P06,D10,0,0,1
619,-0.45,1644832692.953125,P06,D10,0,0,1
620,-0.69,1644832692.96875,P06,D10,0,0,1
621,-0.96,1644832692.984375,P06,D10,0,0,1
622,-1.19,1644832693.0,P06,D10,0,0,1
623,-1.33,1644832693.015625,P06,D10,0,0,1
624,-1.33,1644832693.03125,P06,D10,0,0,1
625,-1.19,1644832693.046875,P06,D10,0,0,1
626,-0.94,1644832693.0625,P06,D10,0,0,1
627,-0.63,1644832693.078125,P06,D10,0,0,1
628,-0.29,1644832693.09375,P06,D10,0,0,1
629,0.0,1644832693.109375,P06,D10,0,0,1
630,0.16,1644832693.125,P06,D10,0,0,1
631,0.11,1644832693.140625,P06,D10,0,0,1
632,-0.14,1644832693.15625,P06,D10,0,0,1
633,-0.54,1644832693.171875,P06,D10,0,0,1
634,-0.94,1644832693.1875,P06,D10,0,0,1
635,-1.2,1644832693.203125,P06,D10,0,0,1
636,-1.24,1644832693.21875,P06,D10,0,0,1
637,-1.1,1644832693.234375,P06,D10,0,0,1
638,-0.88,1644832693.25,P06,D10,0,0,1
639,-0.7,1644832693.265625,P06,D10,0,0,1
640,-0.61,1644832693.28125,P06,D10,0,0,1
641,-0.59,1644832693.296875,P06,D10,0,0,1
642,-0.55,1644832693.3125,P06,D10,0,0,1
643,-0.44,1644832693.328125,P06,D10,0,0,1
644,-0.28,1644832693.34375,P06,D10,0,0,1
645,-0.14,1644832693.359375,P06,D10,0,0,1
646,-0.09,1644832693.375,P06,D10,0,0,1
647,-0.13,1644832693.390625,P06,D10,0,0,1
648,-0.19,1644832693.40625,P06,D10,0,0,1
649,-0.18,1644832693.421875,P06,D10,0,0,1
650,-0.01,1644832693.4375,P06,D10,0,0,1
651,0.35,1644832693.453125,P06,D10,0,0,1
652,0.83,1644832693.46875,P06,D10,0,0,1
653,1.31,1644832693.484375,P06,D10,0,0,1
654,1.67,1644832693.5,P06,D10,0,0,1
655,1.85,1644832693.515625,P06,D10,0,0,1
656,1.85,1644832693.53125,P06,D10,0,0,1
657,1.71,1644832693.546875,P06,D10,0,0,1
658,1.53,1644832693.5625,P06,D10,0,0,1
659,1.36,1644832693.578125,P06,D10,0,0,1
660,1.25,1644832693.59375,P06,D10,0,0,1
661,1.21,1644832693.609375,P06,D10,0,0,1
662,1.21,1644832693.625,P06,D10,0,0,1
663,1.21,1644832693.640625,P06,D10,0,0,1
664,1.16,1644832693.65625,P06,D10,0,0,1
665,1.02,1644832693.671875,P06,D10,0,0,1
666,0.77,1644832693.6875,P06,D10,0,0,1
667,0.44,1644832693.703125,P06,D10,0,0,1
668,0.12,1644832693.71875,P06,D10,0,0,1
669,-0.1,1644832693.734375,P06,D10,0,0,1
670,-0.16,1644832693.75,P06,D10,0,0,1
671,-0.06,1644832693.765625,P06,D10,0,0,1
672,0.11,1644832693.78125,P06,D10,0,0,1
673,0.23,1644832693.796875,P06,D10,0,0,1
674,0.21,1644832693.8125,P06,D10,0,0,1
675,0.06,1644832693.828125,P06,D10,0,0,1
676,-0.16,1644832693.84375,P06,D10,0,0,1
677,-0.3,1644832693.859375,P06,D10,0,0,1
678,-0.28,1644832693.875,P06,D10,0,0,1
679,-0.07,1644832693.890625,P06,D10,0,0,1
680,0.26,1644832693.90625,P06,D10,0,0,1
681,0.59,1644832693.921875,P06,D10,0,0,1
682,0.8,1644832693.9375,P06,D10,0,0,1
683,0.83,1644832693.953125,P06,D10,0,0,1
684,0.69,1644832693.96875,P06,D10,0,0,1
685,0.45,1644832693.984375,P06,D10,0,0,1
686,0.17,1644832694.0,P06,D10,0,0,1
687,-0.08,1644832694.015625,P06,D10,0,0,1
688,-0.3,1644832694.03125,P06,D10,0,0,1
689,-0.48,1644832694.046875,P06,D10,0,0,1
690,-0.6,1644832694.0625,P06,D10,0,0,1
691,-0.62,1644832694.078125,P06,D10,0,0,1
692,-0.53,1644832694.09375,P06,D10,0,0,1
693,-0.33,1644832694.109375,P06,D10,0,0,1
694,-0.09,1644832694.125,P06,D10,0,0,1
695,0.09,1644832694.140625,P06,D10,0,0,1
696,0.14,1644832694.15625,P06,D10,0,0,1
697,0.06,1644832694.171875,P06,D10,0,0,1
698,-0.09,1644832694.1875,P06,D10,0,0,1
699,-0.23,1644832694.203125,P06,D10,0,0,1
700,-0.33,1644832694.21875,P06,D10,0,0,1
701,-0.42,1644832694.234375,P06,D10,0,0,1
702,-0.61,1644832694.25,P06,D10,0,0,1
703,-0.94,1644832694.265625,P06,D10,0,0,1
704,-1.39,1644832694.28125,P06,D10,0,0,1
705,-1.8,1644832694.296875,P06,D10,0,0,1
706,-1.98,1644832694.3125,P06,D10,0,0,1
707,-1.8,1644832694.328125,P06,D10,0,0,1
708,-1.29,1644832694.34375,P06,D10,0,0,1
709,-0.6,1644832694.359375,P06,D10,0,0,1
710,0.01,1644832694.375,P06,D10,0,0,1
711,0.35,1644832694.390625,P06,D10,0,0,1
712,0.35,1644832694.40625,P06,D10,0,0,1
713,0.12,1644832694.421875,P06,D10,0,0,1
714,-0.14,1644832694.4375,P06,D10,0,0,1
715,-0.27,1644832694.453125,P06,D10,0,0,1
716,-0.2,1644832694.46875,P06,D10,0,0,1
717,0.02,1644832694.484375,P06,D10,0,0,1
718,0.27,1644832694.5,P06,D10,0,0,1
719,0.47,1644832694.515625,P06,D10,0,0,1
720,0.63,1644832694.53125,P06,D10,0,0,1
721,0.75,1644832694.546875,P06,D10,0,0,1
722,0.88,1644832694.5625,P06,D10,0,0,1
723,0.99,1644832694.578125,P06,D10,0,0,1
724,1.05,1644832694.59375,P06,D10,0,0,1
725,1.02,1644832694.609375,P06,D10,0,0,1
726,0.9,1644832694.625,P06,D10,0,0,1
727,0.77,1644832694.640625,P06,D10,0,0,1
728,0.7,1644832694.65625,P06,D10,0,0,1
729,0.72,1644832694.671875,P06,D10,0,0,1
730,0.79,1644832694.6875,P06,D10,0,0,1
731,0.82,1644832694.703125,P06,D10,0,0,1
732,0.72,1644832694.71875,P06,D10,0,0,1
733,0.47,1644832694.734375,P06,D10,0,0,1
734,0.12,1644832694.75,P06,D10,0,0,1
735,-0.19,1644832694.765625,P06,D10,0,0,1
736,-0.35,1644832694.78125,P06,D10,0,0,1
737,-0.3,1644832694.796875,P06,D10,0,0,1
738,-0.08,1644832694.8125,P06,D10,0,0,1
739,0.17,1644832694.828125,P06,D10,0,0,1
740,0.31,1644832694.84375,P06,D10,0,0,1
741,0.26,1644832694.859375,P06,D10,0,0,1
742,0.03,1644832694.875,P06,D10,0,0,1
743,-0.27,1644832694.890625,P06,D10,0,0,1
744,-0.53,1644832694.90625,P06,D10,0,0,1
745,-0.65,1644832694.921875,P06,D10,0,0,1
746,-0.6,1644832694.9375,P06,D10,0,0,1
747,-0.42,1644832694.953125,P06,D10,0,0,1
748,-0.17,1644832694.96875,P06,D10,0,0,1
749,0.09,1644832694.984375,P06,D10,0,0,1
750,0.34,1644832695.0,P06,D10,0,0,1
751,0.53,1644832695.015625,P06,D10,0,0,1
752,0.64,1644832695.03125,P06,D10,0,0,1
753,0.63,1644832695.046875,P06,D10,0,0,1
754,0.5,1644832695.0625,P06,D10,0,0,1
755,0.27,1644832695.078125,P06,D10,0,0,1
756,-0.01,1644832695.09375,P06,D10,0,0,1
757,-0.26,1644832695.109375,P06,D10,0,0,1
758,-0.4,1644832695.125,P06,D10,0,0,1
759,-0.41,1644832695.140625,P06,D10,0,0,1
760,-0.29,1644832695.15625,P06,D10,0,0,1
761,-0.1,1644832695.171875,P06,D10,0,0,1
762,0.07,1644832695.1875,P06,D10,0,0,1
763,0.16,1644832695.203125,P06,D10,0,0,1
764,0.12,1644832695.21875,P06,D10,0,0,1
765,-0.03,1644832695.234375,P06,D10,0,0,1
766,-0.23,1644832695.25,P06,D10,0,0,1
767,-0.41,1644832695.265625,P06,D10,0,0,1
768,-0.51,1644832695.28125,P06,D10,0,0,1
769,-0.53,1644832695.296875,P06,D10,0,0,1
770,-0.51,1644832695.3125,P06,D10,0,0,1
771,-0.47,1644832695.328125,P06,D10,0,0,1
772,-0.41,1644832695.34375,P06,D10,0,0,1
773,-0.29,1644832695.359375,P06,D10,0,0,1
774,-0.1,1644832695.375,P06,D10,0,0,1
775,0.12,1644832695.390625,P06,D10,0,0,1
776,0.29,1644832695.40625,P06,D10,0,0,1
777,0.29,1644832695.421875,P06,D10,0,0,1
778,0.07,1644832695.4375,P06,D10,0,0,1
779,-0.29,1644832695.453125,P06,D10,0,0,1
780,-0.63,1644832695.46875,P06,D10,0,0,1
781,-0.76,1644832695.484375,P06,D10,0,0,1
782,-0.58,1644832695.5,P06,D10,0,0,1
783,-0.17,1644832695.515625,P06,D10,0,0,1
784,0.31,1644832695.53125,P06,D10,0,0,1
785,0.67,1644832695.546875,P06,D10,0,0,1
786,0.81,1644832695.5625,P06,D10,0,0,1
787,0.73,1644832695.578125,P06,D10,0,0,1
788,0.55,1644832695.59375,P06,D10,0,0,1
789,0.37,1644832695.609375,P06,D10,0,0,1
790,0.25,1644832695.625,P06,D10,0,0,1
791,0.19,1644832695.640625,P06,D10,0,0,1
792,0.14,1644832695.65625,P06,D10,0,0,1
793,0.06,1644832695.671875,P06,D10,0,0,1
794,-0.07,1644832695.6875,P06,D10,0,0,1
795,-0.21,1644832695.703125,P06,D10,0,0,1
796,-0.33,1644832695.71875,P06,D10,0,0,1
797,-0.39,1644832695.734375,P06,D10,0,0,1
798,-0.38,1644832695.75,P06,D10,0,0,1
799,-0.3,1644832695.765625,P06,D10,0,0,1
800,-0.12,1644832695.78125,P06,D10,0,0,1
801,0.12,1644832695.796875,P06,D10,0,0,1
802,0.38,1644832695.8125,P06,D10,0,0,1
803,0.62,1644832695.828125,P06,D10,0,0,1
804,0.78,1644832695.84375,P06,D10,0,0,1
805,0.83,1644832695.859375,P06,D10,0,0,1
806,0.78,1644832695.875,P06,D10,0,0,1
807,0.64,1644832695.890625,P06,D10,0,0,1
808,0.47,1644832695.90625,P06,D10,0,0,1
809,0.3,1644832695.921875,P06,D10,0,0,1
810,0.16,1644832695.9375,P06,D10,0,0,1
811,0.09,1644832695.953125,P06,D10,0,0,1
812,0.07,1644832695.96875,P06,D10,0,0,1
813,0.11,1644832695.984375,P06,D10,0,0,1
814,0.21,1644832696.0,P06,D10,0,0,1
815,0.31,1644832696.015625,P06,D10,0,0,1
816,0.4,1644832696.03125,P06,D10,0,0,1
817,0.43,1644832696.046875,P06,D10,0,0,1
818,0.38,1644832696.0625,P06,D10,0,0,1
819,0.26,1644832696.078125,P06,D10,0,0,1
820,0.11,1644832696.09375,P06,D10,0,0,1
821,-0.03,1644832696.109375,P06,D10,0,0,1
822,-0.17,1644832696.125,P06,D10,0,0,1
823,-0.3,1644832696.140625,P06,D10,0,0,1
824,-0.43,1644832696.15625,P06,D10,0,0,1
825,-0.56,1644832696.171875,P06,D10,0,0,1
826,-0.66,1644832696.1875,P06,D10,0,0,1
827,-0.73,1644832696.203125,P06,D10,0,0,1
828,-0.73,1644832696.21875,P06,D10,0,0,1
829,-0.66,1644832696.234375,P06,D10,0,0,1
830,-0.56,1644832696.25,P06,D10,0,0,1
831,-0.48,1644832696.265625,P06,D10,0,0,1
832,-0.45,1644832696.28125,P06,D10,0,0,1
833,-0.48,1644832696.296875,P06,D10,0,0,1
834,-0.52,1644832696.3125,P06,D10,0,0,1
835,-0.56,1644832696.328125,P06,D10,0,0,1
836,-0.57,1644832696.34375,P06,D10,0,0,1
837,-0.57,1644832696.359375,P06,D10,0,0,1
838,-0.59,1644832696.375,P06,D10,0,0,1
839,-0.65,1644832696.390625,P06,D10,0,0,1
840,-0.74,1644832696.40625,P06,D10,0,0,1
841,-0.8,1644832696.421875,P06,D10,0,0,1
842,-0.75,1644832696.4375,P06,D10,0,0,1
843,-0.55,1644832696.453125,P06,D10,0,0,1
844,-0.22,1644832696.46875,P06,D10,0,0,1
845,0.13,1644832696.484375,P06,D10,0,0,1
846,0.36,1644832696.5,P06,D10,0,0,1
847,0.39,1644832696.515625,P06,D10,0,0,1
848,0.23,1644832696.53125,P06,D10,0,0,1
849,-0.01,1644832696.546875,P06,D10,0,0,1
850,-0.18,1644832696.5625,P06,D10,0,0,1
851,-0.2,1644832696.578125,P06,D10,0,0,1
852,-0.06,1644832696.59375,P06,D10,0,0,1
853,0.13,1644832696.609375,P06,D10,0,0,1
854,0.23,1644832696.625,P06,D10,0,0,1
855,0.12,1644832696.640625,P06,D10,0,0,1
856,-0.16,1644832696.65625,P06,D10,0,0,1
857,-0.52,1644832696.671875,P06,D10,0,0,1
858,-0.81,1644832696.6875,P06,D10,0,0,1
859,-0.93,1644832696.703125,P06,D10,0,0,1
860,-0.88,1644832696.71875,P06,D10,0,0,1
861,-0.72,1644832696.734375,P06,D10,0,0,1
862,-0.53,1644832696.75,P06,D10,0,0,1
863,-0.38,1644832696.765625,P06,D10,0,0,1
864,-0.26,1644832696.78125,P06,D10,0,0,1
865,-0.13,1644832696.796875,P06,D10,0,0,1
866,0.04,1644832696.8125,P06,D10,0,0,1
867,0.25,1644832696.828125,P06,D10,0,0,1
868,0.44,1644832696.84375,P06,D10,0,0,1
869,0.55,1644832696.859375,P06,D10,0,0,1
870,0.57,1644832696.875,P06,D10,0,0,1
871,0.54,1644832696.890625,P06,D10,0,0,1
872,0.54,1644832696.90625,P06,D10,0,0,1
873,0.67,1644832696.921875,P06,D10,0,0,1
874,0.92,1644832696.9375,P06,D10,0,0,1
875,1.23,1644832696.953125,P06,D10,0,0,1
876,1.46,1644832696.96875,P06,D10,0,0,1
877,1.51,1644832696.984375,P06,D10,0,0,1
878,1.34,1644832697.0,P06,D10,0,0,1
879,1.03,1644832697.015625,P06,D10,0,0,1
880,0.68,1644832697.03125,P06,D10,0,0,1
881,0.41,1644832697.046875,P06,D10,0,0,1
882,0.27,1644832697.0625,P06,D10,0,0,1
883,0.24,1644832697.078125,P06,D10,0,0,1
884,0.26,1644832697.09375,P06,D10,0,0,1
885,0.29,1644832697.109375,P06,D10,0,0,1
886,0.31,1644832697.125,P06,D10,0,0,1
887,0.33,1644832697.140625,P06,D10,0,0,1
888,0.34,1644832697.15625,P06,D10,0,0,1
889,0.33,1644832697.171875,P06,D10,0,0,1
890,0.27,1644832697.1875,P06,D10,0,0,1
891,0.13,1644832697.203125,P06,D10,0,0,1
892,-0.05,1644832697.21875,P06,D10,0,0,1
893,-0.2,1644832697.234375,P06,D10,0,0,1
894,-0.24,1644832697.25,P06,D10,0,0,1
895,-0.15,1644832697.265625,P06,D10,0,0,1
896,0.04,1644832697.28125,P06,D10,0,0,1
897,0.27,1644832697.296875,P06,D10,0,0,1
898,0.45,1644832697.3125,P06,D10,0,0,1
899,0.52,1644832697.328125,P06,D10,0,0,1
900,0.48,1644832697.34375,P06,D10,0,0,1
901,0.41,1644832697.359375,P06,D10,0,0,1
902,0.39,1644832697.375,P06,D10,0,0,1
903,0.45,1644832697.390625,P06,D10,0,0,1
904,0.53,1644832697.40625,P06,D10,0,0,1
905,0.55,1644832697.421875,P06,D10,0,0,1
906,0.4,1644832697.4375,P06,D10,0,0,1
907,0.09,1644832697.453125,P06,D10,0,0,1
908,-0.28,1644832697.46875,P06,D10,0,0,1
909,-0.56,1644832697.484375,P06,D10,0,0,1
910,-0.62,1644832697.5,P06,D10,0,0,1
911,-0.44,1644832697.515625,P06,D10,0,0,1
912,-0.15,1644832697.53125,P06,D10,0,0,1
913,0.08,1644832697.546875,P06,D10,0,0,1
914,0.12,1644832697.5625,P06,D10,0,0,1
915,-0.03,1644832697.578125,P06,D10,0,0,1
916,-0.27,1644832697.59375,P06,D10,0,0,1
917,-0.44,1644832697.609375,P06,D10,0,0,1
918,-0.45,1644832697.625,P06,D10,0,0,1
919,-0.37,1644832697.640625,P06,D10,0,0,1
920,-0.3,1644832697.65625,P06,D10,0,0,1
921,-0.37,1644832697.671875,P06,D10,0,0,1
922,-0.6,1644832697.6875,P06,D10,0,0,1
923,-0.9,1644832697.703125,P06,D10,0,0,1
924,-1.15,1644832697.71875,P06,D10,0,0,1
925,-1.23,1644832697.734375,P06,D10,0,0,1
926,-1.14,1644832697.75,P06,D10,0,0,1
927,-0.94,1644832697.765625,P06,D10,0,0,1
928,-0.72,1644832697.78125,P06,D10,0,0,1
929,-0.55,1644832697.796875,P06,D10,0,0,1
930,-0.44,1644832697.8125,P06,D10,0,0,1
931,-0.35,1644832697.828125,P06,D10,0,0,1
932,-0.23,1644832697.84375,P06,D10,0,0,1
933,-0.08,1644832697.859375,P06,D10,0,0,1
934,0.08,1644832697.875,P06,D10,0,0,1
935,0.2,1644832697.890625,P06,D10,0,0,1
936,0.22,1644832697.90625,P06,D10,0,0,1
937,0.12,1644832697.921875,P06,D10,0,0,1
938,-0.05,1644832697.9375,P06,D10,0,0,1
939,-0.2,1644832697.953125,P06,D10,0,0,1
940,-0.25,1644832697.96875,P06,D10,0,0,1
941,-0.12,1644832697.984375,P06,D10,0,0,1
942,0.18,1644832698.0,P06,D10,0,0,1
943,0.57,1644832698.015625,P06,D10,0,0,1
944,0.89,1644832698.03125,P06,D10,0,0,1
945,1.0,1644832698.046875,P06,D10,0,0,1
946,0.86,1644832698.0625,P06,D10,0,0,1
947,0.53,1644832698.078125,P06,D10,0,0,1
948,0.15,1644832698.09375,P06,D10,0,0,1
949,-0.14,1644832698.109375,P06,D10,0,0,1
950,-0.27,1644832698.125,P06,D10,0,0,1
951,-0.29,1644832698.140625,P06,D10,0,0,1
952,-0.28,1644832698.15625,P06,D10,0,0,1
953,-0.33,1644832698.171875,P06,D10,0,0,1
954,-0.42,1644832698.1875,P06,D10,0,0,1
955,-0.47,1644832698.203125,P06,D10,0,0,1
956,-0.4,1644832698.21875,P06,D10,0,0,1
957,-0.14,1644832698.234375,P06,D10,0,0,1
958,0.23,1644832698.25,P06,D10,0,0,1
959,0.6,1644832698.265625,P06,D10,0,0,1
960,0.84,1644832698.28125,P06,D10,0,0,1
961,0.88,1644832698.296875,P06,D10,0,0,1
962,0.75,1644832698.3125,P06,D10,0,0,1
963,0.51,1644832698.328125,P06,D10,0,0,1
964,0.26,1644832698.34375,P06,D10,0,0,1
965,0.05,1644832698.359375,P06,D10,0,0,1
966,-0.1,1644832698.375,P06,D10,0,0,1
967,-0.2,1644832698.390625,P06,D10,0,0,1
968,-0.27,1644832698.40625,P06,D10,0,0,1
969,-0.31,1644832698.421875,P06,D10,0,0,1
970,-0.35,1644832698.4375,P06,D10,0,0,1
971,-0.38,1644832698.453125,P06,D10,0,0,1
972,-0.41,1644832698.46875,P06,D10,0,0,1
973,-0.46,1644832698.484375,P06,D10,0,0,1
974,-0.55,1644832698.5,P06,D10,0,0,1
975,-0.69,1644832698.515625,P06,D10,0,0,1
976,-0.87,1644832698.53125,P06,D10,0,0,1
977,-1.04,1644832698.546875,P06,D10,0,0,1
978,-1.13,1644832698.5625,P06,D10,0,0,1
979,-1.05,1644832698.578125,P06,D10,0,0,1
980,-0.76,1644832698.59375,P06,D10,0,0,1
981,-0.29,1644832698.609375,P06,D10,0,0,1
982,0.26,1644832698.625,P06,D10,0,0,1
983,0.74,1644832698.640625,P06,D10,0,0,1
984,1.03,1644832698.65625,P06,D10,0,0,1
985,1.1,1644832698.671875,P06,D10,0,0,1
986,0.97,1644832698.6875,P06,D10,0,0,1
987,0.75,1644832698.703125,P06,D10,0,0,1
988,0.54,1644832698.71875,P06,D10,0,0,1
989,0.37,1644832698.734375,P06,D10,0,0,1
990,0.23,1644832698.75,P06,D10,0,0,1
991,0.07,1644832698.765625,P06,D10,0,0,1
992,-0.17,1644832698.78125,P06,D10,0,0,1
993,-0.49,1644832698.796875,P06,D10,0,0,1
994,-0.8,1644832698.8125,P06,D10,0,0,1
995,-1.0,1644832698.828125,P06,D10,0,0,1
996,-1.01,1644832698.84375,P06,D10,0,0,1
997,-0.82,1644832698.859375,P06,D10,0,0,1
998,-0.48,1644832698.875,P06,D10,0,0,1
999,-0.12,1644832698.890625,P06,D10,0,0,1
1000,0.16,1644832698.90625,P06,D10,0,0,1
1001,0.27,1644832698.921875,P06,D10,0,0,1
1002,0.24,1644832698.9375,P06,D10,0,0,1
1003,0.1,1644832698.953125,P06,D10,0,0,1
1004,-0.07,1644832698.96875,P06,D10,0,0,1
1005,-0.22,1644832698.984375,P06,D10,0,0,1
1006,-0.3,1644832699.0,P06,D10,0,0,1
1007,-0.31,1644832699.015625,P06,D10,0,0,1
1008,-0.24,1644832699.03125,P06,D10,0,0,1
1009,-0.08,1644832699.046875,P06,D10,0,0,1
1010,0.13,1644832699.0625,P06,D10,0,0,1
1011,0.35,1644832699.078125,P06,D10,0,0,1
1012,0.53,1644832699.09375,P06,D10,0,0,1
1013,0.61,1644832699.109375,P06,D10,0,0,1
1014,0.57,1644832699.125,P06,D10,0,0,1
1015,0.43,1644832699.140625,P06,D10,0,0,1
1016,0.27,1644832699.15625,P06,D10,0,0,1
1017,0.16,1644832699.171875,P06,D10,0,0,1
1018,0.16,1644832699.1875,P06,D10,0,0,1
1019,0.25,1644832699.203125,P06,D10,0,0,1
1020,0.39,1644832699.21875,P06,D10,0,0,1
1021,0.52,1644832699.234375,P06,D10,0,0,1
1022,0.62,1644832699.25,P06,D10,0,0,1
1023,0.7,1644832699.265625,P06,D10,0,0,1
1024,0.8,1644832699.28125,P06,D10,0,0,1
1025,0.91,1644832699.296875,P06,D10,0,0,1
1026,0.98,1644832699.3125,P06,D10,0,0,1
1027,0.94,1644832699.328125,P06,D10,0,0,1
1028,0.77,1644832699.34375,P06,D10,0,0,1
1029,0.5,1644832699.359375,P06,D10,0,0,1
1030,0.2,1644832699.375,P06,D10,0,0,1
1031,-0.02,1644832699.390625,P06,D10,0,0,1
1032,-0.13,1644832699.40625,P06,D10,0,0,1
1033,-0.18,1644832699.421875,P06,D10,0,0,1
1034,-0.23,1644832699.4375,P06,D10,0,0,1
1035,-0.33,1644832699.453125,P06,D10,0,0,1
1036,-0.45,1644832699.46875,P06,D10,0,0,1
1037,-0.53,1644832699.484375,P06,D10,0,0,1
1038,-0.49,1644832699.5,P06,D10,0,0,1
1039,-0.3,1644832699.515625,P06,D10,0,0,1
1040,-0.01,1644832699.53125,P06,D10,0,0,1
1041,0.26,1644832699.546875,P06,D10,0,0,1
1042,0.43,1644832699.5625,P06,D10,0,0,1
1043,0.48,1644832699.578125,P06,D10,0,0,1
1044,0.47,1644832699.59375,P06,D10,0,0,1
1045,0.46,1644832699.609375,P06,D10,0,0,1
1046,0.48,1644832699.625,P06,D10,0,0,1
1047,0.49,1644832699.640625,P06,D10,0,0,1
1048,0.46,1644832699.65625,P06,D10,0,0,1
1049,0.33,1644832699.671875,P06,D10,0,0,1
1050,0.13,1644832699.6875,P06,D10,0,0,1
1051,-0.08,1644832699.703125,P06,D10,0,0,1
1052,-0.24,1644832699.71875,P06,D10,0,0,1
1053,-0.3,1644832699.734375,P06,D10,0,0,1
1054,-0.31,1644832699.75,P06,D10,0,0,1
1055,-0.34,1644832699.765625,P06,D10,0,0,1
1056,-0.42,1644832699.78125,P06,D10,0,0,1
1057,-0.54,1644832699.796875,P06,D10,0,0,1
1058,-0.63,1644832699.8125,P06,D10,0,0,1
1059,-0.65,1644832699.828125,P06,D10,0,0,1
1060,-0.57,1644832699.84375,P06,D10,0,0,1
1061,-0.46,1644832699.859375,P06,D10,0,0,1
1062,-0.4,1644832699.875,P06,D10,0,0,1
1063,-0.43,1644832699.890625,P06,D10,0,0,1
1064,-0.52,1644832699.90625,P06,D10,0,0,1
1065,-0.58,1644832699.921875,P06,D10,0,0,1
1066,-0.51,1644832699.9375,P06,D10,0,0,1
1067,-0.29,1644832699.953125,P06,D10,0,0,1
1068,0.0,1644832699.96875,P06,D10,0,0,1
1069,0.24,1644832699.984375,P06,D10,0,0,1
1070,0.3,1644832700.0,P06,D10,0,0,1
1071,0.18,1644832700.015625,P06,D10,0,0,1
1072,-0.03,1644832700.03125,P06,D10,0,0,1
1073,-0.18,1644832700.046875,P06,D10,0,0,1
1074,-0.15,1644832700.0625,P06,D10,0,0,1
1075,0.06,1644832700.078125,P06,D10,0,0,1
1076,0.37,1644832700.09375,P06,D10,0,0,1
1077,0.62,1644832700.109375,P06,D10,0,0,1
1078,0.71,1644832700.125,P06,D10,0,0,1
1079,0.63,1644832700.140625,P06,D10,0,0,1
1080,0.48,1644832700.15625,P06,D10,0,0,1
1081,0.37,1644832700.171875,P06,D10,0,0,1
1082,0.35,1644832700.1875,P06,D10,0,0,1
1083,0.4,1644832700.203125,P06,D10,0,0,1
1084,0.43,1644832700.21875,P06,D10,0,0,1
1085,0.32,1644832700.234375,P06,D10,0,0,1
1086,0.06,1644832700.25,P06,D10,0,0,1
1087,-0.29,1644832700.265625,P06,D10,0,0,1
1088,-0.6,1644832700.28125,P06,D10,0,0,1
1089,-0.73,1644832700.296875,P06,D10,0,0,1
1090,-0.61,1644832700.3125,P06,D10,0,0,1
1091,-0.26,1644832700.328125,P06,D10,0,0,1
1092,0.2,1644832700.34375,P06,D10,0,0,1
1093,0.6,1644832700.359375,P06,D10,0,0,1
1094,0.79,1644832700.375,P06,D10,0,0,1
1095,0.71,1644832700.390625,P06,D10,0,0,1
1096,0.42,1644832700.40625,P06,D10,0,0,1
1097,0.04,1644832700.421875,P06,D10,0,0,1
1098,-0.28,1644832700.4375,P06,D10,0,0,1
1099,-0.48,1644832700.453125,P06,D10,0,0,1
1100,-0.59,1644832700.46875,P06,D10,0,0,1
1101,-0.66,1644832700.484375,P06,D10,0,0,1
1102,-0.74,1644832700.5,P06,D10,0,0,1
1103,-0.8,1644832700.515625,P06,D10,0,0,1
1104,-0.79,1644832700.53125,P06,D10,0,0,1
1105,-0.66,1644832700.546875,P06,D10,0,0,1
1106,-0.43,1644832700.5625,P06,D10,0,0,1
1107,-0.17,1644832700.578125,P06,D10,0,0,1
1108,0.02,1644832700.59375,P06,D10,0,0,1
1109,0.08,1644832700.609375,P06,D10,0,0,1
1110,0.02,1644832700.625,P06,D10,0,0,1
1111,-0.08,1644832700.640625,P06,D10,0,0,1
1112,-0.1,1644832700.65625,P06,D10,0,0,1
1113,0.0,1644832700.671875,P06,D10,0,0,1
1114,0.23,1644832700.6875,P06,D10,0,0,1
1115,0.51,1644832700.703125,P06,D10,0,0,1
1116,0.76,1644832700.71875,P06,D10,0,0,1
1117,0.87,1644832700.734375,P06,D10,0,0,1
1118,0.81,1644832700.75,P06,D10,0,0,1
1119,0.58,1644832700.765625,P06,D10,0,0,1
1120,0.24,1644832700.78125,P06,D10,0,0,1
1121,-0.08,1644832700.796875,P06,D10,0,0,1
1122,-0.29,1644832700.8125,P06,D10,0,0,1
1123,-0.33,1644832700.828125,P06,D10,0,0,1
1124,-0.19,1644832700.84375,P06,D10,0,0,1
1125,0.07,1644832700.859375,P06,D10,0,0,1
1126,0.37,1644832700.875,P06,D10,0,0,1
1127,0.63,1644832700.890625,P06,D10,0,0,1
1128,0.8,1644832700.90625,P06,D10,0,0,1
1129,0.84,1644832700.921875,P06,D10,0,0,1
1130,0.75,1644832700.9375,P06,D10,0,0,1
1131,0.57,1644832700.953125,P06,D10,0,0,1
1132,0.35,1644832700.96875,P06,D10,0,0,1
1133,0.12,1644832700.984375,P06,D10,0,0,1
1134,-0.08,1644832701.0,P06,D10,0,0,1
1135,-0.25,1644832701.015625,P06,D10,0,0,1
1136,-0.39,1644832701.03125,P06,D10,0,0,1
1137,-0.49,1644832701.046875,P06,D10,0,0,1
1138,-0.55,1644832701.0625,P06,D10,0,0,1
1139,-0.56,1644832701.078125,P06,D10,0,0,1
1140,-0.52,1644832701.09375,P06,D10,0,0,1
1141,-0.47,1644832701.109375,P06,D10,0,0,1
1142,-0.42,1644832701.125,P06,D10,0,0,1
1143,-0.39,1644832701.140625,P06,D10,0,0,1
1144,-0.37,1644832701.15625,P06,D10,0,0,1
1145,-0.33,1644832701.171875,P06,D10,0,0,1
1146,-0.27,1644832701.1875,P06,D10,0,0,1
1147,-0.19,1644832701.203125,P06,D10,0,0,1
1148,-0.1,1644832701.21875,P06,D10,0,0,1
1149,-0.06,1644832701.234375,P06,D10,0,0,1
1150,-0.07,1644832701.25,P06,D10,0,0,1
1151,-0.12,1644832701.265625,P06,D10,0,0,1
1152,-0.23,1644832701.28125,P06,D10,0,0,1
1153,-0.38,1644832701.296875,P06,D10,0,0,1
1154,-0.61,1644832701.3125,P06,D10,0,0,1
1155,-0.92,1644832701.328125,P06,D10,0,0,1
1156,-1.24,1644832701.34375,P06,D10,0,0,1
1157,-1.47,1644832701.359375,P06,D10,0,0,1
1158,-1.49,1644832701.375,P06,D10,0,0,1
1159,-1.26,1644832701.390625,P06,D10,0,0,1
1160,-0.82,1644832701.40625,P06,D10,0,0,1
1161,-0.3,1644832701.421875,P06,D10,0,0,1
1162,0.14,1644832701.4375,P06,D10,0,0,1
1163,0.45,1644832701.453125,P06,D10,0,0,1
1164,0.67,1644832701.46875,P06,D10,0,0,1
1165,0.88,1644832701.484375,P06,D10,0,0,1
1166,1.11,1644832701.5,P06,D10,0,0,1
1167,1.33,1644832701.515625,P06,D10,0,0,1
1168,1.42,1644832701.53125,P06,D10,0,0,1
1169,1.26,1644832701.546875,P06,D10,0,0,1
1170,0.83,1644832701.5625,P06,D10,0,0,1
1171,0.22,1644832701.578125,P06,D10,0,0,1
1172,-0.38,1644832701.59375,P06,D10,0,0,1
1173,-0.81,1644832701.609375,P06,D10,0,0,1
1174,-0.99,1644832701.625,P06,D10,0,0,1
1175,-0.94,1644832701.640625,P06,D10,0,0,1
1176,-0.74,1644832701.65625,P06,D10,0,0,1
1177,-0.48,1644832701.671875,P06,D10,0,0,1
1178,-0.22,1644832701.6875,P06,D10,0,0,1
1179,0.04,1644832701.703125,P06,D10,0,0,1
1180,0.29,1644832701.71875,P06,D10,0,0,1
1181,0.52,1644832701.734375,P06,D10,0,0,1
1182,0.7,1644832701.75,P06,D10,0,0,1
1183,0.81,1644832701.765625,P06,D10,0,0,1
1184,0.84,1644832701.78125,P06,D10,0,0,1
1185,0.81,1644832701.796875,P06,D10,0,0,1
1186,0.76,1644832701.8125,P06,D10,0,0,1
1187,0.71,1644832701.828125,P06,D10,0,0,1
1188,0.66,1644832701.84375,P06,D10,0,0,1
1189,0.57,1644832701.859375,P06,D10,0,0,1
1190,0.44,1644832701.875,P06,D10,0,0,1
1191,0.27,1644832701.890625,P06,D10,0,0,1
1192,0.13,1644832701.90625,P06,D10,0,0,1
1193,0.08,1644832701.921875,P06,D10,0,0,1
1194,0.15,1644832701.9375,P06,D10,0,0,1
1195,0.31,1644832701.953125,P06,D10,0,0,1
1196,0.48,1644832701.96875,P06,D10,0,0,1
1197,0.55,1644832701.984375,P06,D10,0,0,1
1198,0.47,1644832702.0,P06,D10,0,0,1
1199,0.24,1644832702.015625,P06,D10,0,0,1
1200,-0.05,1644832702.03125,P06,D10,0,0,1
1201,-0.29,1644832702.046875,P06,D10,0,0,1
1202,-0.41,1644832702.0625,P06,D10,0,0,1
1203,-0.4,1644832702.078125,P06,D10,0,0,1
1204,-0.32,1644832702.09375,P06,D10,0,0,1
1205,-0.28,1644832702.109375,P06,D10,0,0,1
1206,-0.33,1644832702.125,P06,D10,0,0,1
1207,-0.47,1644832702.140625,P06,D10,0,0,1
1208,-0.63,1644832702.15625,P06,D10,0,0,1
1209,-0.68,1644832702.171875,P06,D10,0,0,1
1210,-0.58,1644832702.1875,P06,D10,0,0,1
1211,-0.32,1644832702.203125,P06,D10,0,0,1
1212,-0.02,1644832702.21875,P06,D10,0,0,1
1213,0.18,1644832702.234375,P06,D10,0,0,1
1214,0.22,1644832702.25,P06,D10,0,0,1
1215,0.08,1644832702.265625,P06,D10,0,0,1
1216,-0.16,1644832702.28125,P06,D10,0,0,1
1217,-0.4,1644832702.296875,P06,D10,0,0,1
1218,-0.56,1644832702.3125,P06,D10,0,0,1
1219,-0.64,1644832702.328125,P06,D10,0,0,1
1220,-0.67,1644832702.34375,P06,D10,0,0,1
1221,-0.65,1644832702.359375,P06,D10,0,0,1
1222,-0.6,1644832702.375,P06,D10,0,0,1
1223,-0.51,1644832702.390625,P06,D10,0,0,1
1224,-0.36,1644832702.40625,P06,D10,0,0,1
1225,-0.21,1644832702.421875,P06,D10,0,0,1
1226,-0.1,1644832702.4375,P06,D10,0,0,1
1227,-0.06,1644832702.453125,P06,D10,0,0,1
1228,-0.09,1644832702.46875,P06,D10,0,0,1
1229,-0.1,1644832702.484375,P06,D10,0,0,1
1230,-0.0,1644832702.5,P06,D10,0,0,1
1231,0.21,1644832702.515625,P06,D10,0,0,1
1232,0.5,1644832702.53125,P06,D10,0,0,1
1233,0.76,1644832702.546875,P06,D10,0,0,1
1234,0.9,1644832702.5625,P06,D10,0,0,1
1235,0.89,1644832702.578125,P06,D10,0,0,1
1236,0.76,1644832702.59375,P06,D10,0,0,1
1237,0.58,1644832702.609375,P06,D10,0,0,1
1238,0.44,1644832702.625,P06,D10,0,0,1
1239,0.37,1644832702.640625,P06,D10,0,0,1
1240,0.37,1644832702.65625,P06,D10,0,0,1
1241,0.38,1644832702.671875,P06,D10,0,0,1
1242,0.35,1644832702.6875,P06,D10,0,0,1
1243,0.24,1644832702.703125,P06,D10,0,0,1
1244,0.05,1644832702.71875,P06,D10,0,0,1
1245,-0.16,1644832702.734375,P06,D10,0,0,1
1246,-0.35,1644832702.75,P06,D10,0,0,1
1247,-0.42,1644832702.765625,P06,D10,0,0,1
1248,-0.38,1644832702.78125,P06,D10,0,0,1
1249,-0.27,1644832702.796875,P06,D10,0,0,1
1250,-0.15,1644832702.8125,P06,D10,0,0,1
1251,-0.12,1644832702.828125,P06,D10,0,0,1
1252,-0.18,1644832702.84375,P06,D10,0,0,1
1253,-0.28,1644832702.859375,P06,D10,0,0,1
1254,-0.34,1644832702.875,P06,D10,0,0,1
1255,-0.29,1644832702.890625,P06,D10,0,0,1
1256,-0.11,1644832702.90625,P06,D10,0,0,1
1257,0.13,1644832702.921875,P06,D10,0,0,1
1258,0.33,1644832702.9375,P06,D10,0,0,1
1259,0.4,1644832702.953125,P06,D10,0,0,1
1260,0.32,1644832702.96875,P06,D10,0,0,1
1261,0.15,1644832702.984375,P06,D10,0,0,1
1262,-0.05,1644832703.0,P06,D10,0,0,1
1263,-0.19,1644832703.015625,P06,D10,0,0,1
1264,-0.24,1644832703.03125,P06,D10,0,0,1
1265,-0.22,1644832703.046875,P06,D10,0,0,1
1266,-0.16,1644832703.0625,P06,D10,0,0,1
1267,-0.08,1644832703.078125,P06,D10,0,0,1
1268,0.01,1644832703.09375,P06,D10,0,0,1
1269,0.11,1644832703.109375,P06,D10,0,0,1
1270,0.23,1644832703.125,P06,D10,0,0,1
1271,0.34,1644832703.140625,P06,D10,0,0,1
1272,0.42,1644832703.15625,P06,D10,0,0,1
1273,0.44,1644832703.171875,P06,D10,0,0,1
1274,0.4,1644832703.1875,P06,D10,0,0,1
1275,0.29,1644832703.203125,P06,D10,0,0,1
1276,0.16,1644832703.21875,P06,D10,0,0,1
1277,0.02,1644832703.234375,P06,D10,0,0,1
1278,-0.11,1644832703.25,P06,D10,0,0,1
1279,-0.2,1644832703.265625,P06,D10,0,0,1
1280,-0.25,1644832703.28125,P06,D10,0,0,1
1281,-0.23,1644832703.296875,P06,D10,0,0,1
1282,-0.15,1644832703.3125,P06,D10,0,0,1
1283,-0.03,1644832703.328125,P06,D10,0,0,1
1284,0.08,1644832703.34375,P06,D10,0,0,1
1285,0.16,1644832703.359375,P06,D10,0,0,1
1286,0.2,1644832703.375,P06,D10,0,0,1
1287,0.2,1644832703.390625,P06,D10,0,0,1
1288,0.2,1644832703.40625,P06,D10,0,0,1
1289,0.18,1644832703.421875,P06,D10,0,0,1
1290,0.15,1644832703.4375,P06,D10,0,0,1
1291,0.07,1644832703.453125,P06,D10,0,0,1
1292,-0.06,1644832703.46875,P06,D10,0,0,1
1293,-0.21,1644832703.484375,P06,D10,0,0,1
1294,-0.34,1644832703.5,P06,D10,0,0,1
1295,-0.42,1644832703.515625,P06,D10,0,0,1
1296,-0.44,1644832703.53125,P06,D10,0,0,1
1297,-0.4,1644832703.546875,P06,D10,0,0,1
1298,-0.32,1644832703.5625,P06,D10,0,0,1
1299,-0.18,1644832703.578125,P06,D10,0,0,1
1300,0.01,1644832703.59375,P06,D10,0,0,1
1301,0.21,1644832703.609375,P06,D10,0,0,1
1302,0.36,1644832703.625,P06,D10,0,0,1
1303,0.36,1644832703.640625,P06,D10,0,0,1
1304,0.18,1644832703.65625,P06,D10,0,0,1
1305,-0.15,1644832703.671875,P06,D10,0,0,1
1306,-0.5,1644832703.6875,P06,D10,0,0,1
1307,-0.7,1644832703.703125,P06,D10,0,0,1
1308,-0.69,1644832703.71875,P06,D10,0,0,1
1309,-0.48,1644832703.734375,P06,D10,0,0,1
1310,-0.18,1644832703.75,P06,D10,0,0,1
1311,0.07,1644832703.765625,P06,D10,0,0,1
1312,0.17,1644832703.78125,P06,D10,0,0,1
1313,0.13,1644832703.796875,P06,D10,0,0,1
1314,-0.02,1644832703.8125,P06,D10,0,0,1
1315,-0.21,1644832703.828125,P06,D10,0,0,1
1316,-0.41,1644832703.84375,P06,D10,0,0,1
1317,-0.59,1644832703.859375,P06,D10,0,0,1
1318,-0.73,1644832703.875,P06,D10,0,0,1
1319,-0.82,1644832703.890625,P06,D10,0,0,1
1320,-0.82,1644832703.90625,P06,D10,0,0,1
1321,-0.73,1644832703.921875,P06,D10,0,0,1
1322,-0.57,1644832703.9375,P06,D10,0,0,1
1323,-0.38,1644832703.953125,P06,D10,0,0,1
1324,-0.2,1644832703.96875,P06,D10,0,0,1
1325,-0.04,1644832703.984375,P06,D10,0,0,1
1326,0.09,1644832704.0,P06,D10,0,0,1
1327,0.2,1644832704.015625,P06,D10,0,0,1
1328,0.29,1644832704.03125,P06,D10,0,0,1
1329,0.34,1644832704.046875,P06,D10,0,0,1
1330,0.32,1644832704.0625,P06,D10,0,0,1
1331,0.29,1644832704.078125,P06,D10,0,0,1
1332,0.29,1644832704.09375,P06,D10,0,0,1
1333,0.39,1644832704.109375,P06,D10,0,0,1
1334,0.62,1644832704.125,P06,D10,0,0,1
1335,0.89,1644832704.140625,P06,D10,0,0,1
1336,1.08,1644832704.15625,P06,D10,0,0,1
1337,1.03,1644832704.171875,P06,D10,0,0,1
1338,0.71,1644832704.1875,P06,D10,0,0,1
1339,0.19,1644832704.203125,P06,D10,0,0,1
1340,-0.34,1644832704.21875,P06,D10,0,0,1
1341,-0.64,1644832704.234375,P06,D10,0,0,1
1342,-0.61,1644832704.25,P06,D10,0,0,1
1343,-0.26,1644832704.265625,P06,D10,0,0,1
1344,0.22,1644832704.28125,P06,D10,0,0,1
1345,0.59,1644832704.296875,P06,D10,0,0,1
1346,0.68,1644832704.3125,P06,D10,0,0,1
1347,0.48,1644832704.328125,P06,D10,0,0,1
1348,0.15,1644832704.34375,P06,D10,0,0,1
1349,-0.12,1644832704.359375,P06,D10,0,0,1
1350,-0.17,1644832704.375,P06,D10,0,0,1
1351,0.04,1644832704.390625,P06,D10,0,0,1
1352,0.42,1644832704.40625,P06,D10,0,0,1
1353,0.77,1644832704.421875,P06,D10,0,0,1
1354,0.93,1644832704.4375,P06,D10,0,0,1
1355,0.79,1644832704.453125,P06,D10,0,0,1
1356,0.36,1644832704.46875,P06,D10,0,0,1
1357,-0.22,1644832704.484375,P06,D10,0,0,1
1358,-0.75,1644832704.5,P06,D10,0,0,1
1359,-1.07,1644832704.515625,P06,D10,0,0,1
1360,-1.07,1644832704.53125,P06,D10,0,0,1
1361,-0.8,1644832704.546875,P06,D10,0,0,1
1362,-0.41,1644832704.5625,P06,D10,0,0,1
1363,-0.07,1644832704.578125,P06,D10,0,0,1
1364,0.1,1644832704.59375,P06,D10,0,0,1
1365,0.1,1644832704.609375,P06,D10,0,0,1
1366,0.03,1644832704.625,P06,D10,0,0,1
1367,0.0,1644832704.640625,P06,D10,0,0,1
1368,0.1,1644832704.65625,P06,D10,0,0,1
1369,0.28,1644832704.671875,P06,D10,0,0,1
1370,0.44,1644832704.6875,P06,D10,0,0,1
1371,0.49,1644832704.703125,P06,D10,0,0,1
1372,0.41,1644832704.71875,P06,D10,0,0,1
1373,0.26,1644832704.734375,P06,D10,0,0,1
1374,0.16,1644832704.75,P06,D10,0,0,1
1375,0.15,1644832704.765625,P06,D10,0,0,1
1376,0.22,1644832704.78125,P06,D10,0,0,1
1377,0.26,1644832704.796875,P06,D10,0,0,1
1378,0.19,1644832704.8125,P06,D10,0,0,1
1379,-0.02,1644832704.828125,P06,D10,0,0,1
1380,-0.33,1644832704.84375,P06,D10,0,0,1
1381,-0.61,1644832704.859375,P06,D10,0,0,1
1382,-0.73,1644832704.875,P06,D10,0,0,1
1383,-0.62,1644832704.890625,P06,D10,0,0,1
1384,-0.29,1644832704.90625,P06,D10,0,0,1
1385,0.15,1644832704.921875,P06,D10,0,0,1
1386,0.59,1644832704.9375,P06,D10,0,0,1
1387,0.89,1644832704.953125,P06,D10,0,0,1
1388,0.98,1644832704.96875,P06,D10,0,0,1
1389,0.84,1644832704.984375,P06,D10,0,0,1
1390,0.54,1644832705.0,P06,D10,0,0,1
1391,0.19,1644832705.015625,P06,D10,0,0,1
1392,-0.11,1644832705.03125,P06,D10,0,0,1
1393,-0.27,1644832705.046875,P06,D10,0,0,1
1394,-0.28,1644832705.0625,P06,D10,0,0,1
1395,-0.17,1644832705.078125,P06,D10,0,0,1
1396,-0.01,1644832705.09375,P06,D10,0,0,1
1397,0.12,1644832705.109375,P06,D10,0,0,1
1398,0.17,1644832705.125,P06,D10,0,0,1
1399,0.13,1644832705.140625,P06,D10,0,0,1
1400,0.01,1644832705.15625,P06,D10,0,0,1
1401,-0.16,1644832705.171875,P06,D10,0,0,1
1402,-0.32,1644832705.1875,P06,D10,0,0,1
1403,-0.44,1644832705.203125,P06,D10,0,0,1
1404,-0.5,1644832705.21875,P06,D10,0,0,1
1405,-0.49,1644832705.234375,P06,D10,0,0,1
1406,-0.43,1644832705.25,P06,D10,0,0,1
1407,-0.34,1644832705.265625,P06,D10,0,0,1
1408,-0.25,1644832705.28125,P06,D10,0,0,1
1409,-0.22,1644832705.296875,P06,D10,0,0,1
1410,-0.27,1644832705.3125,P06,D10,0,0,1
1411,-0.4,1644832705.328125,P06,D10,0,0,1
1412,-0.58,1644832705.34375,P06,D10,0,0,1
1413,-0.71,1644832705.359375,P06,D10,0,0,1
1414,-0.71,1644832705.375,P06,D10,0,0,1
1415,-0.52,1644832705.390625,P06,D10,0,0,1
1416,-0.18,1644832705.40625,P06,D10,0,0,1
1417,0.17,1644832705.421875,P06,D10,0,0,1
1418,0.39,1644832705.4375,P06,D10,0,0,1
1419,0.38,1644832705.453125,P06,D10,0,0,1
1420,0.17,1644832705.46875,P06,D10,0,0,1
1421,-0.14,1644832705.484375,P06,D10,0,0,1
1422,-0.42,1644832705.5,P06,D10,0,0,1
1423,-0.59,1644832705.515625,P06,D10,0,0,1
1424,-0.64,1644832705.53125,P06,D10,0,0,1
1425,-0.59,1644832705.546875,P06,D10,0,0,1
1426,-0.48,1644832705.5625,P06,D10,0,0,1
1427,-0.31,1644832705.578125,P06,D10,0,0,1
1428,-0.08,1644832705.59375,P06,D10,0,0,1
1429,0.22,1644832705.609375,P06,D10,0,0,1
1430,0.55,1644832705.625,P06,D10,0,0,1
1431,0.87,1644832705.640625,P06,D10,0,0,1
1432,1.12,1644832705.65625,P06,D10,0,0,1
1433,1.26,1644832705.671875,P06,D10,0,0,1
1434,1.26,1644832705.6875,P06,D10,0,0,1
1435,1.1,1644832705.703125,P06,D10,0,0,1
1436,0.77,1644832705.71875,P06,D10,0,0,1
1437,0.34,1644832705.734375,P06,D10,0,0,1
1438,-0.12,1644832705.75,P06,D10,0,0,1
1439,-0.49,1644832705.765625,P06,D10,0,0,1
1440,-0.67,1644832705.78125,P06,D10,0,0,1
1441,-0.64,1644832705.796875,P06,D10,0,0,1
1442,-0.43,1644832705.8125,P06,D10,0,0,1
1443,-0.14,1644832705.828125,P06,D10,0,0,1
1444,0.15,1644832705.84375,P06,D10,0,0,1
1445,0.37,1644832705.859375,P06,D10,0,0,1
1446,0.48,1644832705.875,P06,D10,0,0,1
1447,0.48,1644832705.890625,P06,D10,0,0,1
1448,0.38,1644832705.90625,P06,D10,0,0,1
1449,0.24,1644832705.921875,P06,D10,0,0,1
1450,0.12,1644832705.9375,P06,D10,0,0,1
1451,0.1,1644832705.953125,P06,D10,0,0,1
1452,0.22,1644832705.96875,P06,D10,0,0,1
1453,0.42,1644832705.984375,P06,D10,0,0,1
1454,0.62,1644832706.0,P06,D10,0,0,1
1455,0.69,1644832706.015625,P06,D10,0,0,1
1456,0.6,1644832706.03125,P06,D10,0,0,1
1457,0.34,1644832706.046875,P06,D10,0,0,1
1458,-0.02,1644832706.0625,P06,D10,0,0,1
1459,-0.37,1644832706.078125,P06,D10,0,0,1
1460,-0.64,1644832706.09375,P06,D10,0,0,1
1461,-0.77,1644832706.109375,P06,D10,0,0,1
1462,-0.74,1644832706.125,P06,D10,0,0,1
1463,-0.58,1644832706.140625,P06,D10,0,0,1
1464,-0.35,1644832706.15625,P06,D10,0,0,1
1465,-0.13,1644832706.171875,P06,D10,0,0,1
1466,0.0,1644832706.1875,P06,D10,0,0,1
1467,0.03,1644832706.203125,P06,D10,0,0,1
1468,-0.04,1644832706.21875,P06,D10,0,0,1
1469,-0.16,1644832706.234375,P06,D10,0,0,1
1470,-0.25,1644832706.25,P06,D10,0,0,1
1471,-0.3,1644832706.265625,P06,D10,0,0,1
1472,-0.31,1644832706.28125,P06,D10,0,0,1
1473,-0.3,1644832706.296875,P06,D10,0,0,1
1474,-0.32,1644832706.3125,P06,D10,0,0,1
1475,-0.36,1644832706.328125,P06,D10,0,0,1
1476,-0.42,1644832706.34375,P06,D10,0,0,1
1477,-0.43,1644832706.359375,P06,D10,0,0,1
1478,-0.38,1644832706.375,P06,D10,0,0,1
1479,-0.27,1644832706.390625,P06,D10,0,0,1
1480,-0.13,1644832706.40625,P06,D10,0,0,1
1481,0.02,1644832706.421875,P06,D10,0,0,1
1482,0.13,1644832706.4375,P06,D10,0,0,1
1483,0.2,1644832706.453125,P06,D10,0,0,1
1484,0.23,1644832706.46875,P06,D10,0,0,1
1485,0.22,1644832706.484375,P06,D10,0,0,1
1486,0.14,1644832706.5,P06,D10,0,0,1
1487,-0.02,1644832706.515625,P06,D10,0,0,1
1488,-0.25,1644832706.53125,P06,D10,0,0,1
1489,-0.52,1644832706.546875,P06,D10,0,0,1
1490,-0.74,1644832706.5625,P06,D10,0,0,1
1491,-0.84,1644832706.578125,P06,D10,0,0,1
1492,-0.78,1644832706.59375,P06,D10,0,0,1
1493,-0.59,1644832706.609375,P06,D10,0,0,1
1494,-0.31,1644832706.625,P06,D10,0,0,1
1495,-0.01,1644832706.640625,P06,D10,0,0,1
1496,0.28,1644832706.65625,P06,D10,0,0,1
1497,0.54,1644832706.671875,P06,D10,0,0,1
1498,0.74,1644832706.6875,P06,D10,0,0,1
1499,0.86,1644832706.703125,P06,D10,0,0,1
1500,0.84,1644832706.71875,P06,D10,0,0,1
1501,0.69,1644832706.734375,P06,D10,0,0,1
1502,0.43,1644832706.75,P06,D10,0,0,1
1503,0.14,1644832706.765625,P06,D10,0,0,1
1504,-0.06,1644832706.78125,P06,D10,0,0,1
1505,-0.1,1644832706.796875,P06,D10,0,0,1
1506,0.04,1644832706.8125,P06,D10,0,0,1
1507,0.29,1644832706.828125,P06,D10,0,0,1
1508,0.59,1644832706.84375,P06,D10,0,0,1
1509,0.84,1644832706.859375,P06,D10,0,0,1
1510,1.01,1644832706.875,P06,D10,0,0,1
1511,1.1,1644832706.890625,P06,D10,0,0,1
1512,1.11,1644832706.90625,P06,D10,0,0,1
1513,1.07,1644832706.921875,P06,D10,0,0,1
1514,0.98,1644832706.9375,P06,D10,0,0,1
1515,0.83,1644832706.953125,P06,D10,0,0,1
1516,0.65,1644832706.96875,P06,D10,0,0,1
1517,0.45,1644832706.984375,P06,D10,0,0,1
1518,0.26,1644832707.0,P06,D10,0,0,1
1519,0.11,1644832707.015625,P06,D10,0,0,1
1520,-0.02,1644832707.03125,P06,D10,0,0,1
1521,-0.17,1644832707.046875,P06,D10,0,0,1
1522,-0.39,1644832707.0625,P06,D10,0,0,1
1523,-0.66,1644832707.078125,P06,D10,0,0,1
1524,-0.94,1644832707.09375,P06,D10,0,0,1
1525,-1.1,1644832707.109375,P06,D10,0,0,1
1526,-1.06,1644832707.125,P06,D10,0,0,1
1527,-0.83,1644832707.140625,P06,D10,0,0,1
1528,-0.46,1644832707.15625,P06,D10,0,0,1
1529,-0.12,1644832707.171875,P06,D10,0,0,1
1530,0.07,1644832707.1875,P06,D10,0,0,1
1531,0.05,1644832707.203125,P06,D10,0,0,1
1532,-0.14,1644832707.21875,P06,D10,0,0,1
1533,-0.34,1644832707.234375,P06,D10,0,0,1
1534,-0.41,1644832707.25,P06,D10,0,0,1
1535,-0.26,1644832707.265625,P06,D10,0,0,1
1536,0.1,1644832707.28125,P06,D10,0,0,1
1537,0.57,1644832707.296875,P06,D10,0,0,1
1538,0.99,1644832707.3125,P06,D10,0,0,1
1539,1.2,1644832707.328125,P06,D10,0,0,1
1540,1.13,1644832707.34375,P06,D10,0,0,1
1541,0.79,1644832707.359375,P06,D10,0,0,1
1542,0.25,1644832707.375,P06,D10,0,0,1
1543,-0.38,1644832707.390625,P06,D10,0,0,1
1544,-0.95,1644832707.40625,P06,D10,0,0,1
1545,-1.37,1644832707.421875,P06,D10,0,0,1
1546,-1.57,1644832707.4375,P06,D10,0,0,1
1547,-1.55,1644832707.453125,P06,D10,0,0,1
1548,-1.35,1644832707.46875,P06,D10,0,0,1
1549,-1.0,1644832707.484375,P06,D10,0,0,1
1550,-0.59,1644832707.5,P06,D10,0,0,1
1551,-0.19,1644832707.515625,P06,D10,0,0,1
1552,0.16,1644832707.53125,P06,D10,0,0,1
1553,0.4,1644832707.546875,P06,D10,0,0,1
1554,0.49,1644832707.5625,P06,D10,0,0,1
1555,0.45,1644832707.578125,P06,D10,0,0,1
1556,0.31,1644832707.59375,P06,D10,0,0,1
1557,0.13,1644832707.609375,P06,D10,0,0,1
1558,-0.04,1644832707.625,P06,D10,0,0,1
1559,-0.15,1644832707.640625,P06,D10,0,0,1
1560,-0.16,1644832707.65625,P06,D10,0,0,1
1561,-0.08,1644832707.671875,P06,D10,0,0,1
1562,0.07,1644832707.6875,P06,D10,0,0,1
1563,0.25,1644832707.703125,P06,D10,0,0,1
1564,0.39,1644832707.71875,P06,D10,0,0,1
1565,0.42,1644832707.734375,P06,D10,0,0,1
1566,0.32,1644832707.75,P06,D10,0,0,1
1567,0.11,1644832707.765625,P06,D10,0,0,1
1568,-0.16,1644832707.78125,P06,D10,0,0,1
1569,-0.36,1644832707.796875,P06,D10,0,0,1
1570,-0.41,1644832707.8125,P06,D10,0,0,1
1571,-0.24,1644832707.828125,P06,D10,0,0,1
1572,0.05,1644832707.84375,P06,D10,0,0,1
1573,0.36,1644832707.859375,P06,D10,0,0,1
1574,0.51,1644832707.875,P06,D10,0,0,1
1575,0.43,1644832707.890625,P06,D10,0,0,1
1576,0.11,1644832707.90625,P06,D10,0,0,1
1577,-0.35,1644832707.921875,P06,D10,0,0,1
1578,-0.83,1644832707.9375,P06,D10,0,0,1
1579,-1.21,1644832707.953125,P06,D10,0,0,1
1580,-1.41,1644832707.96875,P06,D10,0,0,1
1581,-1.41,1644832707.984375,P06,D10,0,0,1
1582,-1.25,1644832708.0,P06,D10,0,0,1
1583,-0.98,1644832708.015625,P06,D10,0,0,1
1584,-0.68,1644832708.03125,P06,D10,0,0,1
1585,-0.44,1644832708.046875,P06,D10,0,0,1
1586,-0.28,1644832708.0625,P06,D10,0,0,1
1587,-0.21,1644832708.078125,P06,D10,0,0,1
1588,-0.18,1644832708.09375,P06,D10,0,0,1
1589,-0.13,1644832708.109375,P06,D10,0,0,1
1590,-0.01,1644832708.125,P06,D10,0,0,1
1591,0.17,1644832708.140625,P06,D10,0,0,1
1592,0.35,1644832708.15625,P06,D10,0,0,1
1593,0.48,1644832708.171875,P06,D10,0,0,1
1594,0.53,1644832708.1875,P06,D10,0,0,1
1595,0.48,1644832708.203125,P06,D10,0,0,1
1596,0.37,1644832708.21875,P06,D10,0,0,1
1597,0.25,1644832708.234375,P06,D10,0,0,1
1598,0.14,1644832708.25,P06,D10,0,0,1
1599,0.07,1644832708.265625,P06,D10,0,0,1
1600,0.08,1644832708.28125,P06,D10,0,0,1
1601,0.23,1644832708.296875,P06,D10,0,0,1
1602,0.53,1644832708.3125,P06,D10,0,0,1
1603,0.95,1644832708.328125,P06,D10,0,0,1
1604,1.38,1644832708.34375,P06,D10,0,0,1
1605,1.69,1644832708.359375,P06,D10,0,0,1
1606,1.72,1644832708.375,P06,D10,0,0,1
1607,1.47,1644832708.390625,P06,D10,0,0,1
1608,1.02,1644832708.40625,P06,D10,0,0,1
1609,0.52,1644832708.421875,P06,D10,0,0,1
1610,0.13,1644832708.4375,P06,D10,0,0,1
1611,-0.08,1644832708.453125,P06,D10,0,0,1
1612,-0.15,1644832708.46875,P06,D10,0,0,1
1613,-0.18,1644832708.484375,P06,D10,0,0,1
1614,-0.22,1644832708.5,P06,D10,0,0,1
1615,-0.27,1644832708.515625,P06,D10,0,0,1
1616,-0.3,1644832708.53125,P06,D10,0,0,1
1617,-0.24,1644832708.546875,P06,D10,0,0,1
1618,-0.1,1644832708.5625,P06,D10,0,0,1
1619,-0.0,1644832708.578125,P06,D10,0,0,1
1620,-0.07,1644832708.59375,P06,D10,0,0,1
1621,-0.38,1644832708.609375,P06,D10,0,0,1
1622,-0.89,1644832708.625,P06,D10,0,0,1
1623,-1.43,1644832708.640625,P06,D10,0,0,1
1624,-1.77,1644832708.65625,P06,D10,0,0,1
1625,-1.77,1644832708.671875,P06,D10,0,0,1
1626,-1.41,1644832708.6875,P06,D10,0,0,1
1627,-0.84,1644832708.703125,P06,D10,0,0,1
1628,-0.28,1644832708.71875,P06,D10,0,0,1
1629,0.11,1644832708.734375,P06,D10,0,0,1
1630,0.26,1644832708.75,P06,D10,0,0,1
1631,0.23,1644832708.765625,P06,D10,0,0,1
1632,0.15,1644832708.78125,P06,D10,0,0,1
1633,0.11,1644832708.796875,P06,D10,0,0,1
1634,0.18,1644832708.8125,P06,D10,0,0,1
1635,0.34,1644832708.828125,P06,D10,0,0,1
1636,0.52,1644832708.84375,P06,D10,0,0,1
1637,0.67,1644832708.859375,P06,D10,0,0,1
1638,0.75,1644832708.875,P06,D10,0,0,1
1639,0.74,1644832708.890625,P06,D10,0,0,1
1640,0.68,1644832708.90625,P06,D10,0,0,1
1641,0.62,1644832708.921875,P06,D10,0,0,1
1642,0.59,1644832708.9375,P06,D10,0,0,1
1643,0.63,1644832708.953125,P06,D10,0,0,1
1644,0.72,1644832708.96875,P06,D10,0,0,1
1645,0.84,1644832708.984375,P06,D10,0,0,1
1646,0.92,1644832709.0,P06,D10,0,0,1
1647,0.91,1644832709.015625,P06,D10,0,0,1
1648,0.72,1644832709.03125,P06,D10,0,0,1
1649,0.35,1644832709.046875,P06,D10,0,0,1
1650,-0.15,1644832709.0625,P06,D10,0,0,1
1651,-0.69,1644832709.078125,P06,D10,0,0,1
1652,-1.1,1644832709.09375,P06,D10,0,0,1
1653,-1.25,1644832709.109375,P06,D10,0,0,1
1654,-1.09,1644832709.125,P06,D10,0,0,1
1655,-0.67,1644832709.140625,P06,D10,0,0,1
1656,-0.15,1644832709.15625,P06,D10,0,0,1
1657,0.3,1644832709.171875,P06,D10,0,0,1
1658,0.57,1644832709.1875,P06,D10,0,0,1
1659,0.64,1644832709.203125,P06,D10,0,0,1
1660,0.58,1644832709.21875,P06,D10,0,0,1
1661,0.45,1644832709.234375,P06,D10,0,0,1
1662,0.34,1644832709.25,P06,D10,0,0,1
1663,0.24,1644832709.265625,P06,D10,0,0,1
1664,0.15,1644832709.28125,P06,D10,0,0,1
1665,0.05,1644832709.296875,P06,D10,0,0,1
1666,-0.05,1644832709.3125,P06,D10,0,0,1
1667,-0.12,1644832709.328125,P06,D10,0,0,1
1668,-0.12,1644832709.34375,P06,D10,0,0,1
1669,-0.04,1644832709.359375,P06,D10,0,0,1
1670,0.12,1644832709.375,P06,D10,0,0,1
1671,0.3,1644832709.390625,P06,D10,0,0,1
1672,0.44,1644832709.40625,P06,D10,0,0,1
1673,0.49,1644832709.421875,P06,D10,0,0,1
1674,0.44,1644832709.4375,P06,D10,0,0,1
1675,0.31,1644832709.453125,P06,D10,0,0,1
1676,0.18,1644832709.46875,P06,D10,0,0,1
1677,0.11,1644832709.484375,P06,D10,0,0,1
1678,0.14,1644832709.5,P06,D10,0,0,1
1679,0.28,1644832709.515625,P06,D10,0,0,1
1680,0.46,1644832709.53125,P06,D10,0,0,1
1681,0.6,1644832709.546875,P06,D10,0,0,1
1682,0.59,1644832709.5625,P06,D10,0,0,1
1683,0.35,1644832709.578125,P06,D10,0,0,1
1684,-0.1,1644832709.59375,P06,D10,0,0,1
1685,-0.68,1644832709.609375,P06,D10,0,0,1
1686,-1.24,1644832709.625,P06,D10,0,0,1
1687,-1.6,1644832709.640625,P06,D10,0,0,1
1688,-1.67,1644832709.65625,P06,D10,0,0,1
1689,-1.45,1644832709.671875,P06,D10,0,0,1
1690,-1.03,1644832709.6875,P06,D10,0,0,1
1691,-0.57,1644832709.703125,P06,D10,0,0,1
1692,-0.17,1644832709.71875,P06,D10,0,0,1
1693,0.1,1644832709.734375,P06,D10,0,0,1
1694,0.26,1644832709.75,P06,D10,0,0,1
1695,0.35,1644832709.765625,P06,D10,0,0,1
1696,0.4,1644832709.78125,P06,D10,0,0,1
1697,0.39,1644832709.796875,P06,D10,0,0,1
1698,0.32,1644832709.8125,P06,D10,0,0,1
1699,0.17,1644832709.828125,P06,D10,0,0,1
1700,-0.02,1644832709.84375,P06,D10,0,0,1
1701,-0.24,1644832709.859375,P06,D10,0,0,1
1702,-0.43,1644832709.875,P06,D10,0,0,1
1703,-0.58,1644832709.890625,P06,D10,0,0,1
1704,-0.67,1644832709.90625,P06,D10,0,0,1
1705,-0.68,1644832709.921875,P06,D10,0,0,1
1706,-0.56,1644832709.9375,P06,D10,0,0,1
1707,-0.3,1644832709.953125,P06,D10,0,0,1
1708,0.08,1644832709.96875,P06,D10,0,0,1
1709,0.51,1644832709.984375,P06,D10,0,0,1
1710,0.84,1644832710.0,P06,D10,0,0,1
1711,0.94,1644832710.015625,P06,D10,0,0,1
1712,0.73,1644832710.03125,P06,D10,0,0,1
1713,0.26,1644832710.046875,P06,D10,0,0,1
1714,-0.3,1644832710.0625,P06,D10,0,0,1
1715,-0.77,1644832710.078125,P06,D10,0,0,1
1716,-0.98,1644832710.09375,P06,D10,0,0,1
1717,-0.89,1644832710.109375,P06,D10,0,0,1
1718,-0.55,1644832710.125,P06,D10,0,0,1
1719,-0.1,1644832710.140625,P06,D10,0,0,1
1720,0.32,1644832710.15625,P06,D10,0,0,1
1721,0.61,1644832710.171875,P06,D10,0,0,1
1722,0.72,1644832710.1875,P06,D10,0,0,1
1723,0.65,1644832710.203125,P06,D10,0,0,1
1724,0.43,1644832710.21875,P06,D10,0,0,1
1725,0.12,1644832710.234375,P06,D10,0,0,1
1726,-0.17,1644832710.25,P06,D10,0,0,1
1727,-0.38,1644832710.265625,P06,D10,0,0,1
1728,-0.45,1644832710.28125,P06,D10,0,0,1
1729,-0.37,1644832710.296875,P06,D10,0,0,1
1730,-0.19,1644832710.3125,P06,D10,0,0,1
1731,0.01,1644832710.328125,P06,D10,0,0,1
1732,0.19,1644832710.34375,P06,D10,0,0,1
1733,0.32,1644832710.359375,P06,D10,0,0,1
1734,0.41,1644832710.375,P06,D10,0,0,1
1735,0.47,1644832710.390625,P06,D10,0,0,1
1736,0.49,1644832710.40625,P06,D10,0,0,1
1737,0.46,1644832710.421875,P06,D10,0,0,1
1738,0.33,1644832710.4375,P06,D10,0,0,1
1739,0.13,1644832710.453125,P06,D10,0,0,1
1740,-0.09,1644832710.46875,P06,D10,0,0,1
1741,-0.25,1644832710.484375,P06,D10,0,0,1
1742,-0.29,1644832710.5,P06,D10,0,0,1
1743,-0.21,1644832710.515625,P06,D10,0,0,1
1744,-0.05,1644832710.53125,P06,D10,0,0,1
1745,0.11,1644832710.546875,P06,D10,0,0,1
1746,0.22,1644832710.5625,P06,D10,0,0,1
1747,0.26,1644832710.578125,P06,D10,0,0,1
1748,0.25,1644832710.59375,P06,D10,0,0,1
1749,0.22,1644832710.609375,P06,D10,0,0,1
1750,0.19,1644832710.625,P06,D10,0,0,1
1751,0.13,1644832710.640625,P06,D10,0,0,1
1752,0.0,1644832710.65625,P06,D10,0,0,1
1753,-0.23,1644832710.671875,P06,D10,0,0,1
1754,-0.52,1644832710.6875,P06,D10,0,0,1
1755,-0.8,1644832710.703125,P06,D10,0,0,1
1756,-1.01,1644832710.71875,P06,D10,0,0,1
1757,-1.1,1644832710.734375,P06,D10,0,0,1
1758,-1.08,1644832710.75,P06,D10,0,0,1
1759,-1.02,1644832710.765625,P06,D10,0,0,1
1760,-0.96,1644832710.78125,P06,D10,0,0,1
1761,-0.89,1644832710.796875,P06,D10,0,0,1
1762,-0.76,1644832710.8125,P06,D10,0,0,1
1763,-0.53,1644832710.828125,P06,D10,0,0,1
1764,-0.22,1644832710.84375,P06,D10,0,0,1
1765,0.11,1644832710.859375,P06,D10,0,0,1
1766,0.37,1644832710.875,P06,D10,0,0,1
1767,0.49,1644832710.890625,P06,D10,0,0,1
1768,0.48,1644832710.90625,P06,D10,0,0,1
1769,0.39,1644832710.921875,P06,D10,0,0,1
1770,0.31,1644832710.9375,P06,D10,0,0,1
1771,0.31,1644832710.953125,P06,D10,0,0,1
1772,0.37,1644832710.96875,P06,D10,0,0,1
1773,0.47,1644832710.984375,P06,D10,0,0,1
1774,0.55,1644832711.0,P06,D10,0,0,1
1775,0.61,1644832711.015625,P06,D10,0,0,1
1776,0.66,1644832711.03125,P06,D10,0,0,1
1777,0.71,1644832711.046875,P06,D10,0,0,1
1778,0.77,1644832711.0625,P06,D10,0,0,1
1779,0.81,1644832711.078125,P06,D10,0,0,1
1780,0.76,1644832711.09375,P06,D10,0,0,1
1781,0.56,1644832711.109375,P06,D10,0,0,1
1782,0.22,1644832711.125,P06,D10,0,0,1
1783,-0.22,1644832711.140625,P06,D10,0,0,1
1784,-0.6,1644832711.15625,P06,D10,0,0,1
1785,-0.79,1644832711.171875,P06,D10,0,0,1
1786,-0.73,1644832711.1875,P06,D10,0,0,1
1787,-0.46,1644832711.203125,P06,D10,0,0,1
1788,-0.12,1644832711.21875,P06,D10,0,0,1
1789,0.14,1644832711.234375,P06,D10,0,0,1
1790,0.22,1644832711.25,P06,D10,0,0,1
1791,0.16,1644832711.265625,P06,D10,0,0,1
1792,0.09,1644832711.28125,P06,D10,0,0,1
1793,0.12,1644832711.296875,P06,D10,0,0,1
1794,0.3,1644832711.3125,P06,D10,0,0,1
1795,0.54,1644832711.328125,P06,D10,0,0,1
1796,0.7,1644832711.34375,P06,D10,0,0,1
1797,0.66,1644832711.359375,P06,D10,0,0,1
1798,0.37,1644832711.375,P06,D10,0,0,1
1799,-0.09,1644832711.390625,P06,D10,0,0,1
1800,-0.53,1644832711.40625,P06,D10,0,0,1
1801,-0.83,1644832711.421875,P06,D10,0,0,1
1802,-0.9,1644832711.4375,P06,D10,0,0,1
1803,-0.77,1644832711.453125,P06,D10,0,0,1
1804,-0.56,1644832711.46875,P06,D10,0,0,1
1805,-0.37,1644832711.484375,P06,D10,0,0,1
1806,-0.23,1644832711.5,P06,D10,0,0,1
1807,-0.11,1644832711.515625,P06,D10,0,0,1
1808,0.08,1644832711.53125,P06,D10,0,0,1
1809,0.36,1644832711.546875,P06,D10,0,0,1
1810,0.69,1644832711.5625,P06,D10,0,0,1
1811,0.93,1644832711.578125,P06,D10,0,0,1
1812,0.98,1644832711.59375,P06,D10,0,0,1
1813,0.79,1644832711.609375,P06,D10,0,0,1
1814,0.42,1644832711.625,P06,D10,0,0,1
1815,0.01,1644832711.640625,P06,D10,0,0,1
1816,-0.28,1644832711.65625,P06,D10,0,0,1
1817,-0.39,1644832711.671875,P06,D10,0,0,1
1818,-0.35,1644832711.6875,P06,D10,0,0,1
1819,-0.27,1644832711.703125,P06,D10,0,0,1
1820,-0.2,1644832711.71875,P06,D10,0,0,1
1821,-0.16,1644832711.734375,P06,D10,0,0,1
1822,-0.09,1644832711.75,P06,D10,0,0,1
1823,0.07,1644832711.765625,P06,D10,0,0,1
1824,0.34,1644832711.78125,P06,D10,0,0,1
1825,0.63,1644832711.796875,P06,D10,0,0,1
1826,0.82,1644832711.8125,P06,D10,0,0,1
1827,0.8,1644832711.828125,P06,D10,0,0,1
1828,0.53,1644832711.84375,P06,D10,0,0,1
1829,0.09,1644832711.859375,P06,D10,0,0,1
1830,-0.39,1644832711.875,P06,D10,0,0,1
1831,-0.76,1644832711.890625,P06,D10,0,0,1
1832,-0.94,1644832711.90625,P06,D10,0,0,1
1833,-0.95,1644832711.921875,P06,D10,0,0,1
1834,-0.87,1644832711.9375,P06,D10,0,0,1
1835,-0.78,1644832711.953125,P06,D10,0,0,1
1836,-0.7,1644832711.96875,P06,D10,0,0,1
1837,-0.62,1644832711.984375,P06,D10,0,0,1
1838,-0.51,1644832712.0,P06,D10,0,0,1
1839,-0.34,1644832712.015625,P06,D10,0,0,1
1840,-0.18,1644832712.03125,P06,D10,0,0,1
1841,-0.07,1644832712.046875,P06,D10,0,0,1
1842,-0.07,1644832712.0625,P06,D10,0,0,1
1843,-0.16,1644832712.078125,P06,D10,0,0,1
1844,-0.26,1644832712.09375,P06,D10,0,0,1
1845,-0.29,1644832712.109375,P06,D10,0,0,1
1846,-0.19,1644832712.125,P06,D10,0,0,1
1847,0.03,1644832712.140625,P06,D10,0,0,1
1848,0.32,1644832712.15625,P06,D10,0,0,1
1849,0.63,1644832712.171875,P06,D10,0,0,1
1850,0.87,1644832712.1875,P06,D10,0,0,1
1851,0.99,1644832712.203125,P06,D10,0,0,1
1852,0.96,1644832712.21875,P06,D10,0,0,1
1853,0.75,1644832712.234375,P06,D10,0,0,1
1854,0.37,1644832712.25,P06,D10,0,0,1
1855,-0.09,1644832712.265625,P06,D10,0,0,1
1856,-0.52,1644832712.28125,P06,D10,0,0,1
1857,-0.78,1644832712.296875,P06,D10,0,0,1
1858,-0.79,1644832712.3125,P06,D10,0,0,1
1859,-0.53,1644832712.328125,P06,D10,0,0,1
1860,-0.08,1644832712.34375,P06,D10,0,0,1
1861,0.43,1644832712.359375,P06,D10,0,0,1
1862,0.86,1644832712.375,P06,D10,0,0,1
1863,1.1,1644832712.390625,P06,D10,0,0,1
1864,1.14,1644832712.40625,P06,D10,0,0,1
1865,1.02,1644832712.421875,P06,D10,0,0,1
1866,0.82,1644832712.4375,P06,D10,0,0,1
1867,0.63,1644832712.453125,P06,D10,0,0,1
1868,0.47,1644832712.46875,P06,D10,0,0,1
1869,0.35,1644832712.484375,P06,D10,0,0,1
1870,0.22,1644832712.5,P06,D10,0,0,1
1871,0.04,1644832712.515625,P06,D10,0,0,1
1872,-0.18,1644832712.53125,P06,D10,0,0,1
1873,-0.41,1644832712.546875,P06,D10,0,0,1
1874,-0.61,1644832712.5625,P06,D10,0,0,1
1875,-0.73,1644832712.578125,P06,D10,0,0,1
1876,-0.79,1644832712.59375,P06,D10,0,0,1
1877,-0.82,1644832712.609375,P06,D10,0,0,1
1878,-0.82,1644832712.625,P06,D10,0,0,1
1879,-0.81,1644832712.640625,P06,D10,0,0,1
1880,-0.76,1644832712.65625,P06,D10,0,0,1
1881,-0.64,1644832712.671875,P06,D10,0,0,1
1882,-0.44,1644832712.6875,P06,D10,0,0,1
1883,-0.18,1644832712.703125,P06,D10,0,0,1
1884,0.1,1644832712.71875,P06,D10,0,0,1
1885,0.34,1644832712.734375,P06,D10,0,0,1
1886,0.49,1644832712.75,P06,D10,0,0,1
1887,0.54,1644832712.765625,P06,D10,0,0,1
1888,0.51,1644832712.78125,P06,D10,0,0,1
1889,0.44,1644832712.796875,P06,D10,0,0,1
1890,0.36,1644832712.8125,P06,D10,0,0,1
1891,0.28,1644832712.828125,P06,D10,0,0,1
1892,0.2,1644832712.84375,P06,D10,0,0,1
1893,0.12,1644832712.859375,P06,D10,0,0,1
1894,0.04,1644832712.875,P06,D10,0,0,1
1895,-0.03,1644832712.890625,P06,D10,0,0,1
1896,-0.05,1644832712.90625,P06,D10,0,0,1
1897,-0.05,1644832712.921875,P06,D10,0,0,1
1898,-0.02,1644832712.9375,P06,D10,0,0,1
1899,-0.02,1644832712.953125,P06,D10,0,0,1
1900,-0.09,1644832712.96875,P06,D10,0,0,1
1901,-0.24,1644832712.984375,P06,D10,0,0,1
1902,-0.45,1644832713.0,P06,D10,0,0,1
1903,-0.64,1644832713.015625,P06,D10,0,0,1
1904,-0.74,1644832713.03125,P06,D10,0,0,1
1905,-0.71,1644832713.046875,P06,D10,0,0,1
1906,-0.54,1644832713.0625,P06,D10,0,0,1
1907,-0.24,1644832713.078125,P06,D10,0,0,1
1908,0.14,1644832713.09375,P06,D10,0,0,1
1909,0.54,1644832713.109375,P06,D10,0,0,1
1910,0.89,1644832713.125,P06,D10,0,0,1
1911,1.15,1644832713.140625,P06,D10,0,0,1
1912,1.27,1644832713.15625,P06,D10,0,0,1
1913,1.26,1644832713.171875,P06,D10,0,0,1
1914,1.15,1644832713.1875,P06,D10,0,0,1
1915,0.97,1644832713.203125,P06,D10,0,0,1
1916,0.75,1644832713.21875,P06,D10,0,0,1
1917,0.47,1644832713.234375,P06,D10,0,0,1
1918,0.15,1644832713.25,P06,D10,0,0,1
1919,-0.22,1644832713.265625,P06,D10,0,0,1
1920,-0.6,1644832713.28125,P06,D10,0,0,1
1921,-0.91,1644832713.296875,P06,D10,0,0,1
1922,-1.06,1644832713.3125,P06,D10,0,0,1
1923,-1.01,1644832713.328125,P06,D10,0,0,1
1924,-0.82,1644832713.34375,P06,D10,0,0,1
1925,-0.58,1644832713.359375,P06,D10,0,0,1
1926,-0.39,1644832713.375,P06,D10,0,0,1
1927,-0.33,1644832713.390625,P06,D10,0,0,1
1928,-0.39,1644832713.40625,P06,D10,0,0,1
1929,-0.51,1644832713.421875,P06,D10,0,0,1
1930,-0.6,1644832713.4375,P06,D10,0,0,1
1931,-0.59,1644832713.453125,P06,D10,0,0,1
1932,-0.46,1644832713.46875,P06,D10,0,0,1
1933,-0.21,1644832713.484375,P06,D10,0,0,1
1934,0.11,1644832713.5,P06,D10,0,0,1
1935,0.45,1644832713.515625,P06,D10,0,0,1
1936,0.74,1644832713.53125,P06,D10,0,0,1
1937,0.92,1644832713.546875,P06,D10,0,0,1
1938,0.94,1644832713.5625,P06,D10,0,0,1
1939,0.79,1644832713.578125,P06,D10,0,0,1
1940,0.47,1644832713.59375,P06,D10,0,0,1
1941,0.03,1644832713.609375,P06,D10,0,0,1
1942,-0.46,1644832713.625,P06,D10,0,0,1
1943,-0.92,1644832713.640625,P06,D10,0,0,1
1944,-1.23,1644832713.65625,P06,D10,0,0,1
1945,-1.29,1644832713.671875,P06,D10,0,0,1
1946,-1.05,1644832713.6875,P06,D10,0,0,1
1947,-0.56,1644832713.703125,P06,D10,0,0,1
1948,0.05,1644832713.71875,P06,D10,0,0,1
1949,0.59,1644832713.734375,P06,D10,0,0,1
1950,0.9,1644832713.75,P06,D10,0,0,1
1951,0.94,1644832713.765625,P06,D10,0,0,1
1952,0.76,1644832713.78125,P06,D10,0,0,1
1953,0.49,1644832713.796875,P06,D10,0,0,1
1954,0.29,1644832713.8125,P06,D10,0,0,1
1955,0.24,1644832713.828125,P06,D10,0,0,1
1956,0.32,1644832713.84375,P06,D10,0,0,1
1957,0.44,1644832713.859375,P06,D10,0,0,1
1958,0.48,1644832713.875,P06,D10,0,0,1
1959,0.34,1644832713.890625,P06,D10,0,0,1
1960,0.02,1644832713.90625,P06,D10,0,0,1
1961,-0.42,1644832713.921875,P06,D10,0,0,1
1962,-0.84,1644832713.9375,P06,D10,0,0,1
1963,-1.11,1644832713.953125,P06,D10,0,0,1
1964,-1.11,1644832713.96875,P06,D10,0,0,1
1965,-0.85,1644832713.984375,P06,D10,0,0,1
1966,-0.38,1644832714.0,P06,D10,0,0,1
1967,0.15,1644832714.015625,P06,D10,0,0,1
1968,0.59,1644832714.03125,P06,D10,0,0,1
1969,0.82,1644832714.046875,P06,D10,0,0,1
1970,0.79,1644832714.0625,P06,D10,0,0,1
1971,0.52,1644832714.078125,P06,D10,0,0,1
1972,0.13,1644832714.09375,P06,D10,0,0,1
1973,-0.25,1644832714.109375,P06,D10,0,0,1
1974,-0.47,1644832714.125,P06,D10,0,0,1
1975,-0.45,1644832714.140625,P06,D10,0,0,1
1976,-0.21,1644832714.15625,P06,D10,0,0,1
1977,0.19,1644832714.171875,P06,D10,0,0,1
1978,0.6,1644832714.1875,P06,D10,0,0,1
1979,0.89,1644832714.203125,P06,D10,0,0,1
1980,0.97,1644832714.21875,P06,D10,0,0,1
1981,0.84,1644832714.234375,P06,D10,0,0,1
1982,0.51,1644832714.25,P06,D10,0,0,1
1983,0.08,1644832714.265625,P06,D10,0,0,1
1984,-0.34,1644832714.28125,P06,D10,0,0,1
1985,-0.66,1644832714.296875,P06,D10,0,0,1
1986,-0.77,1644832714.3125,P06,D10,0,0,1
1987,-0.62,1644832714.328125,P06,D10,0,0,1
1988,-0.25,1644832714.34375,P06,D10,0,0,1
1989,0.23,1644832714.359375,P06,D10,0,0,1
1990,0.66,1644832714.375,P06,D10,0,0,1
1991,0.9,1644832714.390625,P06,D10,0,0,1
1992,0.91,1644832714.40625,P06,D10,0,0,1
1993,0.73,1644832714.421875,P06,D10,0,0,1
1994,0.49,1644832714.4375,P06,D10,0,0,1
1995,0.3,1644832714.453125,P06,D10,0,0,1
1996,0.18,1644832714.46875,P06,D10,0,0,1
1997,0.12,1644832714.484375,P06,D10,0,0,1
1998,0.07,1644832714.5,P06,D10,0,0,1
1999,0.02,1644832714.515625,P06,D10,0,0,1
2000,-0.04,1644832714.53125,P06,D10,0,0,1
2001,-0.08,1644832714.546875,P06,D10,0,0,1
2002,-0.11,1644832714.5625,P06,D10,0,0,1
2003,-0.16,1644832714.578125,P06,D10,0,0,1
2004,-0.27,1644832714.59375,P06,D10,0,0,1
2005,-0.39,1644832714.609375,P06,D10,0,0,1
2006,-0.49,1644832714.625,P06,D10,0,0,1
2007,-0.47,1644832714.640625,P06,D10,0,0,1
2008,-0.31,1644832714.65625,P06,D10,0,0,1
2009,-0.06,1644832714.671875,P06,D10,0,0,1
2010,0.21,1644832714.6875,P06,D10,0,0,1
2011,0.41,1644832714.703125,P06,D10,0,0,1
2012,0.53,1644832714.71875,P06,D10,0,0,1
2013,0.56,1644832714.734375,P06,D10,0,0,1
2014,0.54,1644832714.75,P06,D10,0,0,1
2015,0.46,1644832714.765625,P06,D10,0,0,1
2016,0.32,1644832714.78125,P06,D10,0,0,1
2017,0.13,1644832714.796875,P06,D10,0,0,1
2018,-0.05,1644832714.8125,P06,D10,0,0,1
2019,-0.13,1644832714.828125,P06,D10,0,0,1
2020,-0.04,1644832714.84375,P06,D10,0,0,1
2021,0.19,1644832714.859375,P06,D10,0,0,1
2022,0.42,1644832714.875,P06,D10,0,0,1
2023,0.46,1644832714.890625,P06,D10,0,0,1
2024,0.22,1644832714.90625,P06,D10,0,0,1
2025,-0.32,1644832714.921875,P06,D10,0,0,1
2026,-0.99,1644832714.9375,P06,D10,0,0,1
2027,-1.56,1644832714.953125,P06,D10,0,0,1
2028,-1.84,1644832714.96875,P06,D10,0,0,1
2029,-1.79,1644832714.984375,P06,D10,0,0,1
2030,-1.5,1644832715.0,P06,D10,0,0,1
2031,-1.1,1644832715.015625,P06,D10,0,0,1
2032,-0.74,1644832715.03125,P06,D10,0,0,1
2033,-0.47,1644832715.046875,P06,D10,0,0,1
2034,-0.29,1644832715.0625,P06,D10,0,0,1
2035,-0.16,1644832715.078125,P06,D10,0,0,1
2036,-0.11,1644832715.09375,P06,D10,0,0,1
2037,-0.14,1644832715.109375,P06,D10,0,0,1
2038,-0.26,1644832715.125,P06,D10,0,0,1
2039,-0.42,1644832715.140625,P06,D10,0,0,1
2040,-0.51,1644832715.15625,P06,D10,0,0,1
2041,-0.44,1644832715.171875,P06,D10,0,0,1
2042,-0.17,1644832715.1875,P06,D10,0,0,1
2043,0.24,1644832715.203125,P06,D10,0,0,1
2044,0.68,1644832715.21875,P06,D10,0,0,1
2045,1.01,1644832715.234375,P06,D10,0,0,1
2046,1.17,1644832715.25,P06,D10,0,0,1
2047,1.15,1644832715.265625,P06,D10,0,0,1
2048,1.0,1644832715.28125,P06,D10,0,0,1
2049,0.78,1644832715.296875,P06,D10,0,0,1
2050,0.55,1644832715.3125,P06,D10,0,0,1
2051,0.34,1644832715.328125,P06,D10,0,0,1
2052,0.17,1644832715.34375,P06,D10,0,0,1
2053,0.09,1644832715.359375,P06,D10,0,0,1
2054,0.11,1644832715.375,P06,D10,0,0,1
2055,0.26,1644832715.390625,P06,D10,0,0,1
2056,0.48,1644832715.40625,P06,D10,0,0,1
2057,0.69,1644832715.421875,P06,D10,0,0,1
2058,0.78,1644832715.4375,P06,D10,0,0,1
2059,0.7,1644832715.453125,P06,D10,0,0,1
2060,0.43,1644832715.46875,P06,D10,0,0,1
2061,0.07,1644832715.484375,P06,D10,0,0,1
2062,-0.28,1644832715.5,P06,D10,0,0,1
2063,-0.51,1644832715.515625,P06,D10,0,0,1
2064,-0.57,1644832715.53125,P06,D10,0,0,1
2065,-0.47,1644832715.546875,P06,D10,0,0,1
2066,-0.29,1644832715.5625,P06,D10,0,0,1
2067,-0.13,1644832715.578125,P06,D10,0,0,1
2068,-0.07,1644832715.59375,P06,D10,0,0,1
2069,-0.16,1644832715.609375,P06,D10,0,0,1
2070,-0.35,1644832715.625,P06,D10,0,0,1
2071,-0.57,1644832715.640625,P06,D10,0,0,1
2072,-0.73,1644832715.65625,P06,D10,0,0,1
2073,-0.77,1644832715.671875,P06,D10,0,0,1
2074,-0.69,1644832715.6875,P06,D10,0,0,1
2075,-0.54,1644832715.703125,P06,D10,0,0,1
2076,-0.41,1644832715.71875,P06,D10,0,0,1
2077,-0.36,1644832715.734375,P06,D10,0,0,1
2078,-0.39,1644832715.75,P06,D10,0,0,1
2079,-0.44,1644832715.765625,P06,D10,0,0,1
2080,-0.43,1644832715.78125,P06,D10,0,0,1
2081,-0.27,1644832715.796875,P06,D10,0,0,1
2082,0.03,1644832715.8125,P06,D10,0,0,1
2083,0.4,1644832715.828125,P06,D10,0,0,1
2084,0.75,1644832715.84375,P06,D10,0,0,1
2085,0.95,1644832715.859375,P06,D10,0,0,1
2086,0.94,1644832715.875,P06,D10,0,0,1
2087,0.75,1644832715.890625,P06,D10,0,0,1
2088,0.45,1644832715.90625,P06,D10,0,0,1
2089,0.16,1644832715.921875,P06,D10,0,0,1
2090,-0.03,1644832715.9375,P06,D10,0,0,1
2091,-0.08,1644832715.953125,P06,D10,0,0,1
2092,-0.04,1644832715.96875,P06,D10,0,0,1
2093,0.01,1644832715.984375,P06,D10,0,0,1
2094,-0.03,1644832716.0,P06,D10,0,0,1
2095,-0.18,1644832716.015625,P06,D10,0,0,1
2096,-0.4,1644832716.03125,P06,D10,0,0,1
2097,-0.61,1644832716.046875,P06,D10,0,0,1
2098,-0.72,1644832716.0625,P06,D10,0,0,1
2099,-0.7,1644832716.078125,P06,D10,0,0,1
2100,-0.63,1644832716.09375,P06,D10,0,0,1
2101,-0.58,1644832716.109375,P06,D10,0,0,1
2102,-0.63,1644832716.125,P06,D10,0,0,1
2103,-0.77,1644832716.140625,P06,D10,0,0,1
2104,-0.92,1644832716.15625,P06,D10,0,0,1
2105,-0.96,1644832716.171875,P06,D10,0,0,1
2106,-0.82,1644832716.1875,P06,D10,0,0,1
2107,-0.54,1644832716.203125,P06,D10,0,0,1
2108,-0.23,1644832716.21875,P06,D10,0,0,1
2109,0.0,1644832716.234375,P06,D10,0,0,1
2110,0.07,1644832716.25,P06,D10,0,0,1
2111,0.02,1644832716.265625,P06,D10,0,0,1
2112,-0.04,1644832716.28125,P06,D10,0,0,1
2113,-0.0,1644832716.296875,P06,D10,0,0,1
2114,0.19,1644832716.3125,P06,D10,0,0,1
2115,0.5,1644832716.328125,P06,D10,0,0,1
2116,0.83,1644832716.34375,P06,D10,0,0,1
2117,1.08,1644832716.359375,P06,D10,0,0,1
2118,1.21,1644832716.375,P06,D10,0,0,1
2119,1.24,1644832716.390625,P06,D10,0,0,1
2120,1.2,1644832716.40625,P06,D10,0,0,1
2121,1.14,1644832716.421875,P06,D10,0,0,1
2122,1.07,1644832716.4375,P06,D10,0,0,1
2123,1.02,1644832716.453125,P06,D10,0,0,1
2124,1.0,1644832716.46875,P06,D10,0,0,1
2125,1.02,1644832716.484375,P06,D10,0,0,1
2126,1.06,1644832716.5,P06,D10,0,0,1
2127,1.09,1644832716.515625,P06,D10,0,0,1
2128,1.07,1644832716.53125,P06,D10,0,0,1
2129,0.94,1644832716.546875,P06,D10,0,0,1
2130,0.69,1644832716.5625,P06,D10,0,0,1
2131,0.32,1644832716.578125,P06,D10,0,0,1
2132,-0.11,1644832716.59375,P06,D10,0,0,1
2133,-0.51,1644832716.609375,P06,D10,0,0,1
2134,-0.83,1644832716.625,P06,D10,0,0,1
2135,-1.0,1644832716.640625,P06,D10,0,0,1
2136,-1.02,1644832716.65625,P06,D10,0,0,1
2137,-0.93,1644832716.671875,P06,D10,0,0,1
2138,-0.79,1644832716.6875,P06,D10,0,0,1
2139,-0.65,1644832716.703125,P06,D10,0,0,1
2140,-0.53,1644832716.71875,P06,D10,0,0,1
2141,-0.43,1644832716.734375,P06,D10,0,0,1
2142,-0.32,1644832716.75,P06,D10,0,0,1
2143,-0.21,1644832716.765625,P06,D10,0,0,1
2144,-0.1,1644832716.78125,P06,D10,0,0,1
2145,-0.03,1644832716.796875,P06,D10,0,0,1
2146,-0.0,1644832716.8125,P06,D10,0,0,1
2147,-0.01,1644832716.828125,P06,D10,0,0,1
2148,0.03,1644832716.84375,P06,D10,0,0,1
2149,0.14,1644832716.859375,P06,D10,0,0,1
2150,0.33,1644832716.875,P06,D10,0,0,1
2151,0.52,1644832716.890625,P06,D10,0,0,1
2152,0.59,1644832716.90625,P06,D10,0,0,1
2153,0.45,1644832716.921875,P06,D10,0,0,1
2154,0.12,1644832716.9375,P06,D10,0,0,1
2155,-0.28,1644832716.953125,P06,D10,0,0,1
2156,-0.61,1644832716.96875,P06,D10,0,0,1
2157,-0.74,1644832716.984375,P06,D10,0,0,1
2158,-0.67,1644832717.0,P06,D10,0,0,1
2159,-0.48,1644832717.015625,P06,D10,0,0,1
2160,-0.3,1644832717.03125,P06,D10,0,0,1
2161,-0.23,1644832717.046875,P06,D10,0,0,1
2162,-0.29,1644832717.0625,P06,D10,0,0,1
2163,-0.42,1644832717.078125,P06,D10,0,0,1
2164,-0.54,1644832717.09375,P06,D10,0,0,1
2165,-0.59,1644832717.109375,P06,D10,0,0,1
2166,-0.58,1644832717.125,P06,D10,0,0,1
2167,-0.52,1644832717.140625,P06,D10,0,0,1
2168,-0.43,1644832717.15625,P06,D10,0,0,1
2169,-0.32,1644832717.171875,P06,D10,0,0,1
2170,-0.15,1644832717.1875,P06,D10,0,0,1
2171,0.08,1644832717.203125,P06,D10,0,0,1
2172,0.36,1644832717.21875,P06,D10,0,0,1
2173,0.65,1644832717.234375,P06,D10,0,0,1
2174,0.9,1644832717.25,P06,D10,0,0,1
2175,1.08,1644832717.265625,P06,D10,0,0,1
2176,1.15,1644832717.28125,P06,D10,0,0,1
2177,1.12,1644832717.296875,P06,D10,0,0,1
2178,0.98,1644832717.3125,P06,D10,0,0,1
2179,0.76,1644832717.328125,P06,D10,0,0,1
2180,0.5,1644832717.34375,P06,D10,0,0,1
2181,0.22,1644832717.359375,P06,D10,0,0,1
2182,-0.04,1644832717.375,P06,D10,0,0,1
2183,-0.28,1644832717.390625,P06,D10,0,0,1
2184,-0.48,1644832717.40625,P06,D10,0,0,1
2185,-0.64,1644832717.421875,P06,D10,0,0,1
2186,-0.74,1644832717.4375,P06,D10,0,0,1
2187,-0.75,1644832717.453125,P06,D10,0,0,1
2188,-0.65,1644832717.46875,P06,D10,0,0,1
2189,-0.4,1644832717.484375,P06,D10,0,0,1
2190,-0.04,1644832717.5,P06,D10,0,0,1
2191,0.36,1644832717.515625,P06,D10,0,0,1
2192,0.67,1644832717.53125,P06,D10,0,0,1
2193,0.77,1644832717.546875,P06,D10,0,0,1
2194,0.61,1644832717.5625,P06,D10,0,0,1
2195,0.24,1644832717.578125,P06,D10,0,0,1
2196,-0.19,1644832717.59375,P06,D10,0,0,1
2197,-0.49,1644832717.609375,P06,D10,0,0,1
2198,-0.57,1644832717.625,P06,D10,0,0,1
2199,-0.45,1644832717.640625,P06,D10,0,0,1
2200,-0.26,1644832717.65625,P06,D10,0,0,1
2201,-0.17,1644832717.671875,P06,D10,0,0,1
2202,-0.25,1644832717.6875,P06,D10,0,0,1
2203,-0.46,1644832717.703125,P06,D10,0,0,1
2204,-0.66,1644832717.71875,P06,D10,0,0,1
2205,-0.69,1644832717.734375,P06,D10,0,0,1
2206,-0.49,1644832717.75,P06,D10,0,0,1
2207,-0.16,1644832717.765625,P06,D10,0,0,1
2208,0.14,1644832717.78125,P06,D10,0,0,1
2209,0.29,1644832717.796875,P06,D10,0,0,1
2210,0.24,1644832717.8125,P06,D10,0,0,1
2211,0.06,1644832717.828125,P06,D10,0,0,1
2212,-0.11,1644832717.84375,P06,D10,0,0,1
2213,-0.2,1644832717.859375,P06,D10,0,0,1
2214,-0.17,1644832717.875,P06,D10,0,0,1
2215,-0.07,1644832717.890625,P06,D10,0,0,1
2216,0.01,1644832717.90625,P06,D10,0,0,1
2217,0.01,1644832717.921875,P06,D10,0,0,1
2218,-0.08,1644832717.9375,P06,D10,0,0,1
2219,-0.23,1644832717.953125,P06,D10,0,0,1
2220,-0.39,1644832717.96875,P06,D10,0,0,1
2221,-0.5,1644832717.984375,P06,D10,0,0,1
2222,-0.51,1644832718.0,P06,D10,0,0,1
2223,-0.4,1644832718.015625,P06,D10,0,0,1
2224,-0.16,1644832718.03125,P06,D10,0,0,1
2225,0.14,1644832718.046875,P06,D10,0,0,1
2226,0.42,1644832718.0625,P06,D10,0,0,1
2227,0.58,1644832718.078125,P06,D10,0,0,1
2228,0.58,1644832718.09375,P06,D10,0,0,1
2229,0.44,1644832718.109375,P06,D10,0,0,1
2230,0.26,1644832718.125,P06,D10,0,0,1
2231,0.12,1644832718.140625,P06,D10,0,0,1
2232,0.09,1644832718.15625,P06,D10,0,0,1
2233,0.17,1644832718.171875,P06,D10,0,0,1
2234,0.33,1644832718.1875,P06,D10,0,0,1
2235,0.5,1644832718.203125,P06,D10,0,0,1
2236,0.61,1644832718.21875,P06,D10,0,0,1
2237,0.64,1644832718.234375,P06,D10,0,0,1
2238,0.57,1644832718.25,P06,D10,0,0,1
2239,0.44,1644832718.265625,P06,D10,0,0,1
2240,0.27,1644832718.28125,P06,D10,0,0,1
2241,0.1,1644832718.296875,P06,D10,0,0,1
2242,-0.04,1644832718.3125,P06,D10,0,0,1
2243,-0.14,1644832718.328125,P06,D10,0,0,1
2244,-0.22,1644832718.34375,P06,D10,0,0,1
2245,-0.28,1644832718.359375,P06,D10,0,0,1
2246,-0.37,1644832718.375,P06,D10,0,0,1
2247,-0.49,1644832718.390625,P06,D10,0,0,1
2248,-0.65,1644832718.40625,P06,D10,0,0,1
2249,-0.82,1644832718.421875,P06,D10,0,0,1
2250,-0.97,1644832718.4375,P06,D10,0,0,1
2251,-1.08,1644832718.453125,P06,D10,0,0,1
2252,-1.11,1644832718.46875,P06,D10,0,0,1
2253,-1.05,1644832718.484375,P06,D10,0,0,1
2254,-0.91,1644832718.5,P06,D10,0,0,1
2255,-0.66,1644832718.515625,P06,D10,0,0,1
2256,-0.34,1644832718.53125,P06,D10,0,0,1
2257,0.04,1644832718.546875,P06,D10,0,0,1
2258,0.4,1644832718.5625,P06,D10,0,0,1
2259,0.69,1644832718.578125,P06,D10,0,0,1
2260,0.84,1644832718.59375,P06,D10,0,0,1
2261,0.84,1644832718.609375,P06,D10,0,0,1
2262,0.74,1644832718.625,P06,D10,0,0,1
2263,0.59,1644832718.640625,P06,D10,0,0,1
2264,0.46,1644832718.65625,P06,D10,0,0,1
2265,0.4,1644832718.671875,P06,D10,0,0,1
2266,0.41,1644832718.6875,P06,D10,0,0,1
2267,0.47,1644832718.703125,P06,D10,0,0,1
2268,0.55,1644832718.71875,P06,D10,0,0,1
2269,0.63,1644832718.734375,P06,D10,0,0,1
2270,0.73,1644832718.75,P06,D10,0,0,1
2271,0.85,1644832718.765625,P06,D10,0,0,1
2272,0.99,1644832718.78125,P06,D10,0,0,1
2273,1.13,1644832718.796875,P06,D10,0,0,1
2274,1.23,1644832718.8125,P06,D10,0,0,1
2275,1.23,1644832718.828125,P06,D10,0,0,1
2276,1.1,1644832718.84375,P06,D10,0,0,1
2277,0.87,1644832718.859375,P06,D10,0,0,1
2278,0.61,1644832718.875,P06,D10,0,0,1
2279,0.41,1644832718.890625,P06,D10,0,0,1
2280,0.34,1644832718.90625,P06,D10,0,0,1
2281,0.39,1644832718.921875,P06,D10,0,0,1
2282,0.49,1644832718.9375,P06,D10,0,0,1
2283,0.55,1644832718.953125,P06,D10,0,0,1
2284,0.48,1644832718.96875,P06,D10,0,0,1
2285,0.25,1644832718.984375,P06,D10,0,0,1
2286,-0.06,1644832719.0,P06,D10,0,0,1
2287,-0.34,1644832719.015625,P06,D10,0,0,1
2288,-0.5,1644832719.03125,P06,D10,0,0,1
2289,-0.49,1644832719.046875,P06,D10,0,0,1
2290,-0.32,1644832719.0625,P06,D10,0,0,1
2291,-0.06,1644832719.078125,P06,D10,0,0,1
2292,0.19,1644832719.09375,P06,D10,0,0,1
2293,0.38,1644832719.109375,P06,D10,0,0,1
2294,0.46,1644832719.125,P06,D10,0,0,1
2295,0.42,1644832719.140625,P06,D10,0,0,1
2296,0.29,1644832719.15625,P06,D10,0,0,1
2297,0.11,1644832719.171875,P06,D10,0,0,1
2298,-0.09,1644832719.1875,P06,D10,0,0,1
2299,-0.29,1644832719.203125,P06,D10,0,0,1
2300,-0.48,1644832719.21875,P06,D10,0,0,1
2301,-0.66,1644832719.234375,P06,D10,0,0,1
2302,-0.82,1644832719.25,P06,D10,0,0,1
2303,-0.96,1644832719.265625,P06,D10,0,0,1
2304,-1.07,1644832719.28125,P06,D10,0,0,1
2305,-1.16,1644832719.296875,P06,D10,0,0,1
2306,-1.2,1644832719.3125,P06,D10,0,0,1
2307,-1.16,1644832719.328125,P06,D10,0,0,1
2308,-1.01,1644832719.34375,P06,D10,0,0,1
2309,-0.77,1644832719.359375,P06,D10,0,0,1
2310,-0.48,1644832719.375,P06,D10,0,0,1
2311,-0.24,1644832719.390625,P06,D10,0,0,1
2312,-0.15,1644832719.40625,P06,D10,0,0,1
2313,-0.27,1644832719.421875,P06,D10,0,0,1
2314,-0.56,1644832719.4375,P06,D10,0,0,1
2315,-0.9,1644832719.453125,P06,D10,0,0,1
2316,-1.13,1644832719.46875,P06,D10,0,0,1
2317,-1.16,1644832719.484375,P06,D10,0,0,1
2318,-0.98,1644832719.5,P06,D10,0,0,1
2319,-0.69,1644832719.515625,P06,D10,0,0,1
2320,-0.4,1644832719.53125,P06,D10,0,0,1
2321,-0.23,1644832719.546875,P06,D10,0,0,1
2322,-0.19,1644832719.5625,P06,D10,0,0,1
2323,-0.26,1644832719.578125,P06,D10,0,0,1
2324,-0.37,1644832719.59375,P06,D10,0,0,1
2325,-0.47,1644832719.609375,P06,D10,0,0,1
2326,-0.53,1644832719.625,P06,D10,0,0,1
2327,-0.54,1644832719.640625,P06,D10,0,0,1
2328,-0.51,1644832719.65625,P06,D10,0,0,1
2329,-0.42,1644832719.671875,P06,D10,0,0,1
2330,-0.28,1644832719.6875,P06,D10,0,0,1
2331,-0.11,1644832719.703125,P06,D10,0,0,1
2332,0.05,1644832719.71875,P06,D10,0,0,1
2333,0.15,1644832719.734375,P06,D10,0,0,1
2334,0.2,1644832719.75,P06,D10,0,0,1
2335,0.21,1644832719.765625,P06,D10,0,0,1
2336,0.22,1644832719.78125,P06,D10,0,0,1
2337,0.26,1644832719.796875,P06,D10,0,0,1
2338,0.34,1644832719.8125,P06,D10,0,0,1
2339,0.46,1644832719.828125,P06,D10,0,0,1
2340,0.61,1644832719.84375,P06,D10,0,0,1
2341,0.77,1644832719.859375,P06,D10,0,0,1
2342,0.94,1644832719.875,P06,D10,0,0,1
2343,1.07,1644832719.890625,P06,D10,0,0,1
2344,1.11,1644832719.90625,P06,D10,0,0,1
2345,1.02,1644832719.921875,P06,D10,0,0,1
2346,0.81,1644832719.9375,P06,D10,0,0,1
2347,0.55,1644832719.953125,P06,D10,0,0,1
2348,0.36,1644832719.96875,P06,D10,0,0,1
2349,0.3,1644832719.984375,P06,D10,0,0,1
2350,0.4,1644832720.0,P06,D10,0,0,1
2351,0.58,1644832720.015625,P06,D10,0,0,1
2352,0.74,1644832720.03125,P06,D10,0,0,1
2353,0.8,1644832720.046875,P06,D10,0,0,1
2354,0.74,1644832720.0625,P06,D10,0,0,1
2355,0.56,1644832720.078125,P06,D10,0,0,1
2356,0.29,1644832720.09375,P06,D10,0,0,1
2357,-0.03,1644832720.109375,P06,D10,0,0,1
2358,-0.41,1644832720.125,P06,D10,0,0,1
2359,-0.79,1644832720.140625,P06,D10,0,0,1
2360,-1.14,1644832720.15625,P06,D10,0,0,1
2361,-1.36,1644832720.171875,P06,D10,0,0,1
2362,-1.44,1644832720.1875,P06,D10,0,0,1
2363,-1.35,1644832720.203125,P06,D10,0,0,1
2364,-1.13,1644832720.21875,P06,D10,0,0,1
2365,-0.85,1644832720.234375,P06,D10,0,0,1
2366,-0.56,1644832720.25,P06,D10,0,0,1
2367,-0.32,1644832720.265625,P06,D10,0,0,1
2368,-0.15,1644832720.28125,P06,D10,0,0,1
2369,-0.06,1644832720.296875,P06,D10,0,0,1
2370,-0.06,1644832720.3125,P06,D10,0,0,1
2371,-0.1,1644832720.328125,P06,D10,0,0,1
2372,-0.16,1644832720.34375,P06,D10,0,0,1
2373,-0.18,1644832720.359375,P06,D10,0,0,1
2374,-0.14,1644832720.375,P06,D10,0,0,1
2375,-0.03,1644832720.390625,P06,D10,0,0,1
2376,0.13,1644832720.40625,P06,D10,0,0,1
2377,0.34,1644832720.421875,P06,D10,0,0,1
2378,0.55,1644832720.4375,P06,D10,0,0,1
2379,0.7,1644832720.453125,P06,D10,0,0,1
2380,0.73,1644832720.46875,P06,D10,0,0,1
2381,0.59,1644832720.484375,P06,D10,0,0,1
2382,0.3,1644832720.5,P06,D10,0,0,1
2383,-0.05,1644832720.515625,P06,D10,0,0,1
2384,-0.36,1644832720.53125,P06,D10,0,0,1
2385,-0.51,1644832720.546875,P06,D10,0,0,1
2386,-0.49,1644832720.5625,P06,D10,0,0,1
2387,-0.34,1644832720.578125,P06,D10,0,0,1
2388,-0.17,1644832720.59375,P06,D10,0,0,1
2389,-0.05,1644832720.609375,P06,D10,0,0,1
2390,-0.04,1644832720.625,P06,D10,0,0,1
2391,-0.09,1644832720.640625,P06,D10,0,0,1
2392,-0.15,1644832720.65625,P06,D10,0,0,1
2393,-0.18,1644832720.671875,P06,D10,0,0,1
2394,-0.15,1644832720.6875,P06,D10,0,0,1
2395,-0.08,1644832720.703125,P06,D10,0,0,1
2396,0.0,1644832720.71875,P06,D10,0,0,1
2397,0.08,1644832720.734375,P06,D10,0,0,1
2398,0.15,1644832720.75,P06,D10,0,0,1
2399,0.23,1644832720.765625,P06,D10,0,0,1
2400,0.37,1644832720.78125,P06,D10,0,0,1
2401,0.57,1644832720.796875,P06,D10,0,0,1
2402,0.8,1644832720.8125,P06,D10,0,0,1
2403,1.01,1644832720.828125,P06,D10,0,0,1
2404,1.13,1644832720.84375,P06,D10,0,0,1
2405,1.09,1644832720.859375,P06,D10,0,0,1
2406,0.88,1644832720.875,P06,D10,0,0,1
2407,0.55,1644832720.890625,P06,D10,0,0,1
2408,0.21,1644832720.90625,P06,D10,0,0,1
2409,-0.01,1644832720.921875,P06,D10,0,0,1
2410,-0.02,1644832720.9375,P06,D10,0,0,1
2411,0.17,1644832720.953125,P06,D10,0,0,1
2412,0.47,1644832720.96875,P06,D10,0,0,1
2413,0.71,1644832720.984375,P06,D10,0,0,1
2414,0.75,1644832721.0,P06,D10,0,0,1
2415,0.53,1644832721.015625,P06,D10,0,0,1
2416,0.1,1644832721.03125,P06,D10,0,0,1
2417,-0.36,1644832721.046875,P06,D10,0,0,1
2418,-0.67,1644832721.0625,P06,D10,0,0,1
2419,-0.73,1644832721.078125,P06,D10,0,0,1
2420,-0.57,1644832721.09375,P06,D10,0,0,1
2421,-0.29,1644832721.109375,P06,D10,0,0,1
2422,-0.05,1644832721.125,P06,D10,0,0,1
2423,0.08,1644832721.140625,P06,D10,0,0,1
2424,0.1,1644832721.15625,P06,D10,0,0,1
2425,0.07,1644832721.171875,P06,D10,0,0,1
2426,0.04,1644832721.1875,P06,D10,0,0,1
2427,0.02,1644832721.203125,P06,D10,0,0,1
2428,-0.03,1644832721.21875,P06,D10,0,0,1
2429,-0.13,1644832721.234375,P06,D10,0,0,1
2430,-0.27,1644832721.25,P06,D10,0,0,1
2431,-0.37,1644832721.265625,P06,D10,0,0,1
2432,-0.37,1644832721.28125,P06,D10,0,0,1
2433,-0.22,1644832721.296875,P06,D10,0,0,1
2434,0.03,1644832721.3125,P06,D10,0,0,1
2435,0.29,1644832721.328125,P06,D10,0,0,1
2436,0.49,1644832721.34375,P06,D10,0,0,1
2437,0.6,1644832721.359375,P06,D10,0,0,1
2438,0.64,1644832721.375,P06,D10,0,0,1
2439,0.65,1644832721.390625,P06,D10,0,0,1
2440,0.61,1644832721.40625,P06,D10,0,0,1
2441,0.47,1644832721.421875,P06,D10,0,0,1
2442,0.16,1644832721.4375,P06,D10,0,0,1
2443,-0.32,1644832721.453125,P06,D10,0,0,1
2444,-0.89,1644832721.46875,P06,D10,0,0,1
2445,-1.4,1644832721.484375,P06,D10,0,0,1
2446,-1.68,1644832721.5,P06,D10,0,0,1
2447,-1.64,1644832721.515625,P06,D10,0,0,1
2448,-1.33,1644832721.53125,P06,D10,0,0,1
2449,-0.87,1644832721.546875,P06,D10,0,0,1
2450,-0.42,1644832721.5625,P06,D10,0,0,1
2451,-0.09,1644832721.578125,P06,D10,0,0,1
2452,0.08,1644832721.59375,P06,D10,0,0,1
2453,0.12,1644832721.609375,P06,D10,0,0,1
2454,0.08,1644832721.625,P06,D10,0,0,1
2455,-0.01,1644832721.640625,P06,D10,0,0,1
2456,-0.19,1644832721.65625,P06,D10,0,0,1
2457,-0.46,1644832721.671875,P06,D10,0,0,1
2458,-0.8,1644832721.6875,P06,D10,0,0,1
2459,-1.16,1644832721.703125,P06,D10,0,0,1
2460,-1.43,1644832721.71875,P06,D10,0,0,1
2461,-1.52,1644832721.734375,P06,D10,0,0,1
2462,-1.4,1644832721.75,P06,D10,0,0,1
2463,-1.14,1644832721.765625,P06,D10,0,0,1
2464,-0.86,1644832721.78125,P06,D10,0,0,1
2465,-0.66,1644832721.796875,P06,D10,0,0,1
2466,-0.6,1644832721.8125,P06,D10,0,0,1
2467,-0.59,1644832721.828125,P06,D10,0,0,1
2468,-0.52,1644832721.84375,P06,D10,0,0,1
2469,-0.28,1644832721.859375,P06,D10,0,0,1
2470,0.17,1644832721.875,P06,D10,0,0,1
2471,0.79,1644832721.890625,P06,D10,0,0,1
2472,1.44,1644832721.90625,P06,D10,0,0,1
2473,1.99,1644832721.921875,P06,D10,0,0,1
2474,2.31,1644832721.9375,P06,D10,0,0,1
2475,2.37,1644832721.953125,P06,D10,0,0,1
2476,2.16,1644832721.96875,P06,D10,0,0,1
2477,1.77,1644832721.984375,P06,D10,0,0,1
2478,1.29,1644832722.0,P06,D10,0,0,1
2479,0.85,1644832722.015625,P06,D10,0,0,1
2480,0.52,1644832722.03125,P06,D10,0,0,1
2481,0.37,1644832722.046875,P06,D10,0,0,1
2482,0.37,1644832722.0625,P06,D10,0,0,1
2483,0.46,1644832722.078125,P06,D10,0,0,1
2484,0.54,1644832722.09375,P06,D10,0,0,1
2485,0.53,1644832722.109375,P06,D10,0,0,1
2486,0.42,1644832722.125,P06,D10,0,0,1
2487,0.27,1644832722.140625,P06,D10,0,0,1
2488,0.17,1644832722.15625,P06,D10,0,0,1
2489,0.16,1644832722.171875,P06,D10,0,0,1
2490,0.27,1644832722.1875,P06,D10,0,0,1
2491,0.42,1644832722.203125,P06,D10,0,0,1
2492,0.53,1644832722.21875,P06,D10,0,0,1
2493,0.55,1644832722.234375,P06,D10,0,0,1
2494,0.47,1644832722.25,P06,D10,0,0,1
2495,0.31,1644832722.265625,P06,D10,0,0,1
2496,0.14,1644832722.28125,P06,D10,0,0,1
2497,-0.0,1644832722.296875,P06,D10,0,0,1
2498,-0.13,1644832722.3125,P06,D10,0,0,1
2499,-0.22,1644832722.328125,P06,D10,0,0,1
2500,-0.29,1644832722.34375,P06,D10,0,0,1
2501,-0.3,1644832722.359375,P06,D10,0,0,1
2502,-0.27,1644832722.375,P06,D10,0,0,1
2503,-0.19,1644832722.390625,P06,D10,0,0,1
2504,-0.11,1644832722.40625,P06,D10,0,0,1
2505,-0.06,1644832722.421875,P06,D10,0,0,1
2506,-0.08,1644832722.4375,P06,D10,0,0,1
2507,-0.14,1644832722.453125,P06,D10,0,0,1
2508,-0.21,1644832722.46875,P06,D10,0,0,1
2509,-0.23,1644832722.484375,P06,D10,0,0,1
2510,-0.18,1644832722.5,P06,D10,0,0,1
2511,-0.09,1644832722.515625,P06,D10,0,0,1
2512,0.01,1644832722.53125,P06,D10,0,0,1
2513,0.04,1644832722.546875,P06,D10,0,0,1
2514,-0.02,1644832722.5625,P06,D10,0,0,1
2515,-0.15,1644832722.578125,P06,D10,0,0,1
2516,-0.3,1644832722.59375,P06,D10,0,0,1
2517,-0.39,1644832722.609375,P06,D10,0,0,1
2518,-0.41,1644832722.625,P06,D10,0,0,1
2519,-0.41,1644832722.640625,P06,D10,0,0,1
2520,-0.44,1644832722.65625,P06,D10,0,0,1
2521,-0.54,1644832722.671875,P06,D10,0,0,1
2522,-0.7,1644832722.6875,P06,D10,0,0,1
2523,-0.83,1644832722.703125,P06,D10,0,0,1
2524,-0.84,1644832722.71875,P06,D10,0,0,1
2525,-0.66,1644832722.734375,P06,D10,0,0,1
2526,-0.35,1644832722.75,P06,D10,0,0,1
2527,-0.02,1644832722.765625,P06,D10,0,0,1
2528,0.2,1644832722.78125,P06,D10,0,0,1
2529,0.25,1644832722.796875,P06,D10,0,0,1
2530,0.16,1644832722.8125,P06,D10,0,0,1
2531,0.03,1644832722.828125,P06,D10,0,0,1
2532,-0.01,1644832722.84375,P06,D10,0,0,1
2533,0.06,1644832722.859375,P06,D10,0,0,1
2534,0.2,1644832722.875,P06,D10,0,0,1
2535,0.31,1644832722.890625,P06,D10,0,0,1
2536,0.33,1644832722.90625,P06,D10,0,0,1
2537,0.26,1644832722.921875,P06,D10,0,0,1
2538,0.15,1644832722.9375,P06,D10,0,0,1
2539,0.06,1644832722.953125,P06,D10,0,0,1
2540,-0.01,1644832722.96875,P06,D10,0,0,1
2541,-0.09,1644832722.984375,P06,D10,0,0,1
2542,-0.22,1644832723.0,P06,D10,0,0,1
2543,-0.39,1644832723.015625,P06,D10,0,0,1
2544,-0.54,1644832723.03125,P06,D10,0,0,1
2545,-0.55,1644832723.046875,P06,D10,0,0,1
2546,-0.39,1644832723.0625,P06,D10,0,0,1
2547,-0.12,1644832723.078125,P06,D10,0,0,1
2548,0.17,1644832723.09375,P06,D10,0,0,1
2549,0.35,1644832723.109375,P06,D10,0,0,1
2550,0.4,1644832723.125,P06,D10,0,0,1
2551,0.35,1644832723.140625,P06,D10,0,0,1
2552,0.28,1644832723.15625,P06,D10,0,0,1
2553,0.25,1644832723.171875,P06,D10,0,0,1
2554,0.23,1644832723.1875,P06,D10,0,0,1
2555,0.18,1644832723.203125,P06,D10,0,0,1
2556,0.06,1644832723.21875,P06,D10,0,0,1
2557,-0.12,1644832723.234375,P06,D10,0,0,1
2558,-0.25,1644832723.25,P06,D10,0,0,1
2559,-0.24,1644832723.265625,P06,D10,0,0,1
2560,-0.05,1644832723.28125,P06,D10,0,0,1
2561,0.28,1644832723.296875,P06,D10,0,0,1
2562,0.63,1644832723.3125,P06,D10,0,0,1
2563,0.87,1644832723.328125,P06,D10,0,0,1
2564,0.91,1644832723.34375,P06,D10,0,0,1
2565,0.75,1644832723.359375,P06,D10,0,0,1
2566,0.46,1644832723.375,P06,D10,0,0,1
2567,0.15,1644832723.390625,P06,D10,0,0,1
2568,-0.1,1644832723.40625,P06,D10,0,0,1
2569,-0.27,1644832723.421875,P06,D10,0,0,1
2570,-0.37,1644832723.4375,P06,D10,0,0,1
2571,-0.46,1644832723.453125,P06,D10,0,0,1
2572,-0.53,1644832723.46875,P06,D10,0,0,1
2573,-0.57,1644832723.484375,P06,D10,0,0,1
2574,-0.55,1644832723.5,P06,D10,0,0,1
2575,-0.43,1644832723.515625,P06,D10,0,0,1
2576,-0.23,1644832723.53125,P06,D10,0,0,1
2577,-0.05,1644832723.546875,P06,D10,0,0,1
2578,0.04,1644832723.5625,P06,D10,0,0,1
2579,0.0,1644832723.578125,P06,D10,0,0,1
2580,-0.13,1644832723.59375,P06,D10,0,0,1
2581,-0.27,1644832723.609375,P06,D10,0,0,1
2582,-0.3,1644832723.625,P06,D10,0,0,1
2583,-0.21,1644832723.640625,P06,D10,0,0,1
2584,-0.02,1644832723.65625,P06,D10,0,0,1
2585,0.17,1644832723.671875,P06,D10,0,0,1
2586,0.28,1644832723.6875,P06,D10,0,0,1
2587,0.28,1644832723.703125,P06,D10,0,0,1
2588,0.21,1644832723.71875,P06,D10,0,0,1
2589,0.13,1644832723.734375,P06,D10,0,0,1
2590,0.1,1644832723.75,P06,D10,0,0,1
2591,0.15,1644832723.765625,P06,D10,0,0,1
2592,0.29,1644832723.78125,P06,D10,0,0,1
2593,0.5,1644832723.796875,P06,D10,0,0,1
2594,0.71,1644832723.8125,P06,D10,0,0,1
2595,0.87,1644832723.828125,P06,D10,0,0,1
2596,0.92,1644832723.84375,P06,D10,0,0,1
2597,0.79,1644832723.859375,P06,D10,0,0,1
2598,0.48,1644832723.875,P06,D10,0,0,1
2599,0.05,1644832723.890625,P06,D10,0,0,1
2600,-0.4,1644832723.90625,P06,D10,0,0,1
2601,-0.75,1644832723.921875,P06,D10,0,0,1
2602,-0.94,1644832723.9375,P06,D10,0,0,1
2603,-0.98,1644832723.953125,P06,D10,0,0,1
2604,-0.92,1644832723.96875,P06,D10,0,0,1
2605,-0.85,1644832723.984375,P06,D10,0,0,1
2606,-0.76,1644832724.0,P06,D10,0,0,1
2607,-0.63,1644832724.015625,P06,D10,0,0,1
2608,-0.41,1644832724.03125,P06,D10,0,0,1
2609,-0.09,1644832724.046875,P06,D10,0,0,1
2610,0.27,1644832724.0625,P06,D10,0,0,1
2611,0.56,1644832724.078125,P06,D10,0,0,1
2612,0.67,1644832724.09375,P06,D10,0,0,1
2613,0.56,1644832724.109375,P06,D10,0,0,1
2614,0.3,1644832724.125,P06,D10,0,0,1
2615,-0.01,1644832724.140625,P06,D10,0,0,1
2616,-0.25,1644832724.15625,P06,D10,0,0,1
2617,-0.36,1644832724.171875,P06,D10,0,0,1
2618,-0.37,1644832724.1875,P06,D10,0,0,1
2619,-0.34,1644832724.203125,P06,D10,0,0,1
2620,-0.35,1644832724.21875,P06,D10,0,0,1
2621,-0.41,1644832724.234375,P06,D10,0,0,1
2622,-0.49,1644832724.25,P06,D10,0,0,1
2623,-0.51,1644832724.265625,P06,D10,0,0,1
2624,-0.42,1644832724.28125,P06,D10,0,0,1
2625,-0.23,1644832724.296875,P06,D10,0,0,1
2626,0.03,1644832724.3125,P06,D10,0,0,1
2627,0.31,1644832724.328125,P06,D10,0,0,1
2628,0.53,1644832724.34375,P06,D10,0,0,1
2629,0.65,1644832724.359375,P06,D10,0,0,1
2630,0.62,1644832724.375,P06,D10,0,0,1
2631,0.45,1644832724.390625,P06,D10,0,0,1
2632,0.16,1644832724.40625,P06,D10,0,0,1
2633,-0.14,1644832724.421875,P06,D10,0,0,1
2634,-0.35,1644832724.4375,P06,D10,0,0,1
2635,-0.41,1644832724.453125,P06,D10,0,0,1
2636,-0.32,1644832724.46875,P06,D10,0,0,1
2637,-0.19,1644832724.484375,P06,D10,0,0,1
2638,-0.13,1644832724.5,P06,D10,0,0,1
2639,-0.22,1644832724.515625,P06,D10,0,0,1
2640,-0.44,1644832724.53125,P06,D10,0,0,1
2641,-0.68,1644832724.546875,P06,D10,0,0,1
2642,-0.82,1644832724.5625,P06,D10,0,0,1
2643,-0.77,1644832724.578125,P06,D10,0,0,1
2644,-0.56,1644832724.59375,P06,D10,0,0,1
2645,-0.26,1644832724.609375,P06,D10,0,0,1
2646,0.04,1644832724.625,P06,D10,0,0,1
2647,0.3,1644832724.640625,P06,D10,0,0,1
2648,0.55,1644832724.65625,P06,D10,0,0,1
2649,0.79,1644832724.671875,P06,D10,0,0,1
2650,1.01,1644832724.6875,P06,D10,0,0,1
2651,1.15,1644832724.703125,P06,D10,0,0,1
2652,1.16,1644832724.71875,P06,D10,0,0,1
2653,1.07,1644832724.734375,P06,D10,0,0,1
2654,0.95,1644832724.75,P06,D10,0,0,1
2655,0.88,1644832724.765625,P06,D10,0,0,1
2656,0.91,1644832724.78125,P06,D10,0,0,1
2657,0.98,1644832724.796875,P06,D10,0,0,1
2658,1.0,1644832724.8125,P06,D10,0,0,1
2659,0.85,1644832724.828125,P06,D10,0,0,1
2660,0.52,1644832724.84375,P06,D10,0,0,1
2661,0.08,1644832724.859375,P06,D10,0,0,1
2662,-0.33,1644832724.875,P06,D10,0,0,1
2663,-0.62,1644832724.890625,P06,D10,0,0,1
2664,-0.75,1644832724.90625,P06,D10,0,0,1
2665,-0.73,1644832724.921875,P06,D10,0,0,1
2666,-0.63,1644832724.9375,P06,D10,0,0,1
2667,-0.48,1644832724.953125,P06,D10,0,0,1
2668,-0.29,1644832724.96875,P06,D10,0,0,1
2669,-0.08,1644832724.984375,P06,D10,0,0,1
2670,0.08,1644832725.0,P06,D10,0,0,1
2671,0.13,1644832725.015625,P06,D10,0,0,1
2672,-0.01,1644832725.03125,P06,D10,0,0,1
2673,-0.32,1644832725.046875,P06,D10,0,0,1
2674,-0.73,1644832725.0625,P06,D10,0,0,1
2675,-1.08,1644832725.078125,P06,D10,0,0,1
2676,-1.24,1644832725.09375,P06,D10,0,0,1
2677,-1.14,1644832725.109375,P06,D10,0,0,1
2678,-0.82,1644832725.125,P06,D10,0,0,1
2679,-0.37,1644832725.140625,P06,D10,0,0,1
2680,0.08,1644832725.15625,P06,D10,0,0,1
2681,0.42,1644832725.171875,P06,D10,0,0,1
2682,0.62,1644832725.1875,P06,D10,0,0,1
2683,0.67,1644832725.203125,P06,D10,0,0,1
2684,0.62,1644832725.21875,P06,D10,0,0,1
2685,0.52,1644832725.234375,P06,D10,0,0,1
2686,0.39,1644832725.25,P06,D10,0,0,1
2687,0.28,1644832725.265625,P06,D10,0,0,1
2688,0.2,1644832725.28125,P06,D10,0,0,1
2689,0.13,1644832725.296875,P06,D10,0,0,1
2690,0.08,1644832725.3125,P06,D10,0,0,1
2691,0.01,1644832725.328125,P06,D10,0,0,1
2692,-0.07,1644832725.34375,P06,D10,0,0,1
2693,-0.15,1644832725.359375,P06,D10,0,0,1
2694,-0.2,1644832725.375,P06,D10,0,0,1
2695,-0.18,1644832725.390625,P06,D10,0,0,1
2696,-0.1,1644832725.40625,P06,D10,0,0,1
2697,0.04,1644832725.421875,P06,D10,0,0,1
2698,0.19,1644832725.4375,P06,D10,0,0,1
2699,0.3,1644832725.453125,P06,D10,0,0,1
2700,0.35,1644832725.46875,P06,D10,0,0,1
2701,0.37,1644832725.484375,P06,D10,0,0,1
2702,0.37,1644832725.5,P06,D10,0,0,1
2703,0.39,1644832725.515625,P06,D10,0,0,1
2704,0.42,1644832725.53125,P06,D10,0,0,1
2705,0.42,1644832725.546875,P06,D10,0,0,1
2706,0.31,1644832725.5625,P06,D10,0,0,1
2707,0.04,1644832725.578125,P06,D10,0,0,1
2708,-0.34,1644832725.59375,P06,D10,0,0,1
2709,-0.72,1644832725.609375,P06,D10,0,0,1
2710,-0.94,1644832725.625,P06,D10,0,0,1
2711,-0.9,1644832725.640625,P06,D10,0,0,1
2712,-0.62,1644832725.65625,P06,D10,0,0,1
2713,-0.23,1644832725.671875,P06,D10,0,0,1
2714,0.1,1644832725.6875,P06,D10,0,0,1
2715,0.27,1644832725.703125,P06,D10,0,0,1
2716,0.28,1644832725.71875,P06,D10,0,0,1
2717,0.22,1644832725.734375,P06,D10,0,0,1
2718,0.18,1644832725.75,P06,D10,0,0,1
2719,0.21,1644832725.765625,P06,D10,0,0,1
2720,0.26,1644832725.78125,P06,D10,0,0,1
2721,0.26,1644832725.796875,P06,D10,0,0,1
2722,0.13,1644832725.8125,P06,D10,0,0,1
2723,-0.1,1644832725.828125,P06,D10,0,0,1
2724,-0.32,1644832725.84375,P06,D10,0,0,1
2725,-0.4,1644832725.859375,P06,D10,0,0,1
2726,-0.27,1644832725.875,P06,D10,0,0,1
2727,0.07,1644832725.890625,P06,D10,0,0,1
2728,0.47,1644832725.90625,P06,D10,0,0,1
2729,0.77,1644832725.921875,P06,D10,0,0,1
2730,0.84,1644832725.9375,P06,D10,0,0,1
2731,0.66,1644832725.953125,P06,D10,0,0,1
2732,0.27,1644832725.96875,P06,D10,0,0,1
2733,-0.18,1644832725.984375,P06,D10,0,0,1
2734,-0.56,1644832726.0,P06,D10,0,0,1
2735,-0.78,1644832726.015625,P06,D10,0,0,1
2736,-0.82,1644832726.03125,P06,D10,0,0,1
2737,-0.72,1644832726.046875,P06,D10,0,0,1
2738,-0.54,1644832726.0625,P06,D10,0,0,1
2739,-0.35,1644832726.078125,P06,D10,0,0,1
2740,-0.18,1644832726.09375,P06,D10,0,0,1
2741,-0.05,1644832726.109375,P06,D10,0,0,1
2742,0.01,1644832726.125,P06,D10,0,0,1
2743,0.02,1644832726.140625,P06,D10,0,0,1
2744,-0.02,1644832726.15625,P06,D10,0,0,1
2745,-0.09,1644832726.171875,P06,D10,0,0,1
2746,-0.18,1644832726.1875,P06,D10,0,0,1
2747,-0.29,1644832726.203125,P06,D10,0,0,1
2748,-0.45,1644832726.21875,P06,D10,0,0,1
2749,-0.66,1644832726.234375,P06,D10,0,0,1
2750,-0.91,1644832726.25,P06,D10,0,0,1
2751,-1.12,1644832726.265625,P06,D10,0,0,1
2752,-1.21,1644832726.28125,P06,D10,0,0,1
2753,-1.11,1644832726.296875,P06,D10,0,0,1
2754,-0.8,1644832726.3125,P06,D10,0,0,1
2755,-0.37,1644832726.328125,P06,D10,0,0,1
2756,0.07,1644832726.34375,P06,D10,0,0,1
2757,0.37,1644832726.359375,P06,D10,0,0,1
2758,0.47,1644832726.375,P06,D10,0,0,1
2759,0.37,1644832726.390625,P06,D10,0,0,1
2760,0.18,1644832726.40625,P06,D10,0,0,1
2761,0.03,1644832726.421875,P06,D10,0,0,1
2762,0.02,1644832726.4375,P06,D10,0,0,1
2763,0.16,1644832726.453125,P06,D10,0,0,1
2764,0.39,1644832726.46875,P06,D10,0,0,1
2765,0.6,1644832726.484375,P06,D10,0,0,1
2766,0.69,1644832726.5,P06,D10,0,0,1
2767,0.61,1644832726.515625,P06,D10,0,0,1
2768,0.38,1644832726.53125,P06,D10,0,0,1
2769,0.1,1644832726.546875,P06,D10,0,0,1
2770,-0.13,1644832726.5625,P06,D10,0,0,1
2771,-0.24,1644832726.578125,P06,D10,0,0,1
2772,-0.19,1644832726.59375,P06,D10,0,0,1
2773,-0.02,1644832726.609375,P06,D10,0,0,1
2774,0.18,1644832726.625,P06,D10,0,0,1
2775,0.32,1644832726.640625,P06,D10,0,0,1
2776,0.37,1644832726.65625,P06,D10,0,0,1
2777,0.34,1644832726.671875,P06,D10,0,0,1
2778,0.27,1644832726.6875,P06,D10,0,0,1
2779,0.22,1644832726.703125,P06,D10,0,0,1
2780,0.19,1644832726.71875,P06,D10,0,0,1
2781,0.17,1644832726.734375,P06,D10,0,0,1
2782,0.12,1644832726.75,P06,D10,0,0,1
2783,0.04,1644832726.765625,P06,D10,0,0,1
2784,-0.04,1644832726.78125,P06,D10,0,0,1
2785,-0.08,1644832726.796875,P06,D10,0,0,1
2786,-0.03,1644832726.8125,P06,D10,0,0,1
2787,0.1,1644832726.828125,P06,D10,0,0,1
2788,0.25,1644832726.84375,P06,D10,0,0,1
2789,0.36,1644832726.859375,P06,D10,0,0,1
2790,0.37,1644832726.875,P06,D10,0,0,1
2791,0.3,1644832726.890625,P06,D10,0,0,1
2792,0.19,1644832726.90625,P06,D10,0,0,1
2793,0.11,1644832726.921875,P06,D10,0,0,1
2794,0.12,1644832726.9375,P06,D10,0,0,1
2795,0.21,1644832726.953125,P06,D10,0,0,1
2796,0.34,1644832726.96875,P06,D10,0,0,1
2797,0.42,1644832726.984375,P06,D10,0,0,1
2798,0.4,1644832727.0,P06,D10,0,0,1
2799,0.28,1644832727.015625,P06,D10,0,0,1
2800,0.11,1644832727.03125,P06,D10,0,0,1
2801,-0.02,1644832727.046875,P06,D10,0,0,1
2802,-0.03,1644832727.0625,P06,D10,0,0,1
2803,0.12,1644832727.078125,P06,D10,0,0,1
2804,0.36,1644832727.09375,P06,D10,0,0,1
2805,0.6,1644832727.109375,P06,D10,0,0,1
2806,0.73,1644832727.125,P06,D10,0,0,1
2807,0.69,1644832727.140625,P06,D10,0,0,1
2808,0.54,1644832727.15625,P06,D10,0,0,1
2809,0.38,1644832727.171875,P06,D10,0,0,1
2810,0.29,1644832727.1875,P06,D10,0,0,1
2811,0.32,1644832727.203125,P06,D10,0,0,1
2812,0.4,1644832727.21875,P06,D10,0,0,1
2813,0.44,1644832727.234375,P06,D10,0,0,1
2814,0.35,1644832727.25,P06,D10,0,0,1
2815,0.12,1644832727.265625,P06,D10,0,0,1
2816,-0.16,1644832727.28125,P06,D10,0,0,1
2817,-0.37,1644832727.296875,P06,D10,0,0,1
2818,-0.43,1644832727.3125,P06,D10,0,0,1
2819,-0.36,1644832727.328125,P06,D10,0,0,1
2820,-0.25,1644832727.34375,P06,D10,0,0,1
2821,-0.2,1644832727.359375,P06,D10,0,0,1
2822,-0.28,1644832727.375,P06,D10,0,0,1
2823,-0.42,1644832727.390625,P06,D10,0,0,1
2824,-0.51,1644832727.40625,P06,D10,0,0,1
2825,-0.44,1644832727.421875,P06,D10,0,0,1
2826,-0.2,1644832727.4375,P06,D10,0,0,1
2827,0.14,1644832727.453125,P06,D10,0,0,1
2828,0.43,1644832727.46875,P06,D10,0,0,1
2829,0.57,1644832727.484375,P06,D10,0,0,1
2830,0.55,1644832727.5,P06,D10,0,0,1
2831,0.41,1644832727.515625,P06,D10,0,0,1
2832,0.28,1644832727.53125,P06,D10,0,0,1
2833,0.19,1644832727.546875,P06,D10,0,0,1
2834,0.15,1644832727.5625,P06,D10,0,0,1
2835,0.08,1644832727.578125,P06,D10,0,0,1
2836,-0.03,1644832727.59375,P06,D10,0,0,1
2837,-0.17,1644832727.609375,P06,D10,0,0,1
2838,-0.3,1644832727.625,P06,D10,0,0,1
2839,-0.34,1644832727.640625,P06,D10,0,0,1
2840,-0.33,1644832727.65625,P06,D10,0,0,1
2841,-0.3,1644832727.671875,P06,D10,0,0,1
2842,-0.34,1644832727.6875,P06,D10,0,0,1
2843,-0.48,1644832727.703125,P06,D10,0,0,1
2844,-0.64,1644832727.71875,P06,D10,0,0,1
2845,-0.76,1644832727.734375,P06,D10,0,0,1
2846,-0.73,1644832727.75,P06,D10,0,0,1
2847,-0.56,1644832727.765625,P06,D10,0,0,1
2848,-0.33,1644832727.78125,P06,D10,0,0,1
2849,-0.17,1644832727.796875,P06,D10,0,0,1
2850,-0.19,1644832727.8125,P06,D10,0,0,1
2851,-0.43,1644832727.828125,P06,D10,0,0,1
2852,-0.81,1644832727.84375,P06,D10,0,0,1
2853,-1.19,1644832727.859375,P06,D10,0,0,1
2854,-1.4,1644832727.875,P06,D10,0,0,1
2855,-1.32,1644832727.890625,P06,D10,0,0,1
2856,-0.92,1644832727.90625,P06,D10,0,0,1
2857,-0.3,1644832727.921875,P06,D10,0,0,1
2858,0.36,1644832727.9375,P06,D10,0,0,1
2859,0.88,1644832727.953125,P06,D10,0,0,1
2860,1.12,1644832727.96875,P06,D10,0,0,1
2861,1.08,1644832727.984375,P06,D10,0,0,1
2862,0.86,1644832728.0,P06,D10,0,0,1
2863,0.6,1644832728.015625,P06,D10,0,0,1
2864,0.4,1644832728.03125,P06,D10,0,0,1
2865,0.35,1644832728.046875,P06,D10,0,0,1
2866,0.44,1644832728.0625,P06,D10,0,0,1
2867,0.63,1644832728.078125,P06,D10,0,0,1
2868,0.87,1644832728.09375,P06,D10,0,0,1
2869,1.09,1644832728.109375,P06,D10,0,0,1
2870,1.18,1644832728.125,P06,D10,0,0,1
2871,1.08,1644832728.140625,P06,D10,0,0,1
2872,0.77,1644832728.15625,P06,D10,0,0,1
2873,0.33,1644832728.171875,P06,D10,0,0,1
2874,-0.11,1644832728.1875,P06,D10,0,0,1
2875,-0.4,1644832728.203125,P06,D10,0,0,1
2876,-0.44,1644832728.21875,P06,D10,0,0,1
2877,-0.29,1644832728.234375,P06,D10,0,0,1
2878,-0.07,1644832728.25,P06,D10,0,0,1
2879,0.08,1644832728.265625,P06,D10,0,0,1
2880,0.08,1644832728.28125,P06,D10,0,0,1
2881,-0.05,1644832728.296875,P06,D10,0,0,1
2882,-0.23,1644832728.3125,P06,D10,0,0,1
2883,-0.37,1644832728.328125,P06,D10,0,0,1
2884,-0.43,1644832728.34375,P06,D10,0,0,1
2885,-0.46,1644832728.359375,P06,D10,0,0,1
2886,-0.5,1644832728.375,P06,D10,0,0,1
2887,-0.61,1644832728.390625,P06,D10,0,0,1
2888,-0.76,1644832728.40625,P06,D10,0,0,1
2889,-0.88,1644832728.421875,P06,D10,0,0,1
2890,-0.91,1644832728.4375,P06,D10,0,0,1
2891,-0.82,1644832728.453125,P06,D10,0,0,1
2892,-0.64,1644832728.46875,P06,D10,0,0,1
2893,-0.43,1644832728.484375,P06,D10,0,0,1
2894,-0.24,1644832728.5,P06,D10,0,0,1
2895,-0.11,1644832728.515625,P06,D10,0,0,1
2896,-0.04,1644832728.53125,P06,D10,0,0,1
2897,0.0,1644832728.546875,P06,D10,0,0,1
2898,0.02,1644832728.5625,P06,D10,0,0,1
2899,-0.02,1644832728.578125,P06,D10,0,0,1
2900,-0.13,1644832728.59375,P06,D10,0,0,1
2901,-0.33,1644832728.609375,P06,D10,0,0,1
2902,-0.58,1644832728.625,P06,D10,0,0,1
2903,-0.82,1644832728.640625,P06,D10,0,0,1
2904,-0.95,1644832728.65625,P06,D10,0,0,1
2905,-0.89,1644832728.671875,P06,D10,0,0,1
2906,-0.68,1644832728.6875,P06,D10,0,0,1
2907,-0.38,1644832728.703125,P06,D10,0,0,1
2908,-0.14,1644832728.71875,P06,D10,0,0,1
2909,-0.04,1644832728.734375,P06,D10,0,0,1
2910,-0.1,1644832728.75,P06,D10,0,0,1
2911,-0.26,1644832728.765625,P06,D10,0,0,1
2912,-0.4,1644832728.78125,P06,D10,0,0,1
2913,-0.46,1644832728.796875,P06,D10,0,0,1
2914,-0.44,1644832728.8125,P06,D10,0,0,1
2915,-0.38,1644832728.828125,P06,D10,0,0,1
2916,-0.3,1644832728.84375,P06,D10,0,0,1
2917,-0.18,1644832728.859375,P06,D10,0,0,1
2918,0.03,1644832728.875,P06,D10,0,0,1
